    10.0000       376
    10.0200       388
    10.0400       382
    10.0600       358
    10.0800       366
    10.1000       380
    10.1200       400
    10.1400       362
    10.1600       400
    10.1800       384
    10.2000       382
    10.2200       360
    10.2400       394
    10.2600       370
    10.2800       356
    10.3000       372
    10.3200       368
    10.3400       324
    10.3600       332
    10.3800       342
    10.4000       394
    10.4200       362
    10.4400       352
    10.4600       328
    10.4800       364
    10.5000       360
    10.5200       340
    10.5400       372
    10.5600       342
    10.5800       374
    10.6000       360
    10.6200       308
    10.6400       358
    10.6600       330
    10.6800       322
    10.7000       348
    10.7200       350
    10.7400       336
    10.7600       316
    10.7800       398
    10.8000       338
    10.8200       346
    10.8400       330
    10.8600       350
    10.8800       344
    10.9000       338
    10.9200       354
    10.9400       354
    10.9600       326
    10.9800       342
    11.0000       312
    11.0200       314
    11.0400       312
    11.0600       352
    11.0800       328
    11.1000       358
    11.1200       338
    11.1400       320
    11.1600       334
    11.1800       332
    11.2000       344
    11.2200       336
    11.2400       362
    11.2600       332
    11.2800       324
    11.3000       348
    11.3200       326
    11.3400       352
    11.3600       320
    11.3800       340
    11.4000       316
    11.4200       328
    11.4400       334
    11.4600       324
    11.4800       346
    11.5000       324
    11.5200       298
    11.5400       328
    11.5600       360
    11.5800       314
    11.6000       322
    11.6200       346
    11.6400       322
    11.6600       294
    11.6800       338
    11.7000       302
    11.7200       342
    11.7400       378
    11.7600       326
    11.7800       342
    11.8000       324
    11.8200       354
    11.8400       324
    11.8600       368
    11.8800       328
    11.9000       354
    11.9200       340
    11.9400       380
    11.9600       330
    11.9800       378
    12.0000       364
    12.0200       406
    12.0400       396
    12.0600       410
    12.0800       388
    12.1000       388
    12.1200       442
    12.1400       430
    12.1600       442
    12.1800       422
    12.2000       438
    12.2200       446
    12.2400       428
    12.2600       416
    12.2800       390
    12.3000       418
    12.3200       352
    12.3400       342
    12.3600       332
    12.3800       318
    12.4000       308
    12.4200       338
    12.4400       328
    12.4600       310
    12.4800       270
    12.5000       318
    12.5200       304
    12.5400       310
    12.5600       296
    12.5800       310
    12.6000       328
    12.6200       282
    12.6400       320
    12.6600       308
    12.6800       290
    12.7000       316
    12.7200       276
    12.7400       302
    12.7600       284
    12.7800       252
    12.8000       278
    12.8200       298
    12.8400       272
    12.8600       298
    12.8800       240
    12.9000       298
    12.9200       296
    12.9400       300
    12.9600       252
    12.9800       264
    13.0000       276
    13.0200       268
    13.0400       292
    13.0600       308
    13.0800       278
    13.1000       314
    13.1200       304
    13.1400       262
    13.1600       288
    13.1800       288
    13.2000       280
    13.2200       274
    13.2400       264
    13.2600       276
    13.2800       276
    13.3000       290
    13.3200       278
    13.3400       298
    13.3600       260
    13.3800       280
    13.4000       312
    13.4200       288
    13.4400       262
    13.4600       274
    13.4800       266
    13.5000       236
    13.5200       246
    13.5400       304
    13.5600       270
    13.5800       272
    13.6000       266
    13.6200       276
    13.6400       264
    13.6600       278
    13.6800       250
    13.7000       286
    13.7200       254
    13.7400       264
    13.7600       292
    13.7800       284
    13.8000       284
    13.8200       246
    13.8400       262
    13.8600       252
    13.8800       286
    13.9000       262
    13.9200       282
    13.9400       276
    13.9600       288
    13.9800       292
    14.0000       260
    14.0200       272
    14.0400       252
    14.0600       268
    14.0800       258
    14.1000       238
    14.1200       268
    14.1400       270
    14.1600       258
    14.1800       258
    14.2000       294
    14.2200       246
    14.2400       276
    14.2600       266
    14.2800       250
    14.3000       260
    14.3200       270
    14.3400       262
    14.3600       254
    14.3800       254
    14.4000       238
    14.4200       264
    14.4400       244
    14.4600       258
    14.4800       258
    14.5000       256
    14.5200       260
    14.5400       248
    14.5600       272
    14.5800       286
    14.6000       280
    14.6200       266
    14.6400       296
    14.6600       290
    14.6800       290
    14.7000       290
    14.7200       270
    14.7400       292
    14.7600       278
    14.7800       302
    14.8000       304
    14.8200       332
    14.8400       334
    14.8600       334
    14.8800       354
    14.9000       342
    14.9200       360
    14.9400       388
    14.9600       422
    14.9800       400
    15.0000       398
    15.0200       506
    15.0400       450
    15.0600       494
    15.0800       516
    15.1000       544
    15.1200       578
    15.1400       630
    15.1600       666
    15.1800       710
    15.2000       716
    15.2200       706
    15.2400       716
    15.2600       600
    15.2800       590
    15.3000       578
    15.3200       478
    15.3400       428
    15.3600       408
    15.3800       360
    15.4000       344
    15.4200       362
    15.4400       292
    15.4600       326
    15.4800       316
    15.5000       324
    15.5200       314
    15.5400       270
    15.5600       296
    15.5800       280
    15.6000       248
    15.6200       260
    15.6400       248
    15.6600       258
    15.6800       246
    15.7000       242
    15.7200       260
    15.7400       264
    15.7600       278
    15.7800       256
    15.8000       250
    15.8200       228
    15.8400       260
    15.8600       246
    15.8800       248
    15.9000       272
    15.9200       262
    15.9400       234
    15.9600       258
    15.9800       270
    16.0000       254
    16.0200       254
    16.0400       286
    16.0600       286
    16.0800       280
    16.1000       268
    16.1200       286
    16.1400       282
    16.1600       216
    16.1800       260
    16.2000       286
    16.2200       274
    16.2400       270
    16.2600       278
    16.2800       288
    16.3000       306
    16.3200       292
    16.3400       318
    16.3600       248
    16.3800       280
    16.4000       288
    16.4200       284
    16.4400       284
    16.4600       258
    16.4800       246
    16.5000       302
    16.5200       242
    16.5400       276
    16.5600       300
    16.5800       296
    16.6000       290
    16.6200       324
    16.6400       302
    16.6600       336
    16.6800       344
    16.7000       334
    16.7200       380
    16.7400       370
    16.7600       344
    16.7800       410
    16.8000       436
    16.8200       454
    16.8400       510
    16.8600       460
    16.8800       540
    16.9000       574
    16.9200       646
    16.9400       670
    16.9600       760
    16.9800       860
    17.0000       896
    17.0200       916
    17.0400      1008
    17.0600      1006
    17.0800       916
    17.1000       832
    17.1200       824
    17.1400       684
    17.1600       688
    17.1800       622
    17.2000       580
    17.2200       570
    17.2400       544
    17.2600       506
    17.2800       514
    17.3000       488
    17.3200       480
    17.3400       498
    17.3600       484
    17.3800       452
    17.4000       436
    17.4200       372
    17.4400       400
    17.4600       386
    17.4800       358
    17.5000       358
    17.5200       330
    17.5400       330
    17.5600       322
    17.5800       338
    17.6000       328
    17.6200       312
    17.6400       332
    17.6600       302
    17.6800       382
    17.7000       302
    17.7200       342
    17.7400       368
    17.7600       404
    17.7800       394
    17.8000       404
    17.8200       436
    17.8400       414
    17.8600       398
    17.8800       414
    17.9000       402
    17.9200       382
    17.9400       360
    17.9600       330
    17.9800       288
    18.0000       316
    18.0200       288
    18.0400       264
    18.0600       268
    18.0800       278
    18.1000       260
    18.1200       254
    18.1400       232
    18.1600       266
    18.1800       220
    18.2000       252
    18.2200       250
    18.2400       244
    18.2600       234
    18.2800       262
    18.3000       252
    18.3200       230
    18.3400       250
    18.3600       246
    18.3800       224
    18.4000       224
    18.4200       210
    18.4400       242
    18.4600       216
    18.4800       240
    18.5000       230
    18.5200       244
    18.5400       218
    18.5600       254
    18.5800       206
    18.6000       216
    18.6200       228
    18.6400       214
    18.6600       192
    18.6800       224
    18.7000       224
    18.7200       238
    18.7400       240
    18.7600       238
    18.7800       232
    18.8000       250
    18.8200       266
    18.8400       276
    18.8600       268
    18.8800       270
    18.9000       270
    18.9200       286
    18.9400       302
    18.9600       294
    18.9800       320
    19.0000       302
    19.0200       322
    19.0400       352
    19.0600       362
    19.0800       382
    19.1000       422
    19.1200       434
    19.1400       442
    19.1600       534
    19.1800       572
    19.2000       588
    19.2200       608
    19.2400       680
    19.2600       786
    19.2800       814
    19.3000       916
    19.3200      1078
    19.3400      1174
    19.3600      1314
    19.3800      1526
    19.4000      1698
    19.4200      1912
    19.4400      2162
    19.4600      2540
    19.4800      2756
    19.5000      3084
    19.5200      3534
    19.5400      3574
    19.5600      3402
    19.5800      3336
    19.6000      2930
    19.6200      2628
    19.6400      2326
    19.6600      2000
    19.6800      1738
    19.7000      1608
    19.7200      1400
    19.7400      1392
    19.7600      1400
    19.7800      1494
    19.8000      1524
    19.8200      1552
    19.8400      1744
    19.8600      1868
    19.8800      1936
    19.9000      2144
    19.9200      2376
    19.9400      2520
    19.9600      2696
    19.9800      2748
    20.0000      2728
    20.0200      2590
    20.0400      2310
    20.0600      2068
    20.0800      1856
    20.1000      1488
    20.1200      1246
    20.1400      1102
    20.1600       968
    20.1800       828
    20.2000       770
    20.2200       690
    20.2400       670
    20.2600       624
    20.2800       610
    20.3000       612
    20.3200       558
    20.3400       536
    20.3600       476
    20.3800       496
    20.4000       452
    20.4200       446
    20.4400       354
    20.4600       384
    20.4800       354
    20.5000       332
    20.5200       336
    20.5400       312
    20.5600       318
    20.5800       322
    20.6000       278
    20.6200       290
    20.6400       272
    20.6600       294
    20.6800       310
    20.7000       284
    20.7200       296
    20.7400       314
    20.7600       264
    20.7800       294
    20.8000       292
    20.8200       316
    20.8400       334
    20.8600       342
    20.8800       336
    20.9000       340
    20.9200       368
    20.9400       366
    20.9600       374
    20.9800       426
    21.0000       466
    21.0200       464
    21.0400       490
    21.0600       560
    21.0800       630
    21.1000       638
    21.1200       668
    21.1400       714
    21.1600       740
    21.1800       818
    21.2000       768
    21.2200       870
    21.2400       840
    21.2600       814
    21.2800       774
    21.3000       740
    21.3200       720
    21.3400       560
    21.3600       572
    21.3800       506
    21.4000       436
    21.4200       430
    21.4400       398
    21.4600       368
    21.4800       334
    21.5000       318
    21.5200       294
    21.5400       290
    21.5600       238
    21.5800       254
    21.6000       286
    21.6200       258
    21.6400       252
    21.6600       262
    21.6800       258
    21.7000       252
    21.7200       260
    21.7400       260
    21.7600       240
    21.7800       218
    21.8000       242
    21.8200       214
    21.8400       232
    21.8600       264
    21.8800       234
    21.9000       228
    21.9200       238
    21.9400       234
    21.9600       246
    21.9800       256
    22.0000       218
    22.0200       228
    22.0400       266
    22.0600       232
    22.0800       274
    22.1000       268
    22.1200       250
    22.1400       250
    22.1600       266
    22.1800       290
    22.2000       278
    22.2200       294
    22.2400       312
    22.2600       306
    22.2800       332
    22.3000       334
    22.3200       358
    22.3400       384
    22.3600       374
    22.3800       426
    22.4000       424
    22.4200       428
    22.4400       494
    22.4600       530
    22.4800       546
    22.5000       622
    22.5200       720
    22.5400       738
    22.5600       862
    22.5800      1014
    22.6000      1064
    22.6200      1270
    22.6400      1408
    22.6600      1572
    22.6800      1826
    22.7000      2074
    22.7200      2280
    22.7400      2658
    22.7600      3028
    22.7800      3474
    22.8000      3886
    22.8200      4316
    22.8400      4674
    22.8600      4862
    22.8800      4754
    22.9000      4660
    22.9200      4092
    22.9400      3460
    22.9600      2942
    22.9800      2564
    23.0000      2052
    23.0200      1802
    23.0400      1472
    23.0600      1388
    23.0800      1120
    23.1000      1042
    23.1200       924
    23.1400       846
    23.1600       762
    23.1800       754
    23.2000       696
    23.2200       616
    23.2400       572
    23.2600       542
    23.2800       500
    23.3000       488
    23.3200       432
    23.3400       410
    23.3600       410
    23.3800       388
    23.4000       350
    23.4200       366
    23.4400       348
    23.4600       362
    23.4800       328
    23.5000       308
    23.5200       320
    23.5400       314
    23.5600       324
    23.5800       296
    23.6000       340
    23.6200       318
    23.6400       308
    23.6600       310
    23.6800       294
    23.7000       300
    23.7200       296
    23.7400       304
    23.7600       302
    23.7800       308
    23.8000       352
    23.8200       312
    23.8400       284
    23.8600       312
    23.8800       320
    23.9000       318
    23.9200       348
    23.9400       344
    23.9600       370
    23.9800       328
    24.0000       342
    24.0200       344
    24.0400       374
    24.0600       356
    24.0800       368
    24.1000       390
    24.1200       380
    24.1400       408
    24.1600       396
    24.1800       446
    24.2000       406
    24.2200       452
    24.2400       444
    24.2600       464
    24.2800       480
    24.3000       510
    24.3200       602
    24.3400       610
    24.3600       642
    24.3800       754
    24.4000       704
    24.4200       812
    24.4400       920
    24.4600       926
    24.4800       848
    24.5000       942
    24.5200       910
    24.5400       876
    24.5600       888
    24.5800       846
    24.6000       818
    24.6200       786
    24.6400       734
    24.6600       658
    24.6800       628
    24.7000       622
    24.7200       584
    24.7400       556
    24.7600       536
    24.7800       474
    24.8000       468
    24.8200       452
    24.8400       436
    24.8600       474
    24.8800       380
    24.9000       414
    24.9200       404
    24.9400       418
    24.9600       330
    24.9800       340
    25.0000       362
    25.0200       376
    25.0400       366
    25.0600       358
    25.0800       436
    25.1000       384
    25.1200       416
    25.1400       474
    25.1600       450
    25.1800       420
    25.2000       488
    25.2200       550
    25.2400       506
    25.2600       576
    25.2800       568
    25.3000       686
    25.3200       682
    25.3400       744
    25.3600       788
    25.3800       784
    25.4000       864
    25.4200       822
    25.4400       820
    25.4600       908
    25.4800       840
    25.5000       840
    25.5200       968
    25.5400      1026
    25.5600      1048
    25.5800      1116
    25.6000      1068
    25.6200      1092
    25.6400      1064
    25.6600       986
    25.6800       914
    25.7000       788
    25.7200       732
    25.7400       674
    25.7600       588
    25.7800       508
    25.8000       486
    25.8200       442
    25.8400       488
    25.8600       424
    25.8800       408
    25.9000       414
    25.9200       354
    25.9400       392
    25.9600       340
    25.9800       356
    26.0000       382
    26.0200       338
    26.0400       358
    26.0600       372
    26.0800       348
    26.1000       376
    26.1200       368
    26.1400       346
    26.1600       362
    26.1800       388
    26.2000       432
    26.2200       444
    26.2400       446
    26.2600       454
    26.2800       514
    26.3000       466
    26.3200       468
    26.3400       526
    26.3600       560
    26.3800       580
    26.4000       566
    26.4200       590
    26.4400       596
    26.4600       604
    26.4800       612
    26.5000       638
    26.5200       594
    26.5400       606
    26.5600       632
    26.5800       674
    26.6000       686
    26.6200       692
    26.6400       632
    26.6600       708
    26.6800       676
    26.7000       690
    26.7200       642
    26.7400       574
    26.7600       572
    26.7800       528
    26.8000       524
    26.8200       482
    26.8400       428
    26.8600       396
    26.8800       412
    26.9000       420
    26.9200       396
    26.9400       402
    26.9600       384
    26.9800       386
    27.0000       320
    27.0200       370
    27.0400       324
    27.0600       394
    27.0800       374
    27.1000       370
    27.1200       380
    27.1400       402
    27.1600       364
    27.1800       400
    27.2000       390
    27.2200       416
    27.2400       408
    27.2600       394
    27.2800       392
    27.3000       400
    27.3200       454
    27.3400       452
    27.3600       500
    27.3800       492
    27.4000       540
    27.4200       540
    27.4400       552
    27.4600       592
    27.4800       554
    27.5000       586
    27.5200       584
    27.5400       538
    27.5600       562
    27.5800       544
    27.6000       530
    27.6200       476
    27.6400       460
    27.6600       462
    27.6800       484
    27.7000       436
    27.7200       352
    27.7400       364
    27.7600       370
    27.7800       348
    27.8000       340
    27.8200       306
    27.8400       314
    27.8600       316
    27.8800       318
    27.9000       290
    27.9200       288
    27.9400       312
    27.9600       302
    27.9800       258
    28.0000       316
    28.0200       294
    28.0400       280
    28.0600       266
    28.0800       282
    28.1000       252
    28.1200       246
    28.1400       244
    28.1600       240
    28.1800       232
    28.2000       256
    28.2200       266
    28.2400       246
    28.2600       260
    28.2800       228
    28.3000       256
    28.3200       234
    28.3400       258
    28.3600       252
    28.3800       242
    28.4000       262
    28.4200       220
    28.4400       256
    28.4600       244
    28.4800       274
    28.5000       268
    28.5200       268
    28.5400       284
    28.5600       286
    28.5800       274
    28.6000       260
    28.6200       264
    28.6400       266
    28.6600       296
    28.6800       286
    28.7000       328
    28.7200       324
    28.7400       324
    28.7600       306
    28.7800       292
    28.8000       316
    28.8200       298
    28.8400       300
    28.8600       272
    28.8800       294
    28.9000       262
    28.9200       250
    28.9400       294
    28.9600       270
    28.9800       290
    29.0000       252
    29.0200       284
    29.0400       280
    29.0600       314
    29.0800       258
    29.1000       288
    29.1200       264
    29.1400       294
    29.1600       294
    29.1800       302
    29.2000       272
    29.2200       296
    29.2400       330
    29.2600       302
    29.2800       342
    29.3000       342
    29.3200       340
    29.3400       328
    29.3600       374
    29.3800       450
    29.4000       516
    29.4200       572
    29.4400       558
    29.4600       540
    29.4800       550
    29.5000       496
    29.5200       494
    29.5400       536
    29.5600       468
    29.5800       526
    29.6000       516
    29.6200       588
    29.6400       548
    29.6600       596
    29.6800       620
    29.7000       604
    29.7200       654
    29.7400       642
    29.7600       644
    29.7800       604
    29.8000       620
    29.8200       550
    29.8400       552
    29.8600       550
    29.8800       558
    29.9000       532
    29.9200       524
    29.9400       538
    29.9600       592
    29.9800       566
    30.0000       642
    30.0200       670
    30.0400       660
    30.0600       754
    30.0800       708
    30.1000       822
    30.1200       818
    30.1400       898
    30.1600       966
    30.1800      1000
    30.2000      1080
    30.2200      1118
    30.2400      1092
    30.2600      1080
    30.2800      1160
    30.3000      1108
    30.3200      1108
    30.3400      1136
    30.3600      1126
    30.3800      1122
    30.4000      1160
    30.4200      1132
    30.4400      1140
    30.4600      1196
    30.4800      1206
    30.5000      1290
    30.5200      1418
    30.5400      1460
    30.5600      1522
    30.5800      1704
    30.6000      1762
    30.6200      2038
    30.6400      2044
    30.6600      2226
    30.6800      2294
    30.7000      2340
    30.7200      2470
    30.7400      2402
    30.7600      2344
    30.7800      2256
    30.8000      1966
    30.8200      1770
    30.8400      1620
    30.8600      1444
    30.8800      1284
    30.9000      1144
    30.9200      1018
    30.9400       900
    30.9600       770
    30.9800       764
    31.0000       716
    31.0200       656
    31.0400       616
    31.0600       574
    31.0800       550
    31.1000       536
    31.1200       496
    31.1400       476
    31.1600       508
    31.1800       428
    31.2000       444
    31.2200       446
    31.2400       450
    31.2600       438
    31.2800       438
    31.3000       392
    31.3200       426
    31.3400       418
    31.3600       384
    31.3800       420
    31.4000       372
    31.4200       440
    31.4400       438
    31.4600       460
    31.4800       446
    31.5000       468
    31.5200       508
    31.5400       470
    31.5600       504
    31.5800       524
    31.6000       588
    31.6200       614
    31.6400       642
    31.6600       698
    31.6800       726
    31.7000       792
    31.7200       870
    31.7400       898
    31.7600       972
    31.7800      1106
    31.8000      1166
    31.8200      1246
    31.8400      1332
    31.8600      1570
    31.8800      1712
    31.9000      1852
    31.9200      2040
    31.9400      2206
    31.9600      2360
    31.9800      2558
    32.0000      2624
    32.0200      2718
    32.0400      2548
    32.0600      2530
    32.0800      2448
    32.1000      2308
    32.1200      2184
    32.1400      1992
    32.1600      1948
    32.1800      2018
    32.2000      1946
    32.2200      2024
    32.2400      2064
    32.2600      2182
    32.2800      2366
    32.3000      2498
    32.3200      2802
    32.3400      3006
    32.3600      3336
    32.3800      3690
    32.4000      4186
    32.4200      4734
    32.4400      5250
    32.4600      5632
    32.4800      6566
    32.5000      7032
    32.5200      7458
    32.5400      7828
    32.5600      7994
    32.5800      7828
    32.6000      7474
    32.6200      7224
    32.6400      6626
    32.6600      6000
    32.6800      5408
    32.7000      4618
    32.7200      4048
    32.7400      3706
    32.7600      3190
    32.7800      2820
    32.8000      2504
    32.8200      2278
    32.8400      2090
    32.8600      1984
    32.8800      1880
    32.9000      1768
    32.9200      1650
    32.9400      1712
    32.9600      1680
    32.9800      1616
    33.0000      1698
    33.0200      1732
    33.0400      1792
    33.0600      1828
    33.0800      1754
    33.1000      1750
    33.1200      1774
    33.1400      1572
    33.1600      1516
    33.1800      1394
    33.2000      1302
    33.2200      1184
    33.2400      1006
    33.2600       902
    33.2800       796
    33.3000       696
    33.3200       662
    33.3400       644
    33.3600       560
    33.3800       544
    33.4000       512
    33.4200       466
    33.4400       440
    33.4600       456
    33.4800       432
    33.5000       398
    33.5200       388
    33.5400       372
    33.5600       326
    33.5800       324
    33.6000       334
    33.6200       338
    33.6400       294
    33.6600       308
    33.6800       290
    33.7000       324
    33.7200       250
    33.7400       310
    33.7600       270
    33.7800       286
    33.8000       262
    33.8200       282
    33.8400       288
    33.8600       282
    33.8800       278
    33.9000       228
    33.9200       282
    33.9400       272
    33.9600       260
    33.9800       302
    34.0000       282
    34.0200       302
    34.0400       266
    34.0600       310
    34.0800       234
    34.1000       270
    34.1200       252
    34.1400       294
    34.1600       276
    34.1800       288
    34.2000       276
    34.2200       260
    34.2400       284
    34.2600       284
    34.2800       308
    34.3000       322
    34.3200       304
    34.3400       310
    34.3600       358
    34.3800       336
    34.4000       362
    34.4200       354
    34.4400       402
    34.4600       372
    34.4800       402
    34.5000       412
    34.5200       384
    34.5400       380
    34.5600       362
    34.5800       390
    34.6000       356
    34.6200       354
    34.6400       346
    34.6600       324
    34.6800       356
    34.7000       328
    34.7200       334
    34.7400       298
    34.7600       342
    34.7800       318
    34.8000       316
    34.8200       288
    34.8400       302
    34.8600       330
    34.8800       292
    34.9000       266
    34.9200       292
    34.9400       272
    34.9600       242
    34.9800       284
    35.0000       268
    35.0200       282
    35.0400       274
    35.0600       310
    35.0800       258
    35.1000       284
    35.1200       294
    35.1400       260
    35.1600       254
    35.1800       286
    35.2000       286
    35.2200       280
    35.2400       236
    35.2600       256
    35.2800       264
    35.3000       254
    35.3200       272
    35.3400       290
    35.3600       298
    35.3800       302
    35.4000       286
    35.4200       276
    35.4400       290
    35.4600       304
    35.4800       294
    35.5000       302
    35.5200       324
    35.5400       296
    35.5600       316
    35.5800       286
    35.6000       352
    35.6200       314
    35.6400       338
    35.6600       330
    35.6800       346
    35.7000       370
    35.7200       370
    35.7400       342
    35.7600       344
    35.7800       342
    35.8000       382
    35.8200       428
    35.8400       446
    35.8600       454
    35.8800       452
    35.9000       464
    35.9200       488
    35.9400       494
    35.9600       524
    35.9800       534
    36.0000       566
    36.0200       662
    36.0400       642
    36.0600       676
    36.0800       758
    36.1000       800
    36.1200       806
    36.1400       874
    36.1600       834
    36.1800       872
    36.2000       810
    36.2200       776
    36.2400       790
    36.2600       718
    36.2800       700
    36.3000       666
    36.3200       626
    36.3400       610
    36.3600       534
    36.3800       602
    36.4000       536
    36.4200       546
    36.4400       554
    36.4600       536
    36.4800       548
    36.5000       520
    36.5200       544
    36.5400       640
    36.5600       628
    36.5800       632
    36.6000       690
    36.6200       758
    36.6400       758
    36.6600       810
    36.6800       842
    36.7000       972
    36.7200      1066
    36.7400      1166
    36.7600      1272
    36.7800      1406
    36.8000      1526
    36.8200      1710
    36.8400      1776
    36.8600      1916
    36.8800      1948
    36.9000      1988
    36.9200      1966
    36.9400      1786
    36.9600      1778
    36.9800      1718
    37.0000      1590
    37.0200      1498
    37.0400      1430
    37.0600      1280
    37.0800      1160
    37.1000      1064
    37.1200       938
    37.1400       986
    37.1600       878
    37.1800       888
    37.2000       792
    37.2200       800
    37.2400       756
    37.2600       746
    37.2800       684
    37.3000       656
    37.3200       682
    37.3400       652
    37.3600       644
    37.3800       614
    37.4000       628
    37.4200       572
    37.4400       620
    37.4600       602
    37.4800       620
    37.5000       632
    37.5200       552
    37.5400       578
    37.5600       626
    37.5800       580
    37.6000       564
    37.6200       618
    37.6400       690
    37.6600       684
    37.6800       694
    37.7000       722
    37.7200       752
    37.7400       804
    37.7600       840
    37.7800       886
    37.8000       914
    37.8200      1032
    37.8400      1144
    37.8600      1170
    37.8800      1318
    37.9000      1456
    37.9200      1534
    37.9400      1742
    37.9600      1922
    37.9800      2018
    38.0000      2070
    38.0200      2216
    38.0400      2222
    38.0600      2266
    38.0800      2182
    38.1000      2086
    38.1200      2138
    38.1400      2004
    38.1600      2028
    38.1800      2024
    38.2000      2012
    38.2200      2022
    38.2400      2016
    38.2600      2132
    38.2800      2290
    38.3000      2324
    38.3200      2488
    38.3400      2756
    38.3600      2872
    38.3800      3158
    38.4000      3354
    38.4200      3560
    38.4400      3924
    38.4600      4330
    38.4800      4328
    38.5000      4398
    38.5200      4840
    38.5400      4730
    38.5600      4614
    38.5800      4790
    38.6000      4726
    38.6200      4676
    38.6400      4594
    38.6600      4640
    38.6800      4672
    38.7000      4620
    38.7200      4486
    38.7400      4276
    38.7600      4224
    38.7800      4022
    38.8000      3718
    38.8200      3472
    38.8400      3230
    38.8600      2942
    38.8800      2680
    38.9000      2488
    38.9200      2188
    38.9400      2070
    38.9600      1864
    38.9800      1726
    39.0000      1540
    39.0200      1512
    39.0400      1426
    39.0600      1342
    39.0800      1182
    39.1000      1138
    39.1200      1206
    39.1400      1108
    39.1600      1056
    39.1800      1084
    39.2000      1036
    39.2200      1036
    39.2400      1032
    39.2600      1046
    39.2800       982
    39.3000      1034
    39.3200      1050
    39.3400      1066
    39.3600      1012
    39.3800      1088
    39.4000      1082
    39.4200      1172
    39.4400      1212
    39.4600      1238
    39.4800      1326
    39.5000      1362
    39.5200      1512
    39.5400      1542
    39.5600      1638
    39.5800      1782
    39.6000      1832
    39.6200      2046
    39.6400      2118
    39.6600      2230
    39.6800      2434
    39.7000      2440
    39.7200      2410
    39.7400      2314
    39.7600      2284
    39.7800      2096
    39.8000      1982
    39.8200      1830
    39.8400      1746
    39.8600      1540
    39.8800      1440
    39.9000      1274
    39.9200      1208
    39.9400      1088
    39.9600      1004
    39.9800       962
    40.0000       930
    40.0200       874
    40.0400       880
    40.0600       828
    40.0800       814
    40.1000       802
    40.1200       810
    40.1400       838
    40.1600       784
    40.1800       824
    40.2000       836
    40.2200       826
    40.2400       858
    40.2600       890
    40.2800       890
    40.3000       870
    40.3200       978
    40.3400       992
    40.3600      1026
    40.3800      1010
    40.4000      1058
    40.4200      1076
    40.4400      1202
    40.4600      1228
    40.4800      1380
    40.5000      1406
    40.5200      1472
    40.5400      1456
    40.5600      1576
    40.5800      1550
    40.6000      1558
    40.6200      1638
    40.6400      1580
    40.6600      1506
    40.6800      1446
    40.7000      1422
    40.7200      1298
    40.7400      1238
    40.7600      1172
    40.7800      1106
    40.8000      1020
    40.8200       978
    40.8400       932
    40.8600       882
    40.8800       826
    40.9000       786
    40.9200       730
    40.9400       748
    40.9600       730
    40.9800       718
    41.0000       718
    41.0200       752
    41.0400       744
    41.0600       724
    41.0800       760
    41.1000       726
    41.1200       782
    41.1400       762
    41.1600       862
    41.1800       826
    41.2000       890
    41.2200       874
    41.2400       952
    41.2600       926
    41.2800       980
    41.3000      1034
    41.3200      1060
    41.3400      1042
    41.3600      1090
    41.3800      1062
    41.4000      1080
    41.4200      1060
    41.4400      1072
    41.4600      1044
    41.4800      1072
    41.5000      1116
    41.5200      1168
    41.5400      1204
    41.5600      1140
    41.5800      1208
    41.6000      1242
    41.6200      1238
    41.6400      1276
    41.6600      1266
    41.6800      1314
    41.7000      1266
    41.7200      1286
    41.7400      1398
    41.7600      1394
    41.7800      1462
    41.8000      1522
    41.8200      1608
    41.8400      1696
    41.8600      1794
    41.8800      1858
    41.9000      1832
    41.9200      1812
    41.9400      1748
    41.9600      1772
    41.9800      1754
    42.0000      1618
    42.0200      1514
    42.0400      1436
    42.0600      1350
    42.0800      1230
    42.1000      1140
    42.1200      1038
    42.1400       996
    42.1600       918
    42.1800       876
    42.2000       858
    42.2200       808
    42.2400       778
    42.2600       734
    42.2800       704
    42.3000       640
    42.3200       620
    42.3400       612
    42.3600       632
    42.3800       560
    42.4000       610
    42.4200       558
    42.4400       558
    42.4600       570
    42.4800       478
    42.5000       514
    42.5200       556
    42.5400       560
    42.5600       512
    42.5800       500
    42.6000       520
    42.6200       514
    42.6400       514
    42.6600       518
    42.6800       532
    42.7000       528
    42.7200       530
    42.7400       556
    42.7600       522
    42.7800       568
    42.8000       644
    42.8200       620
    42.8400       594
    42.8600       654
    42.8800       680
    42.9000       688
    42.9200       748
    42.9400       812
    42.9600       864
    42.9800       914
    43.0000       942
    43.0200      1108
    43.0400      1076
    43.0600      1134
    43.0800      1304
    43.1000      1336
    43.1200      1484
    43.1400      1566
    43.1600      1640
    43.1800      1744
    43.2000      1842
    43.2200      1762
    43.2400      1776
    43.2600      1674
    43.2800      1654
    43.3000      1552
    43.3200      1414
    43.3400      1306
    43.3600      1316
    43.3800      1212
    43.4000      1098
    43.4200       982
    43.4400       980
    43.4600       898
    43.4800       828
    43.5000       816
    43.5200       764
    43.5400       698
    43.5600       726
    43.5800       722
    43.6000       678
    43.6200       682
    43.6400       694
    43.6600       668
    43.6800       646
    43.7000       670
    43.7200       732
    43.7400       750
    43.7600       712
    43.7800       766
    43.8000       726
    43.8200       800
    43.8400       780
    43.8600       746
    43.8800       778
    43.9000       742
    43.9200       748
    43.9400       716
    43.9600       712
    43.9800       694
    44.0000       690
    44.0200       578
    44.0400       616
    44.0600       596
    44.0800       562
    44.1000       586
    44.1200       544
    44.1400       572
    44.1600       538
    44.1800       538
    44.2000       596
    44.2200       550
    44.2400       528
    44.2600       596
    44.2800       532
    44.3000       522
    44.3200       574
    44.3400       550
    44.3600       590
    44.3800       548
    44.4000       556
    44.4200       532
    44.4400       554
    44.4600       494
    44.4800       580
    44.5000       536
    44.5200       510
    44.5400       434
    44.5600       530
    44.5800       526
    44.6000       508
    44.6200       536
    44.6400       522
    44.6600       506
    44.6800       556
    44.7000       494
    44.7200       532
    44.7400       590
    44.7600       566
    44.7800       584
    44.8000       546
    44.8200       632
    44.8400       674
    44.8600       656
    44.8800       678
    44.9000       694
    44.9200       718
    44.9400       824
    44.9600       788
    44.9800       806
    45.0000       838
    45.0200       876
    45.0400       954
    45.0600       954
    45.0800      1014
    45.1000      1008
    45.1200       992
    45.1400      1078
    45.1600      1040
    45.1800      1090
    45.2000      1082
    45.2200      1140
    45.2400      1114
    45.2600      1110
    45.2800      1086
    45.3000      1122
    45.3200      1120
    45.3400      1060
    45.3600      1054
    45.3800      1022
    45.4000       970
    45.4200       960
    45.4400       972
    45.4600       832
    45.4800       884
    45.5000       872
    45.5200       874
    45.5400       814
    45.5600       840
    45.5800       798
    45.6000       784
    45.6200       740
    45.6400       740
    45.6600       720
    45.6800       636
    45.7000       688
    45.7200       648
    45.7400       688
    45.7600       676
    45.7800       644
    45.8000       706
    45.8200       660
    45.8400       676
    45.8600       708
    45.8800       670
    45.9000       676
    45.9200       678
    45.9400       696
    45.9600       728
    45.9800       716
    46.0000       710
    46.0200       764
    46.0400       776
    46.0600       798
    46.0800       846
    46.1000       896
    46.1200       834
    46.1400       880
    46.1600       924
    46.1800      1000
    46.2000       970
    46.2200      1164
    46.2400      1126
    46.2600      1206
    46.2800      1316
    46.3000      1408
    46.3200      1480
    46.3400      1668
    46.3600      1746
    46.3800      1908
    46.4000      2082
    46.4200      2254
    46.4400      2446
    46.4600      2806
    46.4800      3070
    46.5000      3432
    46.5200      3696
    46.5400      4094
    46.5600      4454
    46.5800      5072
    46.6000      5604
    46.6200      6090
    46.6400      6554
    46.6600      7058
    46.6800      7242
    46.7000      7562
    46.7200      7654
    46.7400      7300
    46.7600      7242
    46.7800      7082
    46.8000      6822
    46.8200      6308
    46.8400      5866
    46.8600      5366
    46.8800      4908
    46.9000      4546
    46.9200      4102
    46.9400      3620
    46.9600      3306
    46.9800      2922
    47.0000      2692
    47.0200      2412
    47.0400      2234
    47.0600      1958
    47.0800      1852
    47.1000      1692
    47.1200      1580
    47.1400      1482
    47.1600      1326
    47.1800      1308
    47.2000      1206
    47.2200      1112
    47.2400      1100
    47.2600      1010
    47.2800      1022
    47.3000       982
    47.3200       906
    47.3400       858
    47.3600       864
    47.3800       808
    47.4000       854
    47.4200       782
    47.4400       726
    47.4600       754
    47.4800       764
    47.5000       724
    47.5200       746
    47.5400       688
    47.5600       710
    47.5800       746
    47.6000       738
    47.6200       738
    47.6400       740
    47.6600       744
    47.6800       790
    47.7000       776
    47.7200       794
    47.7400       828
    47.7600       854
    47.7800       922
    47.8000       926
    47.8200       976
    47.8400      1014
    47.8600       964
    47.8800       976
    47.9000       944
    47.9200       980
    47.9400       904
    47.9600       924
    47.9800       948
    48.0000       954
    48.0200       942
    48.0400       934
    48.0600       946
    48.0800       868
    48.1000       928
    48.1200       978
    48.1400       984
    48.1600      1010
    48.1800       952
    48.2000      1006
    48.2200      1010
    48.2400       984
    48.2600      1000
    48.2800       940
    48.3000       912
    48.3200       934
    48.3400       886
    48.3600       908
    48.3800       870
    48.4000       806
    48.4200       834
    48.4400       804
    48.4600       824
    48.4800       796
    48.5000       748
    48.5200       786
    48.5400       806
    48.5600       738
    48.5800       752
    48.6000       714
    48.6200       732
    48.6400       712
    48.6600       716
    48.6800       714
    48.7000       644
    48.7200       670
    48.7400       610
    48.7600       628
    48.7800       606
    48.8000       622
    48.8200       600
    48.8400       590
    48.8600       506
    48.8800       560
    48.9000       570
    48.9200       510
    48.9400       510
    48.9600       472
    48.9800       528
    49.0000       464
    49.0200       480
    49.0400       444
    49.0600       476
    49.0800       454
    49.1000       444
    49.1200       428
    49.1400       436
    49.1600       370
    49.1800       414
    49.2000       406
    49.2200       434
    49.2400       398
    49.2600       410
    49.2800       434
    49.3000       358
    49.3200       406
    49.3400       364
    49.3600       366
    49.3800       404
    49.4000       386
    49.4200       396
    49.4400       358
    49.4600       416
    49.4800       420
    49.5000       396
    49.5200       376
    49.5400       416
    49.5600       432
    49.5800       392
    49.6000       378
    49.6200       458
    49.6400       388
    49.6600       424
    49.6800       414
    49.7000       418
    49.7200       420
    49.7400       446
    49.7600       444
    49.7800       472
    49.8000       448
    49.8200       384
    49.8400       468
    49.8600       466
    49.8800       476
    49.9000       562
    49.9200       544
    49.9400       496
    49.9600       508
    49.9800       518
    50.0000       570
    50.0200       598
    50.0400       566
    50.0600       704
    50.0800       646
    50.1000       714
    50.1200       726
    50.1400       744
    50.1600       760
    50.1800       754
    50.2000       766
    50.2200       860
    50.2400       862
    50.2600       842
    50.2800       852
    50.3000       884
    50.3200       894
    50.3400       874
    50.3600       840
    50.3800       902
    50.4000       850
    50.4200       890
    50.4400       920
    50.4600       906
    50.4800       892
    50.5000       872
    50.5200       904
    50.5400       886
    50.5600       878
    50.5800       914
    50.6000       914
    50.6200       852
    50.6400       934
    50.6600      1004
    50.6800       944
    50.7000       894
    50.7200      1072
    50.7400      1062
    50.7600      1136
    50.7800      1108
    50.8000      1126
    50.8200      1200
    50.8400      1166
    50.8600      1284
    50.8800      1194
    50.9000      1262
    50.9200      1180
    50.9400      1276
    50.9600      1286
    50.9800      1244
    51.0000      1214
    51.0200      1084
    51.0400      1082
    51.0600      1052
    51.0800       978
    51.1000       930
    51.1200       978
    51.1400       946
    51.1600       938
    51.1800       898
    51.2000       852
    51.2200       868
    51.2400       880
    51.2600       862
    51.2800       898
    51.3000       848
    51.3200       886
    51.3400       816
    51.3600       848
    51.3800       912
    51.4000       934
    51.4200       906
    51.4400       876
    51.4600       894
    51.4800       916
    51.5000       860
    51.5200       906
    51.5400       880
    51.5600       882
    51.5800       892
    51.6000       896
    51.6200       906
    51.6400       860
    51.6600       882
    51.6800       956
    51.7000       954
    51.7200      1008
    51.7400      1030
    51.7600      1062
    51.7800      1112
    51.8000      1128
    51.8200      1146
    51.8400      1260
    51.8600      1252
    51.8800      1258
    51.9000      1332
    51.9200      1346
    51.9400      1290
    51.9600      1358
    51.9800      1352
    52.0000      1402
    52.0200      1432
    52.0400      1314
    52.0600      1334
    52.0800      1388
    52.1000      1404
    52.1200      1336
    52.1400      1280
    52.1600      1312
    52.1800      1280
    52.2000      1204
    52.2200      1166
    52.2400      1136
    52.2600      1162
    52.2800      1078
    52.3000      1088
    52.3200      1044
    52.3400      1052
    52.3600      1056
    52.3800      1054
    52.4000      1080
    52.4200      1112
    52.4400      1178
    52.4600      1206
    52.4800      1234
    52.5000      1284
    52.5200      1312
    52.5400      1410
    52.5600      1452
    52.5800      1490
    52.6000      1482
    52.6200      1480
    52.6400      1504
    52.6600      1546
    52.6800      1592
    52.7000      1492
    52.7200      1432
    52.7400      1424
    52.7600      1418
    52.7800      1340
    52.8000      1350
    52.8200      1270
    52.8400      1224
    52.8600      1182
    52.8800      1126
    52.9000      1124
    52.9200      1040
    52.9400      1146
    52.9600      1056
    52.9800      1068
    53.0000      1062
    53.0200      1080
    53.0400      1144
    53.0600      1172
    53.0800      1202
    53.1000      1228
    53.1200      1290
    53.1400      1440
    53.1600      1448
    53.1800      1538
    53.2000      1568
    53.2200      1618
    53.2400      1686
    53.2600      1628
    53.2800      1720
    53.3000      1692
    53.3200      1626
    53.3400      1658
    53.3600      1506
    53.3800      1460
    53.4000      1438
    53.4200      1364
    53.4400      1248
    53.4600      1210
    53.4800      1176
    53.5000      1056
    53.5200       986
    53.5400       910
    53.5600       866
    53.5800       814
    53.6000       780
    53.6200       744
    53.6400       686
    53.6600       690
    53.6800       660
    53.7000       662
    53.7200       610
    53.7400       562
    53.7600       580
    53.7800       520
    53.8000       536
    53.8200       558
    53.8400       572
    53.8600       578
    53.8800       570
    53.9000       508
    53.9200       516
    53.9400       510
    53.9600       446
    53.9800       480
    54.0000       518
    54.0200       470
    54.0400       498
    54.0600       466
    54.0800       486
    54.1000       512
    54.1200       442
    54.1400       498
    54.1600       520
    54.1800       516
    54.2000       504
    54.2200       504
    54.2400       538
    54.2600       510
    54.2800       520
    54.3000       544
    54.3200       538
    54.3400       614
    54.3600       598
    54.3800       552
    54.4000       586
    54.4200       642
    54.4400       632
    54.4600       654
    54.4800       692
    54.5000       752
    54.5200       750
    54.5400       734
    54.5600       766
    54.5800       828
    54.6000       836
    54.6200       846
    54.6400       864
    54.6600       878
    54.6800       898
    54.7000       864
    54.7200       864
    54.7400       932
    54.7600       980
    54.7800       998
    54.8000       960
    54.8200       906
    54.8400       864
    54.8600       916
    54.8800       800
    54.9000       806
    54.9200       816
    54.9400       766
    54.9600       778
    54.9800       762
    55.0000       716
    55.0200       696
    55.0400       680
    55.0600       644
    55.0800       712
    55.1000       656
    55.1200       606
    55.1400       622
    55.1600       686
    55.1800       616
    55.2000       608
    55.2200       674
    55.2400       692
    55.2600       672
    55.2800       590
    55.3000       590
    55.3200       592
    55.3400       608
    55.3600       552
    55.3800       558
    55.4000       598
    55.4200       562
    55.4400       558
    55.4600       552
    55.4800       574
    55.5000       510
    55.5200       508
    55.5400       478
    55.5600       484
    55.5800       496
    55.6000       466
    55.6200       498
    55.6400       414
    55.6600       464
    55.6800       438
    55.7000       418
    55.7200       408
    55.7400       416
    55.7600       408
    55.7800       390
    55.8000       400
    55.8200       412
    55.8400       366
    55.8600       372
    55.8800       380
    55.9000       378
    55.9200       388
    55.9400       398
    55.9600       378
    55.9800       382
    56.0000       416
    56.0200       342
    56.0400       368
    56.0600       382
    56.0800       382
    56.1000       374
    56.1200       340
    56.1400       398
    56.1600       354
    56.1800       366
    56.2000       388
    56.2200       362
    56.2400       362
    56.2600       386
    56.2800       364
    56.3000       366
    56.3200       368
    56.3400       358
    56.3600       380
    56.3800       322
    56.4000       392
    56.4200       408
    56.4400       426
    56.4600       350
    56.4800       394
    56.5000       362
    56.5200       412
    56.5400       396
    56.5600       408
    56.5800       406
    56.6000       450
    56.6200       440
    56.6400       426
    56.6600       434
    56.6800       458
    56.7000       424
    56.7200       496
    56.7400       452
    56.7600       472
    56.7800       526
    56.8000       530
    56.8200       600
    56.8400       510
    56.8600       614
    56.8800       608
    56.9000       598
    56.9200       628
    56.9400       624
    56.9600       668
    56.9800       660
    57.0000       724
    57.0200       768
    57.0400       750
    57.0600       784
    57.0800       830
    57.1000       848
    57.1200       886
    57.1400       912
    57.1600       960
    57.1800      1002
    57.2000      1152
    57.2200      1126
    57.2400      1138
    57.2600      1300
    57.2800      1350
    57.3000      1444
    57.3200      1616
    57.3400      1570
    57.3600      1624
    57.3800      1678
    57.4000      1710
    57.4200      1758
    57.4400      1678
    57.4600      1716
    57.4800      1664
    57.5000      1726
    57.5200      1660
    57.5400      1756
    57.5600      1692
    57.5800      1668
    57.6000      1710
    57.6200      1710
    57.6400      1706
    57.6600      1796
    57.6800      1720
    57.7000      1786
    57.7200      1838
    57.7400      1736
    57.7600      1790
    57.7800      1796
    57.8000      1780
    57.8200      1716
    57.8400      1696
    57.8600      1614
    57.8800      1494
    57.9000      1548
    57.9200      1534
    57.9400      1410
    57.9600      1326
    57.9800      1384
    58.0000      1224
    58.0200      1212
    58.0400      1220
    58.0600      1212
    58.0800      1142
    58.1000      1120
    58.1200      1158
    58.1400      1130
    58.1600      1116
    58.1800      1194
    58.2000      1174
    58.2200      1208
    58.2400      1300
    58.2600      1388
    58.2800      1282
    58.3000      1344
    58.3200      1472
    58.3400      1580
    58.3600      1616
    58.3800      1710
    58.4000      1814
    58.4200      1840
    58.4400      1952
    58.4600      2158
    58.4800      2210
    58.5000      2228
    58.5200      2334
    58.5400      2390
    58.5600      2462
    58.5800      2498
    58.6000      2582
    58.6200      2838
    58.6400      2862
    58.6600      2976
    58.6800      2998
    58.7000      3018
    58.7200      3084
    58.7400      3090
    58.7600      3024
    58.7800      3024
    58.8000      2896
    58.8200      2920
    58.8400      2794
    58.8600      2738
    58.8800      2648
    58.9000      2410
    58.9200      2228
    58.9400      2240
    58.9600      2108
    58.9800      1996
    59.0000      1842
    59.0200      1776
    59.0400      1652
    59.0600      1564
    59.0800      1480
    59.1000      1532
    59.1200      1292
    59.1400      1212
    59.1600      1222
    59.1800      1120
    59.2000      1084
    59.2200      1136
    59.2400      1104
    59.2600      1034
    59.2800       974
    59.3000      1046
    59.3200       970
    59.3400       964
    59.3600       940
    59.3800       972
    59.4000       988
    59.4200       992
    59.4400       934
    59.4600       968
    59.4800       928
    59.5000       876
    59.5200       900
    59.5400       932
    59.5600       906
    59.5800       852
    59.6000       796
    59.6200       802
    59.6400       788
    59.6600       808
    59.6800       780
    59.7000       744
    59.7200       714
    59.7400       722
    59.7600       716
    59.7800       686
    59.8000       672
    59.8200       702
    59.8400       640
    59.8600       660
    59.8800       606
    59.9000       652
    59.9200       558
    59.9400       600
    59.9600       512
    59.9800       582
    60.0000       518
    60.0200       506
    60.0400       564
    60.0600       548
    60.0800       472
    60.1000       512
    60.1200       498
    60.1400       502
    60.1600       496
    60.1800       480
    60.2000       450
    60.2200       498
    60.2400       506
    60.2600       492
    60.2800       486
    60.3000       476
    60.3200       436
    60.3400       408
    60.3600       432
    60.3800       426
    60.4000       444
    60.4200       394
    60.4400       434
    60.4600       442
    60.4800       422
    60.5000       416
    60.5200       452
    60.5400       482
    60.5600       424
    60.5800       428
    60.6000       404
    60.6200       434
    60.6400       438
    60.6600       464
    60.6800       434
    60.7000       424
    60.7200       430
    60.7400       430
    60.7600       426
    60.7800       460
    60.8000       426
    60.8200       498
    60.8400       468
    60.8600       482
    60.8800       522
    60.9000       504
    60.9200       508
    60.9400       494
    60.9600       512
    60.9800       576
    61.0000       562
    61.0200       574
    61.0400       624
    61.0600       628
    61.0800       636
    61.1000       604
    61.1200       612
    61.1400       628
    61.1600       654
    61.1800       664
    61.2000       674
    61.2200       658
    61.2400       668
    61.2600       712
    61.2800       662
    61.3000       610
    61.3200       728
    61.3400       706
    61.3600       680
    61.3800       692
    61.4000       720
    61.4200       752
    61.4400       714
    61.4600       792
    61.4800       764
    61.5000       800
    61.5200       798
    61.5400       784
    61.5600       858
    61.5800       824
    61.6000       848
    61.6200       874
    61.6400       934
    61.6600       800
    61.6800       856
    61.7000       900
    61.7200       858
    61.7400       850
    61.7600       854
    61.7800       848
    61.8000       810
    61.8200       838
    61.8400       824
    61.8600       772
    61.8800       788
    61.9000       772
    61.9200       778
    61.9400       744
    61.9600       788
    61.9800       770
    62.0000       712
    62.0200       746
    62.0400       758
    62.0600       718
    62.0800       696
    62.1000       708
    62.1200       690
    62.1400       648
    62.1600       646
    62.1800       722
    62.2000       690
    62.2200       620
    62.2400       604
    62.2600       608
    62.2800       634
    62.3000       662
    62.3200       622
    62.3400       600
    62.3600       592
    62.3800       568
    62.4000       524
    62.4200       548
    62.4400       524
    62.4600       580
    62.4800       462
    62.5000       486
    62.5200       478
    62.5400       494
    62.5600       430
    62.5800       462
    62.6000       446
    62.6200       472
    62.6400       420
    62.6600       380
    62.6800       386
    62.7000       400
    62.7200       420
    62.7400       380
    62.7600       402
    62.7800       382
    62.8000       376
    62.8200       344
    62.8400       360
    62.8600       368
    62.8800       370
    62.9000       356
    62.9200       364
    62.9400       342
    62.9600       352
    62.9800       336
    63.0000       336
    63.0200       286
    63.0400       312
    63.0600       312
    63.0800       342
    63.1000       320
    63.1200       296
    63.1400       340
    63.1600       266
    63.1800       322
    63.2000       304
    63.2200       286
    63.2400       314
    63.2600       298
    63.2800       308
    63.3000       288
    63.3200       294
    63.3400       330
    63.3600       302
    63.3800       304
    63.4000       298
    63.4200       338
    63.4400       284
    63.4600       342
    63.4800       312
    63.5000       360
    63.5200       340
    63.5400       360
    63.5600       362
    63.5800       390
    63.6000       354
    63.6200       356
    63.6400       418
    63.6600       414
    63.6800       422
    63.7000       404
    63.7200       476
    63.7400       436
    63.7600       456
    63.7800       488
    63.8000       474
    63.8200       528
    63.8400       534
    63.8600       534
    63.8800       574
    63.9000       584
    63.9200       558
    63.9400       572
    63.9600       538
    63.9800       578
    64.0000       512
    64.0200       528
    64.0400       514
    64.0600       518
    64.0800       488
    64.1000       514
    64.1200       462
    64.1400       448
    64.1600       442
    64.1800       412
    64.2000       392
    64.2200       358
    64.2400       376
    64.2600       374
    64.2800       370
    64.3000       368
    64.3200       358
    64.3400       358
    64.3600       322
    64.3800       338
    64.4000       314
    64.4200       318
    64.4400       296
    64.4600       298
    64.4800       320
    64.5000       304
    64.5200       334
    64.5400       280
    64.5600       290
    64.5800       314
    64.6000       256
    64.6200       290
    64.6400       278
    64.6600       292
    64.6800       282
    64.7000       260
    64.7200       272
    64.7400       262
    64.7600       266
    64.7800       292
    64.8000       294
    64.8200       304
    64.8400       278
    64.8600       264
    64.8800       308
    64.9000       310
    64.9200       266
    64.9400       304
    64.9600       318
    64.9800       310
    65.0000       332
    65.0200       300
    65.0400       346
    65.0600       312
    65.0800       342
    65.1000       368
    65.1200       376
    65.1400       340
    65.1600       350
    65.1800       390
    65.2000       404
    65.2200       394
    65.2400       470
    65.2600       406
    65.2800       430
    65.3000       442
    65.3200       416
    65.3400       454
    65.3600       452
    65.3800       458
    65.4000       412
    65.4200       444
    65.4400       410
    65.4600       440
    65.4800       444
    65.5000       390
    65.5200       388
    65.5400       410
    65.5600       378
    65.5800       352
    65.6000       344
    65.6200       356
    65.6400       338
    65.6600       366
    65.6800       318
    65.7000       338
    65.7200       270
    65.7400       334
    65.7600       300
    65.7800       346
    65.8000       306
    65.8200       314
    65.8400       322
    65.8600       322
    65.8800       296
    65.9000       272
    65.9200       318
    65.9400       290
    65.9600       280
    65.9800       296
    66.0000       312
    66.0200       306
    66.0400       262
    66.0600       282
    66.0800       302
    66.1000       244
    66.1200       274
    66.1400       268
    66.1600       292
    66.1800       262
    66.2000       276
    66.2200       292
    66.2400       278
    66.2600       278
    66.2800       294
    66.3000       306
    66.3200       298
    66.3400       284
    66.3600       356
    66.3800       322
    66.4000       292
    66.4200       358
    66.4400       322
    66.4600       308
    66.4800       330
    66.5000       326
    66.5200       304
    66.5400       352
    66.5600       350
    66.5800       374
    66.6000       384
    66.6200       398
    66.6400       370
    66.6600       408
    66.6800       458
    66.7000       462
    66.7200       464
    66.7400       452
    66.7600       512
    66.7800       506
    66.8000       510
    66.8200       552
    66.8400       566
    66.8600       572
    66.8800       570
    66.9000       614
    66.9200       630
    66.9400       602
    66.9600       608
    66.9800       590
    67.0000       646
    67.0200       584
    67.0400       552
    67.0600       570
    67.0800       586
    67.1000       544
    67.1200       578
    67.1400       554
    67.1600       486
    67.1800       498
    67.2000       498
    67.2200       494
    67.2400       480
    67.2600       436
    67.2800       458
    67.3000       426
    67.3200       428
    67.3400       438
    67.3600       396
    67.3800       420
    67.4000       450
    67.4200       414
    67.4400       368
    67.4600       384
    67.4800       378
    67.5000       388
    67.5200       422
    67.5400       396
    67.5600       376
    67.5800       416
    67.6000       414
    67.6200       454
    67.6400       434
    67.6600       416
    67.6800       438
    67.7000       438
    67.7200       504
    67.7400       494
    67.7600       488
    67.7800       504
    67.8000       524
    67.8200       544
    67.8400       516
    67.8600       602
    67.8800       614
    67.9000       630
    67.9200       672
    67.9400       718
    67.9600       710
    67.9800       820
    68.0000       838
    68.0200       870
    68.0400       892
    68.0600       950
    68.0800       996
    68.1000      1036
    68.1200      1078
    68.1400      1102
    68.1600      1132
    68.1800      1158
    68.2000      1166
    68.2200      1068
    68.2400      1142
    68.2600      1174
    68.2800      1036
    68.3000      1106
    68.3200      1066
    68.3400      1018
    68.3600      1006
    68.3800       938
    68.4000       936
    68.4200       882
    68.4400       836
    68.4600       816
    68.4800       790
    68.5000       780
    68.5200       708
    68.5400       728
    68.5600       704
    68.5800       608
    68.6000       652
    68.6200       536
    68.6400       586
    68.6600       556
    68.6800       540
    68.7000       492
    68.7200       516
    68.7400       500
    68.7600       448
    68.7800       444
    68.8000       426
    68.8200       462
    68.8400       424
    68.8600       428
    68.8800       422
    68.9000       444
    68.9200       420
    68.9400       408
    68.9600       398
    68.9800       416
    69.0000       440
    69.0200       390
    69.0400       434
    69.0600       416
    69.0800       392
    69.1000       430
    69.1200       454
    69.1400       440
    69.1600       458
    69.1800       470
    69.2000       510
    69.2200       472
    69.2400       480
    69.2600       498
    69.2800       516
    69.3000       492
    69.3200       564
    69.3400       560
    69.3600       520
    69.3800       552
    69.4000       552
    69.4200       532
    69.4400       544
    69.4600       580
    69.4800       480
    69.5000       502
    69.5200       498
    69.5400       488
    69.5600       546
    69.5800       576
    69.6000       502
    69.6200       448
    69.6400       448
    69.6600       450
    69.6800       416
    69.7000       424
    69.7200       456
    69.7400       436
    69.7600       390
    69.7800       402
    69.8000       396
    69.8200       388
    69.8400       410
    69.8600       390
    69.8800       364
    69.9000       334
    69.9200       346
    69.9400       326
    69.9600       340
    69.9800       330
    70.0000       334
    70.0200       332
    70.0400       320
    70.0600       328
    70.0800       330
    70.1000       314
    70.1200       282
    70.1400       312
    70.1600       350
    70.1800       308
    70.2000       282
    70.2200       258
    70.2400       326
    70.2600       322
    70.2800       296
    70.3000       246
    70.3200       276
    70.3400       272
    70.3600       284
    70.3800       264
    70.4000       280
    70.4200       274
    70.4400       242
    70.4600       308
    70.4800       284
    70.5000       262
    70.5200       288
    70.5400       274
    70.5600       260
    70.5800       288
    70.6000       308
    70.6200       288
    70.6400       292
    70.6600       238
    70.6800       276
    70.7000       298
    70.7200       278
    70.7400       294
    70.7600       288
    70.7800       280
    70.8000       298
    70.8200       298
    70.8400       258
    70.8600       270
    70.8800       268
    70.9000       286
    70.9200       306
    70.9400       304
    70.9600       260
    70.9800       322
    71.0000       310
    71.0200       316
    71.0400       332
    71.0600       310
    71.0800       344
    71.1000       346
    71.1200       340
    71.1400       340
    71.1600       350
    71.1800       368
    71.2000       368
    71.2200       386
    71.2400       426
    71.2600       402
    71.2800       418
    71.3000       390
    71.3200       442
    71.3400       454
    71.3600       510
    71.3800       488
    71.4000       526
    71.4200       576
    71.4400       580
    71.4600       626
    71.4800       586
    71.5000       652
    71.5200       624
    71.5400       592
    71.5600       690
    71.5800       664
    71.6000       632
    71.6200       670
    71.6400       636
    71.6600       616
    71.6800       670
    71.7000       664
    71.7200       668
    71.7400       604
    71.7600       634
    71.7800       624
    71.8000       572
    71.8200       564
    71.8400       594
    71.8600       560
    71.8800       578
    71.9000       548
    71.9200       554
    71.9400       576
    71.9600       554
    71.9800       520
    72.0000       576
    72.0200       524
    72.0400       496
    72.0600       578
    72.0800       508
    72.1000       532
    72.1200       514
    72.1400       556
    72.1600       512
    72.1800       530
    72.2000       484
    72.2200       516
    72.2400       536
    72.2600       532
    72.2800       518
    72.3000       544
    72.3200       526
    72.3400       524
    72.3600       506
    72.3800       500
    72.4000       504
    72.4200       536
    72.4400       560
    72.4600       542
    72.4800       504
    72.5000       490
    72.5200       488
    72.5400       472
    72.5600       470
    72.5800       448
    72.6000       472
    72.6200       464
    72.6400       450
    72.6600       434
    72.6800       526
    72.7000       452
    72.7200       438
    72.7400       426
    72.7600       422
    72.7800       420
    72.8000       422
    72.8200       436
    72.8400       398
    72.8600       442
    72.8800       386
    72.9000       406
    72.9200       382
    72.9400       432
    72.9600       412
    72.9800       372
    73.0000       362
    73.0200       370
    73.0400       364
    73.0600       358
    73.0800       348
    73.1000       346
    73.1200       296
    73.1400       370
    73.1600       390
    73.1800       328
    73.2000       308
    73.2200       288
    73.2400       298
    73.2600       312
    73.2800       274
    73.3000       292
    73.3200       292
    73.3400       296
    73.3600       256
    73.3800       308
    73.4000       276
    73.4200       266
    73.4400       304
    73.4600       298
    73.4800       274
    73.5000       278
    73.5200       300
    73.5400       270
    73.5600       254
    73.5800       256
    73.6000       290
    73.6200       286
    73.6400       268
    73.6600       258
    73.6800       272
    73.7000       262
    73.7200       274
    73.7400       262
    73.7600       264
    73.7800       296
    73.8000       266
    73.8200       268
    73.8400       244
    73.8600       254
    73.8800       278
    73.9000       266
    73.9200       270
    73.9400       280
    73.9600       274
    73.9800       302
    74.0000       270
    74.0200       310
    74.0400       278
    74.0600       276
    74.0800       292
    74.1000       302
    74.1200       312
    74.1400       292
    74.1600       304
    74.1800       328
    74.2000       328
    74.2200       318
    74.2400       324
    74.2600       290
    74.2800       286
    74.3000       292
    74.3200       282
    74.3400       262
    74.3600       292
    74.3800       250
    74.4000       262
    74.4200       268
    74.4400       306
    74.4600       258
    74.4800       296
    74.5000       246
    74.5200       246
    74.5400       250
    74.5600       254
    74.5800       256
    74.6000       224
    74.6200       236
    74.6400       218
    74.6600       240
    74.6800       244
    74.7000       208
    74.7200       230
    74.7400       242
    74.7600       234
    74.7800       212
    74.8000       202
    74.8200       240
    74.8400       226
    74.8600       228
    74.8800       214
    74.9000       208
    74.9200       222
    74.9400       212
    74.9600       236
    74.9800       226
    75.0000       220
    75.0200       236
    75.0400       216
    75.0600       208
    75.0800       218
    75.1000       244
    75.1200       232
    75.1400       206
    75.1600       204
    75.1800       212
    75.2000       238
    75.2200       214
    75.2400       216
    75.2600       260
    75.2800       246
    75.3000       230
    75.3200       230
    75.3400       214
    75.3600       236
    75.3800       224
    75.4000       244
    75.4200       212
    75.4400       224
    75.4600       234
    75.4800       250
    75.5000       242
    75.5200       228
    75.5400       212
    75.5600       254
    75.5800       240
    75.6000       248
    75.6200       218
    75.6400       242
    75.6600       246
    75.6800       216
    75.7000       246
    75.7200       214
    75.7400       228
    75.7600       250
    75.7800       264
    75.8000       258
    75.8200       250
    75.8400       220
    75.8600       258
    75.8800       276
    75.9000       238
    75.9200       242
    75.9400       228
    75.9600       268
    75.9800       246
    76.0000       262
    76.0200       284
    76.0400       266
    76.0600       254
    76.0800       276
    76.1000       304
    76.1200       306
    76.1400       280
    76.1600       260
    76.1800       274
    76.2000       272
    76.2200       316
    76.2400       298
    76.2600       312
    76.2800       300
    76.3000       320
    76.3200       312
    76.3400       300
    76.3600       344
    76.3800       346
    76.4000       314
    76.4200       334
    76.4400       342
    76.4600       342
    76.4800       378
    76.5000       334
    76.5200       348
    76.5400       394
    76.5600       386
    76.5800       374
    76.6000       400
    76.6200       422
    76.6400       422
    76.6600       426
    76.6800       372
    76.7000       450
    76.7200       386
    76.7400       406
    76.7600       398
    76.7800       468
    76.8000       404
    76.8200       398
    76.8400       366
    76.8600       368
    76.8800       418
    76.9000       386
    76.9200       386
    76.9400       426
    76.9600       398
    76.9800       438
    77.0000       428
    77.0200       416
    77.0400       380
    77.0600       402
    77.0800       412
    77.1000       380
    77.1200       450
    77.1400       412
    77.1600       436
    77.1800       430
    77.2000       458
    77.2200       426
    77.2400       438
    77.2600       486
    77.2800       494
    77.3000       484
    77.3200       486
    77.3400       568
    77.3600       496
    77.3800       556
    77.4000       570
    77.4200       542
    77.4400       574
    77.4600       660
    77.4800       696
    77.5000       676
    77.5200       736
    77.5400       742
    77.5600       716
    77.5800       794
    77.6000       812
    77.6200       756
    77.6400       816
    77.6600       822
    77.6800       818
    77.7000       812
    77.7200       810
    77.7400       794
    77.7600       788
    77.7800       838
    77.8000       780
    77.8200       732
    77.8400       708
    77.8600       704
    77.8800       714
    77.9000       638
    77.9200       680
    77.9400       656
    77.9600       644
    77.9800       548
    78.0000       570
    78.0200       562
    78.0400       592
    78.0600       512
    78.0800       510
    78.1000       442
    78.1200       522
    78.1400       480
    78.1600       484
    78.1800       430
    78.2000       424
    78.2200       450
    78.2400       422
    78.2600       466
    78.2800       466
    78.3000       450
    78.3200       408
    78.3400       410
    78.3600       414
    78.3800       398
    78.4000       458
    78.4200       390
    78.4400       444
    78.4600       478
    78.4800       440
    78.5000       504
    78.5200       444
    78.5400       446
    78.5600       466
    78.5800       446
    78.6000       466
    78.6200       420
    78.6400       408
    78.6600       426
    78.6800       402
    78.7000       428
    78.7200       458
    78.7400       428
    78.7600       444
    78.7800       460
    78.8000       438
    78.8200       394
    78.8400       402
    78.8600       448
    78.8800       398
    78.9000       394
    78.9200       390
    78.9400       366
    78.9600       394
    78.9800       354
    79.0000       388
    79.0200       342
    79.0400       318
    79.0600       338
    79.0800       336
    79.1000       354
    79.1200       322
    79.1400       332
    79.1600       296
    79.1800       302
    79.2000       322
    79.2200       286
    79.2400       294
    79.2600       312
    79.2800       312
    79.3000       338
    79.3200       274
    79.3400       260
    79.3600       298
    79.3800       312
    79.4000       272
    79.4200       282
    79.4400       276
    79.4600       336
    79.4800       270
    79.5000       266
    79.5200       288
    79.5400       294
    79.5600       274
    79.5800       276
    79.6000       264
    79.6200       294
    79.6400       274
    79.6600       288
    79.6800       288
    79.7000       280
    79.7200       292
    79.7400       290
    79.7600       290
    79.7800       298
    79.8000       296
    79.8200       292
    79.8400       272
    79.8600       294
    79.8800       268
    79.9000       300
    79.9200       270
    79.9400       292
    79.9600       266
    79.9800       272
    80.0000       306
    80.0200       282
    80.0400       280
    80.0600       306
    80.0800       272
    80.1000       280
    80.1200       302
    80.1400       272
    80.1600       270
    80.1800       278
    80.2000       306
    80.2200       270
    80.2400       284
    80.2600       264
    80.2800       264
    80.3000       272
    80.3200       268
    80.3400       252
    80.3600       286
    80.3800       256
    80.4000       282
    80.4200       276
    80.4400       294
    80.4600       236
    80.4800       280
    80.5000       248
    80.5200       272
    80.5400       258
    80.5600       272
    80.5800       296
    80.6000       264
    80.6200       268
    80.6400       258
    80.6600       242
    80.6800       262
    80.7000       240
    80.7200       244
    80.7400       242
    80.7600       256
    80.7800       256
    80.8000       260
    80.8200       264
    80.8400       258
    80.8600       252
    80.8800       244
    80.9000       268
    80.9200       256
    80.9400       230
    80.9600       268
    80.9800       258
    81.0000       278
    81.0200       264
    81.0400       258
    81.0600       252
    81.0800       254
    81.1000       264
    81.1200       308
    81.1400       248
    81.1600       268
    81.1800       290
    81.2000       262
    81.2200       330
    81.2400       298
    81.2600       300
    81.2800       304
    81.3000       260
    81.3200       308
    81.3400       292
    81.3600       298
    81.3800       286
    81.4000       274
    81.4200       272
    81.4400       300
    81.4600       276
    81.4800       316
    81.5000       294
    81.5200       302
    81.5400       304
    81.5600       264
    81.5800       328
    81.6000       308
    81.6200       284
    81.6400       306
    81.6600       284
    81.6800       310
    81.7000       294
    81.7200       296
    81.7400       288
    81.7600       280
    81.7800       276
    81.8000       288
    81.8200       326
    81.8400       312
    81.8600       328
    81.8800       310
    81.9000       324
    81.9200       302
    81.9400       316
    81.9600       310
    81.9800       328
    82.0000       344
    82.0200       332
    82.0400       376
    82.0600       350
    82.0800       312
    82.1000       344
    82.1200       304
    82.1400       338
    82.1600       322
    82.1800       342
    82.2000       366
    82.2200       394
    82.2400       366
    82.2600       360
    82.2800       364
    82.3000       400
    82.3200       396
    82.3400       412
    82.3600       414
    82.3800       376
    82.4000       384
    82.4200       374
    82.4400       428
    82.4600       372
    82.4800       402
    82.5000       416
    82.5200       434
    82.5400       412
    82.5600       410
    82.5800       430
    82.6000       412
    82.6200       460
    82.6400       420
    82.6600       436
    82.6800       474
    82.7000       420
    82.7200       510
    82.7400       498
    82.7600       506
    82.7800       496
    82.8000       476
    82.8200       504
    82.8400       540
    82.8600       486
    82.8800       514
    82.9000       538
    82.9200       516
    82.9400       534
    82.9600       510
    82.9800       500
    83.0000       502
    83.0200       472
    83.0400       496
    83.0600       488
    83.0800       522
    83.1000       522
    83.1200       520
    83.1400       480
    83.1600       498
    83.1800       522
    83.2000       496
    83.2200       532
    83.2400       488
    83.2600       516
    83.2800       536
    83.3000       468
    83.3200       466
    83.3400       430
    83.3600       442
    83.3800       448
    83.4000       418
    83.4200       454
    83.4400       436
    83.4600       432
    83.4800       420
    83.5000       388
    83.5200       392
    83.5400       412
    83.5600       364
    83.5800       402
    83.6000       370
    83.6200       386
    83.6400       374
    83.6600       388
    83.6800       366
    83.7000       358
    83.7200       320
    83.7400       364
    83.7600       354
    83.7800       354
    83.8000       322
    83.8200       322
    83.8400       344
    83.8600       338
    83.8800       332
    83.9000       348
    83.9200       316
    83.9400       308
    83.9600       332
    83.9800       298
    84.0000       332
    84.0200       310
    84.0400       306
    84.0600       324
    84.0800       344
    84.1000       300
    84.1200       298
    84.1400       318
    84.1600       304
    84.1800       316
    84.2000       308
    84.2200       306
    84.2400       296
    84.2600       326
    84.2800       302
    84.3000       278
    84.3200       286
    84.3400       312
    84.3600       286
    84.3800       314
    84.4000       276
    84.4200       304
    84.4400       306
    84.4600       258
    84.4800       256
    84.5000       268
    84.5200       290
    84.5400       270
    84.5600       280
    84.5800       276
    84.6000       254
    84.6200       282
    84.6400       260
    84.6600       270
    84.6800       268
    84.7000       254
    84.7200       284
    84.7400       230
    84.7600       272
    84.7800       302
    84.8000       278
    84.8200       260
    84.8400       272
    84.8600       244
    84.8800       268
    84.9000       282
    84.9200       226
    84.9400       250
    84.9600       254
    84.9800       260
    85.0000       252
    85.0200       226
    85.0400       274
    85.0600       246
    85.0800       262
    85.1000       258
    85.1200       272
    85.1400       298
    85.1600       258
    85.1800       286
    85.2000       258
    85.2200       254
    85.2400       296
    85.2600       254
    85.2800       290
    85.3000       280
    85.3200       256
    85.3400       280
    85.3600       292
    85.3800       274
    85.4000       274
    85.4200       302
    85.4400       318
    85.4600       284
    85.4800       310
    85.5000       292
    85.5200       292
    85.5400       284
    85.5600       310
    85.5800       292
    85.6000       322
    85.6200       288
    85.6400       284
    85.6600       282
    85.6800       278
    85.7000       268
    85.7200       292
    85.7400       272
    85.7600       270
    85.7800       278
    85.8000       282
    85.8200       266
    85.8400       282
    85.8600       282
    85.8800       286
    85.9000       262
    85.9200       270
    85.9400       244
    85.9600       230
    85.9800       264
    86.0000       248
    86.0200       234
    86.0400       264
    86.0600       238
    86.0800       250
    86.1000       254
    86.1200       224
    86.1400       214
    86.1600       252
    86.1800       260
    86.2000       236
    86.2200       252
    86.2400       244
    86.2600       244
    86.2800       208
    86.3000       262
    86.3200       250
    86.3400       238
    86.3600       246
    86.3800       280
    86.4000       252
    86.4200       274
    86.4400       258
    86.4600       288
    86.4800       252
    86.5000       258
    86.5200       258
    86.5400       234
    86.5600       284
    86.5800       284
    86.6000       270
    86.6200       258
    86.6400       250
    86.6600       272
    86.6800       298
    86.7000       294
    86.7200       318
    86.7400       294
    86.7600       282
    86.7800       310
    86.8000       306
    86.8200       338
    86.8400       318
    86.8600       340
    86.8800       332
    86.9000       336
    86.9200       324
    86.9400       336
    86.9600       318
    86.9800       356
    87.0000       324
    87.0200       344
    87.0400       346
    87.0600       342
    87.0800       320
    87.1000       364
    87.1200       340
    87.1400       380
    87.1600       304
    87.1800       338
    87.2000       348
    87.2200       336
    87.2400       330
    87.2600       318
    87.2800       318
    87.3000       296
    87.3200       336
    87.3400       298
    87.3600       354
    87.3800       306
    87.4000       302
    87.4200       350
    87.4400       314
    87.4600       278
    87.4800       326
    87.5000       306
    87.5200       308
    87.5400       330
    87.5600       364
    87.5800       300
    87.6000       326
    87.6200       332
    87.6400       334
    87.6600       352
    87.6800       334
    87.7000       316
    87.7200       334
    87.7400       338
    87.7600       370
    87.7800       350
    87.8000       360
    87.8200       410
    87.8400       378
    87.8600       352
    87.8800       388
    87.9000       398
    87.9200       382
    87.9400       366
    87.9600       406
    87.9800       354
    88.0000       360
    88.0200       406
    88.0400       402
    88.0600       368
    88.0800       356
    88.1000       376
    88.1200       354
    88.1400       426
    88.1600       376
    88.1800       358
    88.2000       342
    88.2200       360
    88.2400       322
    88.2600       326
    88.2800       334
    88.3000       392
    88.3200       362
    88.3400       346
    88.3600       320
    88.3800       324
    88.4000       350
    88.4200       318
    88.4400       320
    88.4600       326
    88.4800       342
    88.5000       350
    88.5200       306
    88.5400       304
    88.5600       344
    88.5800       328
    88.6000       302
    88.6200       296
    88.6400       298
    88.6600       304
    88.6800       344
    88.7000       324
    88.7200       328
    88.7400       302
    88.7600       324
    88.7800       328
    88.8000       264
    88.8200       338
    88.8400       304
    88.8600       310
    88.8800       292
    88.9000       320
    88.9200       280
    88.9400       298
    88.9600       306
    88.9800       292
    89.0000       316
    89.0200       304
    89.0400       296
    89.0600       266
    89.0800       284
    89.1000       270
    89.1200       272
    89.1400       268
    89.1600       282
    89.1800       290
    89.2000       256
    89.2200       248
    89.2400       262
    89.2600       286
    89.2800       286
    89.3000       274
    89.3200       274
    89.3400       270
    89.3600       270
    89.3800       286
    89.4000       308
    89.4200       292
    89.4400       330
    89.4600       290
    89.4800       266
    89.5000       276
    89.5200       282
    89.5400       288
    89.5600       256
    89.5800       310
    89.6000       320
    89.6200       304
    89.6400       320
    89.6600       330
    89.6800       332
    89.7000       324
    89.7200       278
    89.7400       316
    89.7600       324
    89.7800       356
    89.8000       304
    89.8200       312
    89.8400       324
    89.8600       334
    89.8800       304
    89.9000       348
    89.9200       332
    89.9400       318
    89.9600       324
    89.9800       334
    90.0000       312
