    10.0000       382
    10.0200       350
    10.0400       368
    10.0600       370
    10.0800       394
    10.1000       340
    10.1200       356
    10.1400       410
    10.1600       346
    10.1800       380
    10.2000       340
    10.2200       368
    10.2400       334
    10.2600       364
    10.2800       342
    10.3000       336
    10.3200       366
    10.3400       312
    10.3600       334
    10.3800       362
    10.4000       324
    10.4200       328
    10.4400       332
    10.4600       324
    10.4800       336
    10.5000       326
    10.5200       332
    10.5400       334
    10.5600       352
    10.5800       314
    10.6000       322
    10.6200       326
    10.6400       300
    10.6600       338
    10.6800       334
    10.7000       342
    10.7200       368
    10.7400       340
    10.7600       340
    10.7800       342
    10.8000       364
    10.8200       302
    10.8400       318
    10.8600       340
    10.8800       338
    10.9000       308
    10.9200       342
    10.9400       334
    10.9600       332
    10.9800       346
    11.0000       322
    11.0200       330
    11.0400       328
    11.0600       308
    11.0800       304
    11.1000       310
    11.1200       318
    11.1400       340
    11.1600       340
    11.1800       338
    11.2000       298
    11.2200       340
    11.2400       334
    11.2600       324
    11.2800       310
    11.3000       326
    11.3200       324
    11.3400       326
    11.3600       332
    11.3800       324
    11.4000       340
    11.4200       308
    11.4400       280
    11.4600       330
    11.4800       350
    11.5000       314
    11.5200       368
    11.5400       332
    11.5600       360
    11.5800       336
    11.6000       338
    11.6200       368
    11.6400       324
    11.6600       314
    11.6800       332
    11.7000       318
    11.7200       330
    11.7400       310
    11.7600       336
    11.7800       324
    11.8000       358
    11.8200       330
    11.8400       332
    11.8600       316
    11.8800       344
    11.9000       346
    11.9200       386
    11.9400       348
    11.9600       372
    11.9800       418
    12.0000       378
    12.0200       388
    12.0400       424
    12.0600       422
    12.0800       416
    12.1000       464
    12.1200       480
    12.1400       498
    12.1600       504
    12.1800       520
    12.2000       556
    12.2200       548
    12.2400       480
    12.2600       504
    12.2800       476
    12.3000       406
    12.3200       430
    12.3400       372
    12.3600       348
    12.3800       318
    12.4000       328
    12.4200       282
    12.4400       340
    12.4600       318
    12.4800       280
    12.5000       314
    12.5200       338
    12.5400       302
    12.5600       288
    12.5800       318
    12.6000       308
    12.6200       332
    12.6400       326
    12.6600       296
    12.6800       292
    12.7000       284
    12.7200       284
    12.7400       286
    12.7600       312
    12.7800       300
    12.8000       272
    12.8200       284
    12.8400       286
    12.8600       270
    12.8800       296
    12.9000       284
    12.9200       270
    12.9400       274
    12.9600       286
    12.9800       300
    13.0000       252
    13.0200       260
    13.0400       288
    13.0600       280
    13.0800       288
    13.1000       294
    13.1200       322
    13.1400       294
    13.1600       306
    13.1800       288
    13.2000       230
    13.2200       270
    13.2400       272
    13.2600       216
    13.2800       258
    13.3000       272
    13.3200       276
    13.3400       282
    13.3600       276
    13.3800       276
    13.4000       268
    13.4200       264
    13.4400       288
    13.4600       278
    13.4800       268
    13.5000       278
    13.5200       244
    13.5400       254
    13.5600       266
    13.5800       264
    13.6000       264
    13.6200       264
    13.6400       260
    13.6600       288
    13.6800       266
    13.7000       264
    13.7200       284
    13.7400       272
    13.7600       268
    13.7800       270
    13.8000       256
    13.8200       258
    13.8400       278
    13.8600       274
    13.8800       260
    13.9000       282
    13.9200       286
    13.9400       270
    13.9600       258
    13.9800       238
    14.0000       282
    14.0200       276
    14.0400       272
    14.0600       288
    14.0800       276
    14.1000       278
    14.1200       264
    14.1400       268
    14.1600       276
    14.1800       250
    14.2000       278
    14.2200       248
    14.2400       268
    14.2600       256
    14.2800       256
    14.3000       278
    14.3200       266
    14.3400       260
    14.3600       272
    14.3800       256
    14.4000       258
    14.4200       282
    14.4400       322
    14.4600       268
    14.4800       280
    14.5000       288
    14.5200       288
    14.5400       278
    14.5600       290
    14.5800       254
    14.6000       292
    14.6200       294
    14.6400       318
    14.6600       338
    14.6800       306
    14.7000       342
    14.7200       342
    14.7400       372
    14.7600       356
    14.7800       344
    14.8000       396
    14.8200       418
    14.8400       450
    14.8600       446
    14.8800       440
    14.9000       564
    14.9200       552
    14.9400       578
    14.9600       630
    14.9800       672
    15.0000       708
    15.0200       842
    15.0400       898
    15.0600       974
    15.0800      1050
    15.1000      1190
    15.1200      1250
    15.1400      1298
    15.1600      1534
    15.1800      1578
    15.2000      1676
    15.2200      1684
    15.2400      1574
    15.2600      1458
    15.2800      1196
    15.3000       996
    15.3200       816
    15.3400       668
    15.3600       562
    15.3800       522
    15.4000       472
    15.4200       432
    15.4400       370
    15.4600       380
    15.4800       348
    15.5000       362
    15.5200       324
    15.5400       346
    15.5600       306
    15.5800       314
    15.6000       304
    15.6200       270
    15.6400       314
    15.6600       274
    15.6800       286
    15.7000       288
    15.7200       290
    15.7400       276
    15.7600       278
    15.7800       292
    15.8000       242
    15.8200       284
    15.8400       276
    15.8600       288
    15.8800       284
    15.9000       288
    15.9200       236
    15.9400       252
    15.9600       280
    15.9800       254
    16.0000       328
    16.0200       274
    16.0400       258
    16.0600       286
    16.0800       300
    16.1000       298
    16.1200       280
    16.1400       308
    16.1600       334
    16.1800       326
    16.2000       360
    16.2200       366
    16.2400       362
    16.2600       350
    16.2800       368
    16.3000       364
    16.3200       390
    16.3400       362
    16.3600       324
    16.3800       362
    16.4000       322
    16.4200       330
    16.4400       332
    16.4600       324
    16.4800       336
    16.5000       322
    16.5200       332
    16.5400       386
    16.5600       360
    16.5800       366
    16.6000       380
    16.6200       420
    16.6400       476
    16.6600       458
    16.6800       446
    16.7000       524
    16.7200       554
    16.7400       608
    16.7600       650
    16.7800       714
    16.8000       784
    16.8200       874
    16.8400       948
    16.8600      1102
    16.8800      1184
    16.9000      1308
    16.9200      1462
    16.9400      1758
    16.9600      1988
    16.9800      2282
    17.0000      2496
    17.0200      2642
    17.0400      2700
    17.0600      2730
    17.0800      2528
    17.1000      2080
    17.1200      1624
    17.1400      1270
    17.1600      1108
    17.1800       930
    17.2000       862
    17.2200       832
    17.2400       810
    17.2600       780
    17.2800       706
    17.3000       666
    17.3200       626
    17.3400       604
    17.3600       548
    17.3800       506
    17.4000       522
    17.4200       438
    17.4400       446
    17.4600       438
    17.4800       430
    17.5000       436
    17.5200       430
    17.5400       426
    17.5600       414
    17.5800       432
    17.6000       458
    17.6200       458
    17.6400       476
    17.6600       458
    17.6800       558
    17.7000       556
    17.7200       558
    17.7400       576
    17.7600       696
    17.7800       788
    17.8000       720
    17.8200       818
    17.8400       884
    17.8600       854
    17.8800       760
    17.9000       852
    17.9200       732
    17.9400       560
    17.9600       532
    17.9800       428
    18.0000       428
    18.0200       318
    18.0400       330
    18.0600       306
    18.0800       324
    18.1000       294
    18.1200       244
    18.1400       268
    18.1600       240
    18.1800       270
    18.2000       250
    18.2200       262
    18.2400       224
    18.2600       266
    18.2800       228
    18.3000       250
    18.3200       264
    18.3400       222
    18.3600       254
    18.3800       234
    18.4000       206
    18.4200       208
    18.4400       228
    18.4600       236
    18.4800       216
    18.5000       234
    18.5200       222
    18.5400       244
    18.5600       246
    18.5800       244
    18.6000       222
    18.6200       250
    18.6400       224
    18.6600       244
    18.6800       236
    18.7000       258
    18.7200       222
    18.7400       232
    18.7600       252
    18.7800       226
    18.8000       234
    18.8200       246
    18.8400       216
    18.8600       204
    18.8800       240
    18.9000       228
    18.9200       258
    18.9400       252
    18.9600       240
    18.9800       248
    19.0000       262
    19.0200       298
    19.0400       284
    19.0600       302
    19.0800       284
    19.1000       302
    19.1200       304
    19.1400       358
    19.1600       370
    19.1800       386
    19.2000       426
    19.2200       448
    19.2400       572
    19.2600       582
    19.2800       620
    19.3000       662
    19.3200       724
    19.3400       860
    19.3600       956
    19.3800      1122
    19.4000      1222
    19.4200      1352
    19.4400      1704
    19.4600      1830
    19.4800      2156
    19.5000      2378
    19.5200      2556
    19.5400      2720
    19.5600      2616
    19.5800      2554
    19.6000      2192
    19.6200      1874
    19.6400      1534
    19.6600      1274
    19.6800      1060
    19.7000       944
    19.7200       952
    19.7400       882
    19.7600       924
    19.7800       972
    19.8000       952
    19.8200      1024
    19.8400      1244
    19.8600      1278
    19.8800      1412
    19.9000      1608
    19.9200      1734
    19.9400      1888
    19.9600      2040
    19.9800      2070
    20.0000      2012
    20.0200      1978
    20.0400      1812
    20.0600      1450
    20.0800      1206
    20.1000       994
    20.1200       802
    20.1400       704
    20.1600       570
    20.1800       528
    20.2000       472
    20.2200       426
    20.2400       426
    20.2600       414
    20.2800       410
    20.3000       414
    20.3200       402
    20.3400       356
    20.3600       352
    20.3800       352
    20.4000       314
    20.4200       310
    20.4400       318
    20.4600       304
    20.4800       268
    20.5000       276
    20.5200       266
    20.5400       268
    20.5600       264
    20.5800       276
    20.6000       218
    20.6200       280
    20.6400       260
    20.6600       238
    20.6800       254
    20.7000       282
    20.7200       262
    20.7400       284
    20.7600       300
    20.7800       282
    20.8000       320
    20.8200       280
    20.8400       278
    20.8600       308
    20.8800       328
    20.9000       382
    20.9200       354
    20.9400       420
    20.9600       488
    20.9800       502
    21.0000       544
    21.0200       622
    21.0400       636
    21.0600       742
    21.0800       706
    21.1000       866
    21.1200       958
    21.1400      1062
    21.1600      1084
    21.1800      1248
    21.2000      1166
    21.2200      1224
    21.2400      1216
    21.2600      1178
    21.2800      1098
    21.3000      1028
    21.3200       916
    21.3400       822
    21.3600       662
    21.3800       582
    21.4000       568
    21.4200       448
    21.4400       414
    21.4600       398
    21.4800       318
    21.5000       324
    21.5200       294
    21.5400       290
    21.5600       298
    21.5800       302
    21.6000       268
    21.6200       266
    21.6400       250
    21.6600       234
    21.6800       232
    21.7000       246
    21.7200       222
    21.7400       236
    21.7600       262
    21.7800       256
    21.8000       238
    21.8200       210
    21.8400       220
    21.8600       228
    21.8800       208
    21.9000       222
    21.9200       232
    21.9400       218
    21.9600       216
    21.9800       198
    22.0000       208
    22.0200       226
    22.0400       190
    22.0600       252
    22.0800       214
    22.1000       196
    22.1200       200
    22.1400       212
    22.1600       244
    22.1800       230
    22.2000       238
    22.2200       258
    22.2400       228
    22.2600       212
    22.2800       272
    22.3000       260
    22.3200       252
    22.3400       268
    22.3600       288
    22.3800       298
    22.4000       294
    22.4200       316
    22.4400       372
    22.4600       386
    22.4800       402
    22.5000       398
    22.5200       452
    22.5400       534
    22.5600       608
    22.5800       636
    22.6000       754
    22.6200       880
    22.6400       944
    22.6600      1102
    22.6800      1214
    22.7000      1386
    22.7200      1676
    22.7400      1936
    22.7600      2316
    22.7800      2612
    22.8000      3030
    22.8200      3368
    22.8400      3488
    22.8600      3528
    22.8800      3652
    22.9000      3282
    22.9200      2930
    22.9400      2402
    22.9600      1972
    22.9800      1538
    23.0000      1278
    23.0200      1004
    23.0400       974
    23.0600       776
    23.0800       688
    23.1000       662
    23.1200       540
    23.1400       486
    23.1600       486
    23.1800       426
    23.2000       410
    23.2200       386
    23.2400       384
    23.2600       360
    23.2800       332
    23.3000       290
    23.3200       296
    23.3400       304
    23.3600       260
    23.3800       280
    23.4000       286
    23.4200       258
    23.4400       284
    23.4600       230
    23.4800       298
    23.5000       230
    23.5200       240
    23.5400       250
    23.5600       222
    23.5800       238
    23.6000       248
    23.6200       230
    23.6400       232
    23.6600       242
    23.6800       234
    23.7000       244
    23.7200       242
    23.7400       220
    23.7600       242
    23.7800       254
    23.8000       248
    23.8200       242
    23.8400       258
    23.8600       234
    23.8800       244
    23.9000       242
    23.9200       236
    23.9400       272
    23.9600       270
    23.9800       296
    24.0000       268
    24.0200       268
    24.0400       258
    24.0600       264
    24.0800       266
    24.1000       282
    24.1200       300
    24.1400       298
    24.1600       286
    24.1800       306
    24.2000       336
    24.2200       354
    24.2400       336
    24.2600       380
    24.2800       412
    24.3000       448
    24.3200       472
    24.3400       526
    24.3600       552
    24.3800       654
    24.4000       704
    24.4200       814
    24.4400       860
    24.4600       894
    24.4800       976
    24.5000      1020
    24.5200      1018
    24.5400      1028
    24.5600      1010
    24.5800      1052
    24.6000       986
    24.6200       950
    24.6400       866
    24.6600       836
    24.6800       844
    24.7000       792
    24.7200       828
    24.7400       820
    24.7600       720
    24.7800       784
    24.8000       650
    24.8200       704
    24.8400       670
    24.8600       584
    24.8800       514
    24.9000       524
    24.9200       524
    24.9400       450
    24.9600       420
    24.9800       464
    25.0000       466
    25.0200       458
    25.0400       452
    25.0600       496
    25.0800       516
    25.1000       508
    25.1200       552
    25.1400       546
    25.1600       590
    25.1800       666
    25.2000       740
    25.2200       802
    25.2400       834
    25.2600       948
    25.2800      1072
    25.3000      1218
    25.3200      1332
    25.3400      1446
    25.3600      1502
    25.3800      1536
    25.4000      1426
    25.4200      1356
    25.4400      1182
    25.4600      1166
    25.4800      1022
    25.5000      1004
    25.5200       986
    25.5400      1044
    25.5600      1042
    25.5800      1062
    25.6000      1066
    25.6200       978
    25.6400       990
    25.6600       850
    25.6800       810
    25.7000       716
    25.7200       560
    25.7400       528
    25.7600       472
    25.7800       432
    25.8000       436
    25.8200       382
    25.8400       386
    25.8600       346
    25.8800       380
    25.9000       372
    25.9200       388
    25.9400       330
    25.9600       286
    25.9800       314
    26.0000       314
    26.0200       294
    26.0400       284
    26.0600       302
    26.0800       282
    26.1000       288
    26.1200       276
    26.1400       264
    26.1600       288
    26.1800       292
    26.2000       290
    26.2200       296
    26.2400       298
    26.2600       316
    26.2800       308
    26.3000       330
    26.3200       360
    26.3400       362
    26.3600       382
    26.3800       390
    26.4000       388
    26.4200       390
    26.4400       420
    26.4600       420
    26.4800       410
    26.5000       418
    26.5200       432
    26.5400       436
    26.5600       428
    26.5800       478
    26.6000       454
    26.6200       472
    26.6400       492
    26.6600       450
    26.6800       430
    26.7000       398
    26.7200       456
    26.7400       390
    26.7600       356
    26.7800       372
    26.8000       362
    26.8200       322
    26.8400       346
    26.8600       358
    26.8800       306
    26.9000       284
    26.9200       298
    26.9400       292
    26.9600       276
    26.9800       334
    27.0000       300
    27.0200       286
    27.0400       326
    27.0600       298
    27.0800       298
    27.1000       328
    27.1200       362
    27.1400       312
    27.1600       348
    27.1800       352
    27.2000       382
    27.2200       410
    27.2400       402
    27.2600       466
    27.2800       438
    27.3000       466
    27.3200       532
    27.3400       570
    27.3600       550
    27.3800       614
    27.4000       706
    27.4200       714
    27.4400       820
    27.4600       800
    27.4800       786
    27.5000       864
    27.5200       828
    27.5400       760
    27.5600       774
    27.5800       740
    27.6000       674
    27.6200       630
    27.6400       576
    27.6600       542
    27.6800       508
    27.7000       494
    27.7200       444
    27.7400       448
    27.7600       412
    27.7800       358
    27.8000       348
    27.8200       320
    27.8400       336
    27.8600       316
    27.8800       306
    27.9000       298
    27.9200       290
    27.9400       280
    27.9600       314
    27.9800       304
    28.0000       270
    28.0200       260
    28.0400       256
    28.0600       240
    28.0800       272
    28.1000       282
    28.1200       254
    28.1400       248
    28.1600       250
    28.1800       272
    28.2000       278
    28.2200       240
    28.2400       244
    28.2600       296
    28.2800       278
    28.3000       260
    28.3200       286
    28.3400       300
    28.3600       292
    28.3800       316
    28.4000       314
    28.4200       346
    28.4400       298
    28.4600       322
    28.4800       320
    28.5000       328
    28.5200       342
    28.5400       304
    28.5600       370
    28.5800       338
    28.6000       392
    28.6200       410
    28.6400       420
    28.6600       478
    28.6800       446
    28.7000       490
    28.7200       502
    28.7400       452
    28.7600       450
    28.7800       422
    28.8000       378
    28.8200       402
    28.8400       366
    28.8600       358
    28.8800       352
    28.9000       332
    28.9200       284
    28.9400       324
    28.9600       330
    28.9800       280
    29.0000       276
    29.0200       314
    29.0400       324
    29.0600       294
    29.0800       280
    29.1000       326
    29.1200       274
    29.1400       308
    29.1600       312
    29.1800       362
    29.2000       334
    29.2200       330
    29.2400       366
    29.2600       352
    29.2800       362
    29.3000       442
    29.3200       390
    29.3400       390
    29.3600       406
    29.3800       444
    29.4000       494
    29.4200       488
    29.4400       502
    29.4600       560
    29.4800       620
    29.5000       642
    29.5200       702
    29.5400       684
    29.5600       828
    29.5800       934
    29.6000       978
    29.6200      1098
    29.6400      1124
    29.6600      1314
    29.6800      1290
    29.7000      1468
    29.7200      1480
    29.7400      1368
    29.7600      1334
    29.7800      1196
    29.8000      1148
    29.8200      1082
    29.8400       910
    29.8600       862
    29.8800       810
    29.9000       790
    29.9200       748
    29.9400       794
    29.9600       776
    29.9800       810
    30.0000       870
    30.0200       964
    30.0400       944
    30.0600      1048
    30.0800      1178
    30.1000      1282
    30.1200      1282
    30.1400      1430
    30.1600      1510
    30.1800      1590
    30.2000      1660
    30.2200      1636
    30.2400      1714
    30.2600      1736
    30.2800      1716
    30.3000      1708
    30.3200      1742
    30.3400      1708
    30.3600      1754
    30.3800      1770
    30.4000      1870
    30.4200      1876
    30.4400      1998
    30.4600      2140
    30.4800      2342
    30.5000      2512
    30.5200      2754
    30.5400      3130
    30.5600      3534
    30.5800      4042
    30.6000      4432
    30.6200      4944
    30.6400      5520
    30.6600      6304
    30.6800      6824
    30.7000      7228
    30.7200      7382
    30.7400      7026
    30.7600      6524
    30.7800      6046
    30.8000      5240
    30.8200      4478
    30.8400      3896
    30.8600      3198
    30.8800      2620
    30.9000      2182
    30.9200      1842
    30.9400      1574
    30.9600      1422
    30.9800      1310
    31.0000      1136
    31.0200      1016
    31.0400       966
    31.0600       844
    31.0800       766
    31.1000       744
    31.1200       688
    31.1400       690
    31.1600       572
    31.1800       584
    31.2000       506
    31.2200       540
    31.2400       502
    31.2600       490
    31.2800       430
    31.3000       424
    31.3200       420
    31.3400       386
    31.3600       388
    31.3800       410
    31.4000       392
    31.4200       364
    31.4400       396
    31.4600       424
    31.4800       412
    31.5000       416
    31.5200       412
    31.5400       428
    31.5600       430
    31.5800       414
    31.6000       448
    31.6200       456
    31.6400       486
    31.6600       488
    31.6800       502
    31.7000       544
    31.7200       620
    31.7400       656
    31.7600       722
    31.7800       742
    31.8000       800
    31.8200       904
    31.8400       884
    31.8600      1070
    31.8800      1250
    31.9000      1346
    31.9200      1544
    31.9400      1688
    31.9600      1880
    31.9800      1896
    32.0000      2008
    32.0200      1974
    32.0400      1906
    32.0600      1762
    32.0800      1732
    32.1000      1528
    32.1200      1378
    32.1400      1242
    32.1600      1184
    32.1800      1134
    32.2000      1168
    32.2200      1158
    32.2400      1228
    32.2600      1392
    32.2800      1442
    32.3000      1536
    32.3200      1700
    32.3400      1922
    32.3600      2160
    32.3800      2414
    32.4000      2898
    32.4200      3344
    32.4400      3818
    32.4600      4456
    32.4800      4888
    32.5000      5610
    32.5200      6102
    32.5400      6188
    32.5600      6286
    32.5800      6222
    32.6000      5892
    32.6200      5456
    32.6400      4876
    32.6600      4344
    32.6800      3586
    32.7000      3164
    32.7200      2692
    32.7400      2252
    32.7600      1932
    32.7800      1698
    32.8000      1484
    32.8200      1314
    32.8400      1264
    32.8600      1196
    32.8800      1166
    32.9000      1122
    32.9200      1092
    32.9400      1114
    32.9600      1018
    32.9800      1122
    33.0000      1264
    33.0200      1254
    33.0400      1362
    33.0600      1478
    33.0800      1368
    33.1000      1436
    33.1200      1430
    33.1400      1250
    33.1600      1222
    33.1800      1036
    33.2000       912
    33.2200       870
    33.2400       768
    33.2600       632
    33.2800       568
    33.3000       480
    33.3200       452
    33.3400       450
    33.3600       418
    33.3800       412
    33.4000       364
    33.4200       372
    33.4400       358
    33.4600       328
    33.4800       298
    33.5000       296
    33.5200       290
    33.5400       286
    33.5600       288
    33.5800       270
    33.6000       286
    33.6200       292
    33.6400       260
    33.6600       284
    33.6800       268
    33.7000       254
    33.7200       266
    33.7400       258
    33.7600       258
    33.7800       250
    33.8000       242
    33.8200       232
    33.8400       234
    33.8600       268
    33.8800       270
    33.9000       228
    33.9200       236
    33.9400       258
    33.9600       242
    33.9800       240
    34.0000       286
    34.0200       254
    34.0400       272
    34.0600       282
    34.0800       298
    34.1000       300
    34.1200       284
    34.1400       272
    34.1600       302
    34.1800       302
    34.2000       286
    34.2200       312
    34.2400       328
    34.2600       296
    34.2800       350
    34.3000       388
    34.3200       392
    34.3400       436
    34.3600       522
    34.3800       506
    34.4000       594
    34.4200       620
    34.4400       710
    34.4600       714
    34.4800       740
    34.5000       638
    34.5200       712
    34.5400       660
    34.5600       660
    34.5800       562
    34.6000       518
    34.6200       438
    34.6400       434
    34.6600       364
    34.6800       398
    34.7000       390
    34.7200       334
    34.7400       336
    34.7600       328
    34.7800       364
    34.8000       324
    34.8200       306
    34.8400       352
    34.8600       316
    34.8800       302
    34.9000       310
    34.9200       326
    34.9400       310
    34.9600       310
    34.9800       306
    35.0000       282
    35.0200       280
    35.0400       264
    35.0600       268
    35.0800       246
    35.1000       236
    35.1200       280
    35.1400       274
    35.1600       254
    35.1800       268
    35.2000       268
    35.2200       270
    35.2400       276
    35.2600       286
    35.2800       246
    35.3000       264
    35.3200       252
    35.3400       280
    35.3600       258
    35.3800       258
    35.4000       256
    35.4200       302
    35.4400       272
    35.4600       298
    35.4800       296
    35.5000       300
    35.5200       288
    35.5400       284
    35.5600       274
    35.5800       294
    35.6000       300
    35.6200       302
    35.6400       318
    35.6600       316
    35.6800       352
    35.7000       326
    35.7200       326
    35.7400       392
    35.7600       360
    35.7800       338
    35.8000       398
    35.8200       386
    35.8400       404
    35.8600       418
    35.8800       410
    35.9000       468
    35.9200       442
    35.9400       502
    35.9600       522
    35.9800       572
    36.0000       588
    36.0200       672
    36.0400       700
    36.0600       780
    36.0800       880
    36.1000       958
    36.1200       992
    36.1400      1028
    36.1600      1070
    36.1800       990
    36.2000       966
    36.2200       964
    36.2400       902
    36.2600       838
    36.2800       726
    36.3000       696
    36.3200       646
    36.3400       586
    36.3600       504
    36.3800       514
    36.4000       500
    36.4200       454
    36.4400       468
    36.4600       452
    36.4800       452
    36.5000       452
    36.5200       454
    36.5400       468
    36.5600       484
    36.5800       488
    36.6000       512
    36.6200       550
    36.6400       582
    36.6600       600
    36.6800       630
    36.7000       708
    36.7200       828
    36.7400       964
    36.7600       970
    36.7800      1076
    36.8000      1258
    36.8200      1392
    36.8400      1566
    36.8600      1702
    36.8800      1814
    36.9000      1734
    36.9200      1804
    36.9400      1598
    36.9600      1480
    36.9800      1480
    37.0000      1344
    37.0200      1150
    37.0400      1038
    37.0600       958
    37.0800       922
    37.1000       856
    37.1200       888
    37.1400       826
    37.1600       772
    37.1800       742
    37.2000       706
    37.2200       666
    37.2400       662
    37.2600       702
    37.2800       638
    37.3000       616
    37.3200       580
    37.3400       576
    37.3600       544
    37.3800       532
    37.4000       532
    37.4200       552
    37.4400       482
    37.4600       482
    37.4800       504
    37.5000       510
    37.5200       500
    37.5400       492
    37.5600       470
    37.5800       490
    37.6000       494
    37.6200       494
    37.6400       474
    37.6600       528
    37.6800       572
    37.7000       564
    37.7200       576
    37.7400       592
    37.7600       564
    37.7800       632
    37.8000       740
    37.8200       782
    37.8400       862
    37.8600       880
    37.8800       992
    37.9000      1188
    37.9200      1232
    37.9400      1418
    37.9600      1556
    37.9800      1648
    38.0000      1688
    38.0200      1786
    38.0400      1858
    38.0600      1732
    38.0800      1680
    38.1000      1710
    38.1200      1598
    38.1400      1566
    38.1600      1522
    38.1800      1476
    38.2000      1444
    38.2200      1500
    38.2400      1506
    38.2600      1594
    38.2800      1718
    38.3000      1818
    38.3200      2052
    38.3400      2298
    38.3600      2466
    38.3800      2710
    38.4000      3058
    38.4200      3474
    38.4400      3768
    38.4600      4124
    38.4800      4222
    38.5000      4352
    38.5200      4552
    38.5400      4786
    38.5600      4894
    38.5800      5156
    38.6000      5286
    38.6200      5548
    38.6400      5708
    38.6600      5960
    38.6800      5932
    38.7000      5980
    38.7200      5662
    38.7400      5364
    38.7600      5220
    38.7800      4694
    38.8000      4354
    38.8200      3948
    38.8400      3452
    38.8600      3086
    38.8800      2678
    38.9000      2364
    38.9200      2130
    38.9400      1964
    38.9600      1754
    38.9800      1564
    39.0000      1506
    39.0200      1466
    39.0400      1350
    39.0600      1388
    39.0800      1286
    39.1000      1214
    39.1200      1216
    39.1400      1192
    39.1600      1140
    39.1800      1126
    39.2000      1128
    39.2200      1108
    39.2400      1088
    39.2600      1074
    39.2800      1072
    39.3000      1066
    39.3200      1086
    39.3400      1168
    39.3600      1122
    39.3800      1226
    39.4000      1220
    39.4200      1356
    39.4400      1334
    39.4600      1330
    39.4800      1458
    39.5000      1410
    39.5200      1426
    39.5400      1518
    39.5600      1642
    39.5800      1700
    39.6000      1766
    39.6200      1862
    39.6400      1944
    39.6600      2164
    39.6800      2104
    39.7000      2148
    39.7200      2112
    39.7400      2056
    39.7600      1962
    39.7800      1762
    39.8000      1644
    39.8200      1466
    39.8400      1302
    39.8600      1170
    39.8800      1064
    39.9000       910
    39.9200       880
    39.9400       802
    39.9600       810
    39.9800       744
    40.0000       738
    40.0200       794
    40.0400       736
    40.0600       762
    40.0800       718
    40.1000       796
    40.1200       744
    40.1400       860
    40.1600       882
    40.1800       868
    40.2000       906
    40.2200       954
    40.2400      1012
    40.2600      1012
    40.2800       948
    40.3000       960
    40.3200       986
    40.3400       982
    40.3600      1018
    40.3800      1034
    40.4000      1096
    40.4200      1116
    40.4400      1080
    40.4600      1190
    40.4800      1362
    40.5000      1504
    40.5200      1516
    40.5400      1594
    40.5600      1680
    40.5800      1722
    40.6000      1870
    40.6200      1824
    40.6400      1804
    40.6600      1798
    40.6800      1724
    40.7000      1648
    40.7200      1406
    40.7400      1404
    40.7600      1234
    40.7800      1218
    40.8000      1072
    40.8200       992
    40.8400       888
    40.8600       788
    40.8800       790
    40.9000       742
    40.9200       680
    40.9400       706
    40.9600       738
    40.9800       692
    41.0000       716
    41.0200       736
    41.0400       728
    41.0600       748
    41.0800       810
    41.1000       840
    41.1200       836
    41.1400       888
    41.1600       962
    41.1800      1038
    41.2000      1030
    41.2200      1128
    41.2400      1136
    41.2600      1254
    41.2800      1338
    41.3000      1338
    41.3200      1306
    41.3400      1400
    41.3600      1378
    41.3800      1440
    41.4000      1474
    41.4200      1498
    41.4400      1514
    41.4600      1624
    41.4800      1718
    41.5000      1822
    41.5200      1846
    41.5400      1964
    41.5600      2042
    41.5800      1998
    41.6000      2014
    41.6200      1924
    41.6400      1954
    41.6600      1798
    41.6800      1806
    41.7000      1694
    41.7200      1636
    41.7400      1598
    41.7600      1616
    41.7800      1564
    41.8000      1574
    41.8200      1666
    41.8400      1670
    41.8600      1782
    41.8800      1832
    41.9000      1770
    41.9200      1804
    41.9400      1700
    41.9600      1618
    41.9800      1470
    42.0000      1436
    42.0200      1260
    42.0400      1188
    42.0600      1078
    42.0800       972
    42.1000       922
    42.1200       778
    42.1400       716
    42.1600       682
    42.1800       714
    42.2000       580
    42.2200       608
    42.2400       512
    42.2600       552
    42.2800       554
    42.3000       550
    42.3200       518
    42.3400       488
    42.3600       458
    42.3800       474
    42.4000       516
    42.4200       438
    42.4400       470
    42.4600       490
    42.4800       478
    42.5000       494
    42.5200       414
    42.5400       438
    42.5600       420
    42.5800       464
    42.6000       434
    42.6200       412
    42.6400       412
    42.6600       420
    42.6800       444
    42.7000       422
    42.7200       406
    42.7400       452
    42.7600       420
    42.7800       436
    42.8000       484
    42.8200       444
    42.8400       480
    42.8600       460
    42.8800       550
    42.9000       562
    42.9200       588
    42.9400       548
    42.9600       598
    42.9800       680
    43.0000       716
    43.0200       828
    43.0400       866
    43.0600       986
    43.0800      1022
    43.1000      1184
    43.1200      1210
    43.1400      1388
    43.1600      1490
    43.1800      1622
    43.2000      1588
    43.2200      1496
    43.2400      1448
    43.2600      1480
    43.2800      1360
    43.3000      1292
    43.3200      1152
    43.3400      1116
    43.3600      1016
    43.3800       924
    43.4000       880
    43.4200       692
    43.4400       748
    43.4600       608
    43.4800       644
    43.5000       570
    43.5200       560
    43.5400       570
    43.5600       532
    43.5800       542
    43.6000       494
    43.6200       522
    43.6400       498
    43.6600       532
    43.6800       552
    43.7000       514
    43.7200       606
    43.7400       592
    43.7600       638
    43.7800       634
    43.8000       688
    43.8200       686
    43.8400       686
    43.8600       666
    43.8800       654
    43.9000       688
    43.9200       592
    43.9400       630
    43.9600       598
    43.9800       598
    44.0000       502
    44.0200       524
    44.0400       504
    44.0600       546
    44.0800       522
    44.1000       458
    44.1200       478
    44.1400       472
    44.1600       470
    44.1800       490
    44.2000       482
    44.2200       480
    44.2400       516
    44.2600       488
    44.2800       500
    44.3000       518
    44.3200       534
    44.3400       580
    44.3600       558
    44.3800       524
    44.4000       522
    44.4200       528
    44.4400       528
    44.4600       534
    44.4800       516
    44.5000       526
    44.5200       524
    44.5400       544
    44.5600       500
    44.5800       548
    44.6000       510
    44.6200       550
    44.6400       504
    44.6600       480
    44.6800       550
    44.7000       554
    44.7200       582
    44.7400       588
    44.7600       636
    44.7800       670
    44.8000       608
    44.8200       692
    44.8400       728
    44.8600       758
    44.8800       872
    44.9000       934
    44.9200       944
    44.9400      1018
    44.9600      1138
    44.9800      1190
    45.0000      1248
    45.0200      1336
    45.0400      1406
    45.0600      1526
    45.0800      1596
    45.1000      1668
    45.1200      1682
    45.1400      1768
    45.1600      1906
    45.1800      1928
    45.2000      2138
    45.2200      2242
    45.2400      2296
    45.2600      2294
    45.2800      2282
    45.3000      2290
    45.3200      2256
    45.3400      2050
    45.3600      2180
    45.3800      2134
    45.4000      2014
    45.4200      1948
    45.4400      1828
    45.4600      1772
    45.4800      1664
    45.5000      1546
    45.5200      1434
    45.5400      1364
    45.5600      1290
    45.5800      1220
    45.6000      1116
    45.6200      1064
    45.6400       978
    45.6600       916
    45.6800       878
    45.7000       822
    45.7200       762
    45.7400       770
    45.7600       698
    45.7800       736
    45.8000       692
    45.8200       644
    45.8400       632
    45.8600       664
    45.8800       614
    45.9000       638
    45.9200       652
    45.9400       664
    45.9600       608
    45.9800       614
    46.0000       636
    46.0200       656
    46.0400       598
    46.0600       640
    46.0800       676
    46.1000       660
    46.1200       672
    46.1400       698
    46.1600       716
    46.1800       744
    46.2000       730
    46.2200       812
    46.2400       894
    46.2600       936
    46.2800       940
    46.3000      1048
    46.3200      1040
    46.3400      1120
    46.3600      1258
    46.3800      1336
    46.4000      1442
    46.4200      1614
    46.4400      1822
    46.4600      1840
    46.4800      2096
    46.5000      2480
    46.5200      2662
    46.5400      3098
    46.5600      3580
    46.5800      3978
    46.6000      4490
    46.6200      5042
    46.6400      5634
    46.6600      6120
    46.6800      6322
    46.7000      6588
    46.7200      6570
    46.7400      6446
    46.7600      6326
    46.7800      5760
    46.8000      5494
    46.8200      5108
    46.8400      4554
    46.8600      4280
    46.8800      3800
    46.9000      3212
    46.9200      2932
    46.9400      2578
    46.9600      2182
    46.9800      1966
    47.0000      1722
    47.0200      1504
    47.0400      1402
    47.0600      1260
    47.0800      1238
    47.1000      1034
    47.1200      1000
    47.1400       952
    47.1600       866
    47.1800       790
    47.2000       782
    47.2200       728
    47.2400       666
    47.2600       684
    47.2800       672
    47.3000       644
    47.3200       650
    47.3400       602
    47.3600       584
    47.3800       582
    47.4000       564
    47.4200       514
    47.4400       538
    47.4600       532
    47.4800       554
    47.5000       532
    47.5200       548
    47.5400       544
    47.5600       508
    47.5800       544
    47.6000       514
    47.6200       530
    47.6400       528
    47.6600       534
    47.6800       574
    47.7000       594
    47.7200       576
    47.7400       700
    47.7600       688
    47.7800       688
    47.8000       740
    47.8200       760
    47.8400       782
    47.8600       738
    47.8800       740
    47.9000       758
    47.9200       722
    47.9400       688
    47.9600       720
    47.9800       702
    48.0000       690
    48.0200       664
    48.0400       698
    48.0600       728
    48.0800       680
    48.1000       736
    48.1200       744
    48.1400       764
    48.1600       838
    48.1800       784
    48.2000       844
    48.2200       810
    48.2400       822
    48.2600       808
    48.2800       812
    48.3000       840
    48.3200       782
    48.3400       748
    48.3600       764
    48.3800       736
    48.4000       796
    48.4200       728
    48.4400       760
    48.4600       806
    48.4800       760
    48.5000       740
    48.5200       760
    48.5400       812
    48.5600       796
    48.5800       872
    48.6000       790
    48.6200       844
    48.6400       850
    48.6600       874
    48.6800       820
    48.7000       826
    48.7200       774
    48.7400       816
    48.7600       756
    48.7800       742
    48.8000       674
    48.8200       738
    48.8400       664
    48.8600       682
    48.8800       596
    48.9000       622
    48.9200       538
    48.9400       570
    48.9600       540
    48.9800       504
    49.0000       464
    49.0200       460
    49.0400       432
    49.0600       442
    49.0800       454
    49.1000       394
    49.1200       430
    49.1400       398
    49.1600       392
    49.1800       366
    49.2000       392
    49.2200       364
    49.2400       354
    49.2600       380
    49.2800       344
    49.3000       370
    49.3200       378
    49.3400       346
    49.3600       364
    49.3800       352
    49.4000       358
    49.4200       366
    49.4400       350
    49.4600       344
    49.4800       376
    49.5000       354
    49.5200       362
    49.5400       390
    49.5600       340
    49.5800       362
    49.6000       392
    49.6200       396
    49.6400       376
    49.6600       392
    49.6800       354
    49.7000       372
    49.7200       390
    49.7400       384
    49.7600       380
    49.7800       370
    49.8000       406
    49.8200       464
    49.8400       412
    49.8600       402
    49.8800       420
    49.9000       412
    49.9200       422
    49.9400       468
    49.9600       512
    49.9800       544
    50.0000       504
    50.0200       572
    50.0400       562
    50.0600       622
    50.0800       662
    50.1000       722
    50.1200       776
    50.1400       716
    50.1600       782
    50.1800       820
    50.2000       886
    50.2200       980
    50.2400       974
    50.2600       982
    50.2800       994
    50.3000      1036
    50.3200      1074
    50.3400      1088
    50.3600      1162
    50.3800      1194
    50.4000      1092
    50.4200      1162
    50.4400      1134
    50.4600      1186
    50.4800      1130
    50.5000      1164
    50.5200      1134
    50.5400      1190
    50.5600      1144
    50.5800      1310
    50.6000      1300
    50.6200      1268
    50.6400      1324
    50.6600      1356
    50.6800      1472
    50.7000      1496
    50.7200      1690
    50.7400      1776
    50.7600      1928
    50.7800      2096
    50.8000      2266
    50.8200      2342
    50.8400      2362
    50.8600      2450
    50.8800      2368
    50.9000      2302
    50.9200      2208
    50.9400      2060
    50.9600      2110
    50.9800      1904
    51.0000      1836
    51.0200      1702
    51.0400      1566
    51.0600      1492
    51.0800      1270
    51.1000      1222
    51.1200      1106
    51.1400      1056
    51.1600       990
    51.1800      1020
    51.2000       974
    51.2200       936
    51.2400       920
    51.2600       898
    51.2800       854
    51.3000       854
    51.3200       898
    51.3400       862
    51.3600       862
    51.3800       830
    51.4000       916
    51.4200       924
    51.4400       900
    51.4600       856
    51.4800       816
    51.5000       890
    51.5200       842
    51.5400       868
    51.5600       806
    51.5800       828
    51.6000       834
    51.6200       822
    51.6400       870
    51.6600       890
    51.6800       850
    51.7000       920
    51.7200       984
    51.7400       984
    51.7600      1072
    51.7800      1184
    51.8000      1234
    51.8200      1278
    51.8400      1430
    51.8600      1444
    51.8800      1496
    51.9000      1524
    51.9200      1574
    51.9400      1654
    51.9600      1778
    51.9800      1878
    52.0000      1996
    52.0200      1986
    52.0400      2130
    52.0600      2290
    52.0800      2422
    52.1000      2344
    52.1200      2200
    52.1400      2222
    52.1600      1980
    52.1800      1826
    52.2000      1670
    52.2200      1724
    52.2400      1596
    52.2600      1588
    52.2800      1412
    52.3000      1290
    52.3200      1150
    52.3400      1144
    52.3600      1098
    52.3800      1076
    52.4000      1052
    52.4200      1058
    52.4400      1098
    52.4600      1168
    52.4800      1198
    52.5000      1302
    52.5200      1246
    52.5400      1330
    52.5600      1396
    52.5800      1444
    52.6000      1432
    52.6200      1390
    52.6400      1520
    52.6600      1518
    52.6800      1424
    52.7000      1384
    52.7200      1404
    52.7400      1404
    52.7600      1382
    52.7800      1320
    52.8000      1290
    52.8200      1178
    52.8400      1086
    52.8600      1128
    52.8800      1050
    52.9000      1018
    52.9200      1012
    52.9400       880
    52.9600       918
    52.9800       824
    53.0000       864
    53.0200       864
    53.0400       878
    53.0600       936
    53.0800       926
    53.1000       912
    53.1200      1054
    53.1400      1002
    53.1600      1148
    53.1800      1224
    53.2000      1330
    53.2200      1440
    53.2400      1448
    53.2600      1550
    53.2800      1508
    53.3000      1482
    53.3200      1402
    53.3400      1376
    53.3600      1346
    53.3800      1232
    53.4000      1182
    53.4200      1066
    53.4400      1060
    53.4600      1000
    53.4800       916
    53.5000       834
    53.5200       792
    53.5400       784
    53.5600       756
    53.5800       666
    53.6000       634
    53.6200       596
    53.6400       604
    53.6600       586
    53.6800       642
    53.7000       576
    53.7200       542
    53.7400       516
    53.7600       564
    53.7800       604
    53.8000       566
    53.8200       558
    53.8400       610
    53.8600       544
    53.8800       550
    53.9000       516
    53.9200       548
    53.9400       524
    53.9600       522
    53.9800       510
    54.0000       546
    54.0200       498
    54.0400       578
    54.0600       512
    54.0800       520
    54.1000       528
    54.1200       504
    54.1400       562
    54.1600       538
    54.1800       562
    54.2000       570
    54.2200       624
    54.2400       658
    54.2600       664
    54.2800       712
    54.3000       712
    54.3200       726
    54.3400       742
    54.3600       736
    54.3800       754
    54.4000       730
    54.4200       728
    54.4400       818
    54.4600       814
    54.4800       868
    54.5000       862
    54.5200       926
    54.5400       900
    54.5600      1018
    54.5800       998
    54.6000      1068
    54.6200      1062
    54.6400      1050
    54.6600      1076
    54.6800      1046
    54.7000      1030
    54.7200      1072
    54.7400      1100
    54.7600      1068
    54.7800       984
    54.8000       992
    54.8200       940
    54.8400       956
    54.8600       876
    54.8800       886
    54.9000       820
    54.9200       786
    54.9400       766
    54.9600       780
    54.9800       784
    55.0000       762
    55.0200       792
    55.0400       724
    55.0600       734
    55.0800       742
    55.1000       778
    55.1200       752
    55.1400       728
    55.1600       790
    55.1800       802
    55.2000       788
    55.2200       838
    55.2400       742
    55.2600       806
    55.2800       822
    55.3000       802
    55.3200       760
    55.3400       740
    55.3600       708
    55.3800       742
    55.4000       718
    55.4200       712
    55.4400       672
    55.4600       674
    55.4800       648
    55.5000       640
    55.5200       650
    55.5400       650
    55.5600       636
    55.5800       558
    55.6000       552
    55.6200       506
    55.6400       524
    55.6600       518
    55.6800       518
    55.7000       462
    55.7200       440
    55.7400       414
    55.7600       486
    55.7800       454
    55.8000       406
    55.8200       436
    55.8400       408
    55.8600       396
    55.8800       364
    55.9000       392
    55.9200       406
    55.9400       378
    55.9600       384
    55.9800       368
    56.0000       388
    56.0200       400
    56.0400       358
    56.0600       364
    56.0800       368
    56.1000       368
    56.1200       346
    56.1400       368
    56.1600       334
    56.1800       376
    56.2000       388
    56.2200       330
    56.2400       388
    56.2600       376
    56.2800       358
    56.3000       406
    56.3200       346
    56.3400       358
    56.3600       344
    56.3800       380
    56.4000       360
    56.4200       372
    56.4400       368
    56.4600       388
    56.4800       398
    56.5000       396
    56.5200       386
    56.5400       392
    56.5600       382
    56.5800       368
    56.6000       418
    56.6200       408
    56.6400       498
    56.6600       494
    56.6800       518
    56.7000       520
    56.7200       510
    56.7400       576
    56.7600       596
    56.7800       580
    56.8000       678
    56.8200       720
    56.8400       716
    56.8600       776
    56.8800       740
    56.9000       808
    56.9200       784
    56.9400       788
    56.9600       760
    56.9800       728
    57.0000       720
    57.0200       742
    57.0400       750
    57.0600       690
    57.0800       696
    57.1000       742
    57.1200       736
    57.1400       746
    57.1600       708
    57.1800       822
    57.2000       864
    57.2200       824
    57.2400       926
    57.2600      1040
    57.2800      1112
    57.3000      1144
    57.3200      1260
    57.3400      1308
    57.3600      1328
    57.3800      1392
    57.4000      1280
    57.4200      1386
    57.4400      1402
    57.4600      1350
    57.4800      1342
    57.5000      1280
    57.5200      1334
    57.5400      1288
    57.5600      1248
    57.5800      1296
    57.6000      1276
    57.6200      1266
    57.6400      1280
    57.6600      1272
    57.6800      1346
    57.7000      1428
    57.7200      1384
    57.7400      1472
    57.7600      1484
    57.7800      1334
    57.8000      1412
    57.8200      1342
    57.8400      1232
    57.8600      1182
    57.8800      1134
    57.9000      1104
    57.9200      1098
    57.9400       986
    57.9600       996
    57.9800       850
    58.0000       858
    58.0200       774
    58.0400       794
    58.0600       756
    58.0800       752
    58.1000       746
    58.1200       756
    58.1400       760
    58.1600       750
    58.1800       808
    58.2000       850
    58.2200       816
    58.2400       900
    58.2600       904
    58.2800       938
    58.3000       956
    58.3200      1024
    58.3400      1144
    58.3600      1138
    58.3800      1226
    58.4000      1270
    58.4200      1368
    58.4400      1466
    58.4600      1554
    58.4800      1624
    58.5000      1774
    58.5200      1810
    58.5400      1814
    58.5600      1998
    58.5800      1976
    58.6000      2084
    58.6200      2204
    58.6400      2330
    58.6600      2462
    58.6800      2454
    58.7000      2518
    58.7200      2670
    58.7400      2612
    58.7600      2604
    58.7800      2628
    58.8000      2462
    58.8200      2444
    58.8400      2472
    58.8600      2302
    58.8800      2280
    58.9000      2010
    58.9200      1950
    58.9400      1872
    58.9600      1742
    58.9800      1624
    59.0000      1398
    59.0200      1516
    59.0400      1344
    59.0600      1290
    59.0800      1260
    59.1000      1178
    59.1200      1162
    59.1400      1136
    59.1600      1136
    59.1800      1076
    59.2000      1084
    59.2200      1066
    59.2400      1210
    59.2600      1216
    59.2800      1206
    59.3000      1316
    59.3200      1474
    59.3400      1446
    59.3600      1606
    59.3800      1702
    59.4000      1806
    59.4200      1858
    59.4400      1764
    59.4600      1912
    59.4800      1868
    59.5000      1724
    59.5200      1650
    59.5400      1608
    59.5600      1646
    59.5800      1504
    59.6000      1582
    59.6200      1534
    59.6400      1394
    59.6600      1298
    59.6800      1198
    59.7000      1146
    59.7200      1164
    59.7400       988
    59.7600       994
    59.7800       938
    59.8000       966
    59.8200       870
    59.8400       882
    59.8600       810
    59.8800       808
    59.9000       802
    59.9200       770
    59.9400       782
    59.9600       678
    59.9800       732
    60.0000       684
    60.0200       694
    60.0400       680
    60.0600       628
    60.0800       632
    60.1000       570
    60.1200       580
    60.1400       562
    60.1600       520
    60.1800       482
    60.2000       550
    60.2200       540
    60.2400       556
    60.2600       518
    60.2800       452
    60.3000       466
    60.3200       476
    60.3400       456
    60.3600       474
    60.3800       466
    60.4000       450
    60.4200       448
    60.4400       414
    60.4600       440
    60.4800       414
    60.5000       436
    60.5200       404
    60.5400       424
    60.5600       482
    60.5800       422
    60.6000       434
    60.6200       390
    60.6400       406
    60.6600       420
    60.6800       442
    60.7000       434
    60.7200       422
    60.7400       438
    60.7600       444
    60.7800       456
    60.8000       454
    60.8200       456
    60.8400       456
    60.8600       466
    60.8800       490
    60.9000       476
    60.9200       488
    60.9400       488
    60.9600       512
    60.9800       530
    61.0000       546
    61.0200       534
    61.0400       592
    61.0600       606
    61.0800       636
    61.1000       648
    61.1200       620
    61.1400       620
    61.1600       634
    61.1800       636
    61.2000       708
    61.2200       650
    61.2400       710
    61.2600       714
    61.2800       734
    61.3000       770
    61.3200       754
    61.3400       732
    61.3600       816
    61.3800       852
    61.4000       816
    61.4200       844
    61.4400       864
    61.4600       922
    61.4800       948
    61.5000      1104
    61.5200      1084
    61.5400      1146
    61.5600      1120
    61.5800      1218
    61.6000      1350
    61.6200      1326
    61.6400      1414
    61.6600      1384
    61.6800      1504
    61.7000      1542
    61.7200      1476
    61.7400      1558
    61.7600      1432
    61.7800      1382
    61.8000      1324
    61.8200      1254
    61.8400      1276
    61.8600      1202
    61.8800      1152
    61.9000      1158
    61.9200      1050
    61.9400      1076
    61.9600       976
    61.9800       904
    62.0000       914
    62.0200       812
    62.0400       818
    62.0600       772
    62.0800       724
    62.1000       766
    62.1200       708
    62.1400       706
    62.1600       670
    62.1800       660
    62.2000       646
    62.2200       616
    62.2400       564
    62.2600       600
    62.2800       570
    62.3000       590
    62.3200       538
    62.3400       550
    62.3600       564
    62.3800       540
    62.4000       518
    62.4200       494
    62.4400       480
    62.4600       450
    62.4800       470
    62.5000       438
    62.5200       446
    62.5400       434
    62.5600       432
    62.5800       444
    62.6000       434
    62.6200       396
    62.6400       406
    62.6600       424
    62.6800       426
    62.7000       406
    62.7200       366
    62.7400       408
    62.7600       388
    62.7800       374
    62.8000       362
    62.8200       380
    62.8400       370
    62.8600       374
    62.8800       340
    62.9000       362
    62.9200       316
    62.9400       344
    62.9600       334
    62.9800       344
    63.0000       350
    63.0200       312
    63.0400       336
    63.0600       374
    63.0800       304
    63.1000       306
    63.1200       338
    63.1400       318
    63.1600       342
    63.1800       298
    63.2000       294
    63.2200       306
    63.2400       306
    63.2600       310
    63.2800       310
    63.3000       308
    63.3200       280
    63.3400       302
    63.3600       292
    63.3800       316
    63.4000       310
    63.4200       310
    63.4400       316
    63.4600       296
    63.4800       358
    63.5000       328
    63.5200       338
    63.5400       392
    63.5600       390
    63.5800       396
    63.6000       394
    63.6200       404
    63.6400       410
    63.6600       446
    63.6800       462
    63.7000       488
    63.7200       520
    63.7400       524
    63.7600       526
    63.7800       564
    63.8000       584
    63.8200       672
    63.8400       712
    63.8600       686
    63.8800       754
    63.9000       818
    63.9200       824
    63.9400       856
    63.9600       836
    63.9800       828
    64.0000       852
    64.0200       776
    64.0400       766
    64.0600       736
    64.0800       686
    64.1000       654
    64.1200       640
    64.1400       648
    64.1600       576
    64.1800       626
    64.2000       596
    64.2200       512
    64.2400       516
    64.2600       510
    64.2800       418
    64.3000       444
    64.3200       400
    64.3400       384
    64.3600       358
    64.3800       348
    64.4000       370
    64.4200       364
    64.4400       338
    64.4600       340
    64.4800       298
    64.5000       316
    64.5200       296
    64.5400       308
    64.5600       284
    64.5800       280
    64.6000       284
    64.6200       286
    64.6400       284
    64.6600       270
    64.6800       264
    64.7000       276
    64.7200       268
    64.7400       262
    64.7600       260
    64.7800       254
    64.8000       264
    64.8200       296
    64.8400       256
    64.8600       294
    64.8800       290
    64.9000       298
    64.9200       320
    64.9400       268
    64.9600       294
    64.9800       304
    65.0000       306
    65.0200       312
    65.0400       308
    65.0600       342
    65.0800       342
    65.1000       350
    65.1200       342
    65.1400       372
    65.1600       378
    65.1800       404
    65.2000       404
    65.2200       444
    65.2400       446
    65.2600       456
    65.2800       458
    65.3000       462
    65.3200       442
    65.3400       442
    65.3600       434
    65.3800       440
    65.4000       466
    65.4200       420
    65.4400       418
    65.4600       442
    65.4800       406
    65.5000       412
    65.5200       426
    65.5400       386
    65.5600       362
    65.5800       384
    65.6000       372
    65.6200       352
    65.6400       416
    65.6600       384
    65.6800       370
    65.7000       384
    65.7200       356
    65.7400       354
    65.7600       358
    65.7800       324
    65.8000       340
    65.8200       312
    65.8400       324
    65.8600       330
    65.8800       330
    65.9000       334
    65.9200       318
    65.9400       308
    65.9600       322
    65.9800       312
    66.0000       288
    66.0200       268
    66.0400       288
    66.0600       286
    66.0800       272
    66.1000       296
    66.1200       282
    66.1400       268
    66.1600       274
    66.1800       270
    66.2000       284
    66.2200       256
    66.2400       290
    66.2600       262
    66.2800       278
    66.3000       304
    66.3200       268
    66.3400       292
    66.3600       272
    66.3800       302
    66.4000       296
    66.4200       290
    66.4400       318
    66.4600       302
    66.4800       306
    66.5000       358
    66.5200       344
    66.5400       382
    66.5600       358
    66.5800       382
    66.6000       366
    66.6200       430
    66.6400       396
    66.6600       410
    66.6800       392
    66.7000       428
    66.7200       498
    66.7400       472
    66.7600       532
    66.7800       554
    66.8000       520
    66.8200       596
    66.8400       624
    66.8600       640
    66.8800       674
    66.9000       680
    66.9200       682
    66.9400       648
    66.9600       738
    66.9800       686
    67.0000       728
    67.0200       744
    67.0400       666
    67.0600       664
    67.0800       642
    67.1000       656
    67.1200       650
    67.1400       582
    67.1600       584
    67.1800       570
    67.2000       590
    67.2200       532
    67.2400       502
    67.2600       500
    67.2800       502
    67.3000       460
    67.3200       416
    67.3400       454
    67.3600       436
    67.3800       390
    67.4000       380
    67.4200       392
    67.4400       386
    67.4600       360
    67.4800       404
    67.5000       380
    67.5200       354
    67.5400       342
    67.5600       344
    67.5800       332
    67.6000       332
    67.6200       348
    67.6400       326
    67.6600       366
    67.6800       366
    67.7000       366
    67.7200       406
    67.7400       400
    67.7600       402
    67.7800       394
    67.8000       386
    67.8200       384
    67.8400       452
    67.8600       468
    67.8800       502
    67.9000       460
    67.9200       530
    67.9400       524
    67.9600       560
    67.9800       616
    68.0000       680
    68.0200       708
    68.0400       816
    68.0600       816
    68.0800       894
    68.1000       898
    68.1200       948
    68.1400       952
    68.1600       914
    68.1800      1002
    68.2000       950
    68.2200       954
    68.2400       952
    68.2600       972
    68.2800       946
    68.3000       958
    68.3200       886
    68.3400       850
    68.3600       856
    68.3800       802
    68.4000       804
    68.4200       734
    68.4400       776
    68.4600       626
    68.4800       648
    68.5000       648
    68.5200       570
    68.5400       534
    68.5600       532
    68.5800       500
    68.6000       490
    68.6200       506
    68.6400       506
    68.6600       448
    68.6800       456
    68.7000       486
    68.7200       458
    68.7400       448
    68.7600       436
    68.7800       454
    68.8000       410
    68.8200       422
    68.8400       422
    68.8600       394
    68.8800       400
    68.9000       384
    68.9200       440
    68.9400       376
    68.9600       382
    68.9800       402
    69.0000       390
    69.0200       380
    69.0400       366
    69.0600       374
    69.0800       374
    69.1000       372
    69.1200       424
    69.1400       406
    69.1600       420
    69.1800       412
    69.2000       422
    69.2200       452
    69.2400       472
    69.2600       480
    69.2800       502
    69.3000       546
    69.3200       544
    69.3400       522
    69.3600       554
    69.3800       570
    69.4000       594
    69.4200       564
    69.4400       548
    69.4600       530
    69.4800       554
    69.5000       564
    69.5200       532
    69.5400       520
    69.5600       470
    69.5800       526
    69.6000       464
    69.6200       440
    69.6400       450
    69.6600       452
    69.6800       428
    69.7000       444
    69.7200       432
    69.7400       436
    69.7600       388
    69.7800       400
    69.8000       402
    69.8200       394
    69.8400       402
    69.8600       442
    69.8800       422
    69.9000       450
    69.9200       450
    69.9400       440
    69.9600       436
    69.9800       448
    70.0000       466
    70.0200       464
    70.0400       448
    70.0600       412
    70.0800       340
    70.1000       396
    70.1200       366
    70.1400       364
    70.1600       388
    70.1800       382
    70.2000       370
    70.2200       362
    70.2400       318
    70.2600       350
    70.2800       334
    70.3000       312
    70.3200       338
    70.3400       302
    70.3600       280
    70.3800       250
    70.4000       280
    70.4200       276
    70.4400       296
    70.4600       292
    70.4800       286
    70.5000       280
    70.5200       316
    70.5400       288
    70.5600       292
    70.5800       290
    70.6000       282
    70.6200       268
    70.6400       266
    70.6600       252
    70.6800       274
    70.7000       262
    70.7200       282
    70.7400       264
    70.7600       260
    70.7800       278
    70.8000       262
    70.8200       238
    70.8400       218
    70.8600       284
    70.8800       260
    70.9000       286
    70.9200       248
    70.9400       246
    70.9600       218
    70.9800       266
    71.0000       258
    71.0200       244
    71.0400       268
    71.0600       250
    71.0800       238
    71.1000       270
    71.1200       280
    71.1400       278
    71.1600       296
    71.1800       284
    71.2000       288
    71.2200       286
    71.2400       302
    71.2600       324
    71.2800       342
    71.3000       384
    71.3200       386
    71.3400       410
    71.3600       398
    71.3800       416
    71.4000       460
    71.4200       476
    71.4400       478
    71.4600       552
    71.4800       514
    71.5000       514
    71.5200       524
    71.5400       602
    71.5600       586
    71.5800       608
    71.6000       576
    71.6200       560
    71.6400       546
    71.6600       544
    71.6800       556
    71.7000       550
    71.7200       512
    71.7400       540
    71.7600       540
    71.7800       506
    71.8000       542
    71.8200       488
    71.8400       476
    71.8600       470
    71.8800       456
    71.9000       454
    71.9200       480
    71.9400       440
    71.9600       464
    71.9800       478
    72.0000       458
    72.0200       440
    72.0400       450
    72.0600       432
    72.0800       390
    72.1000       456
    72.1200       456
    72.1400       446
    72.1600       452
    72.1800       424
    72.2000       414
    72.2200       504
    72.2400       500
    72.2600       498
    72.2800       508
    72.3000       484
    72.3200       512
    72.3400       502
    72.3600       528
    72.3800       530
    72.4000       474
    72.4200       476
    72.4400       486
    72.4600       538
    72.4800       506
    72.5000       518
    72.5200       548
    72.5400       554
    72.5600       518
    72.5800       610
    72.6000       566
    72.6200       616
    72.6400       612
    72.6600       602
    72.6800       638
    72.7000       592
    72.7200       624
    72.7400       632
    72.7600       600
    72.7800       574
    72.8000       578
    72.8200       552
    72.8400       564
    72.8600       526
    72.8800       504
    72.9000       538
    72.9200       522
    72.9400       490
    72.9600       516
    72.9800       502
    73.0000       470
    73.0200       432
    73.0400       450
    73.0600       428
    73.0800       460
    73.1000       436
    73.1200       408
    73.1400       446
    73.1600       384
    73.1800       426
    73.2000       384
    73.2200       392
    73.2400       364
    73.2600       350
    73.2800       336
    73.3000       328
    73.3200       360
    73.3400       294
    73.3600       338
    73.3800       298
    73.4000       298
    73.4200       328
    73.4400       300
    73.4600       308
    73.4800       290
    73.5000       290
    73.5200       252
    73.5400       278
    73.5600       266
    73.5800       244
    73.6000       266
    73.6200       308
    73.6400       286
    73.6600       284
    73.6800       292
    73.7000       282
    73.7200       262
    73.7400       282
    73.7600       266
    73.7800       264
    73.8000       276
    73.8200       240
    73.8400       266
    73.8600       260
    73.8800       272
    73.9000       242
    73.9200       232
    73.9400       308
    73.9600       270
    73.9800       282
    74.0000       266
    74.0200       244
    74.0400       282
    74.0600       302
    74.0800       292
    74.1000       312
    74.1200       274
    74.1400       290
    74.1600       272
    74.1800       316
    74.2000       264
    74.2200       300
    74.2400       290
    74.2600       264
    74.2800       260
    74.3000       286
    74.3200       280
    74.3400       272
    74.3600       252
    74.3800       268
    74.4000       248
    74.4200       252
    74.4400       232
    74.4600       238
    74.4800       234
    74.5000       250
    74.5200       218
    74.5400       232
    74.5600       230
    74.5800       218
    74.6000       224
    74.6200       232
    74.6400       202
    74.6600       226
    74.6800       230
    74.7000       216
    74.7200       216
    74.7400       206
    74.7600       214
    74.7800       178
    74.8000       218
    74.8200       228
    74.8400       200
    74.8600       196
    74.8800       236
    74.9000       210
    74.9200       212
    74.9400       214
    74.9600       238
    74.9800       200
    75.0000       214
    75.0200       194
    75.0400       228
    75.0600       216
    75.0800       218
    75.1000       214
    75.1200       232
    75.1400       212
    75.1600       238
    75.1800       210
    75.2000       230
    75.2200       230
    75.2400       242
    75.2600       230
    75.2800       266
    75.3000       258
    75.3200       248
    75.3400       240
    75.3600       226
    75.3800       238
    75.4000       252
    75.4200       242
    75.4400       252
    75.4600       256
    75.4800       270
    75.5000       278
    75.5200       256
    75.5400       274
    75.5600       258
    75.5800       278
    75.6000       270
    75.6200       262
    75.6400       262
    75.6600       266
    75.6800       246
    75.7000       286
    75.7200       312
    75.7400       292
    75.7600       282
    75.7800       292
    75.8000       308
    75.8200       296
    75.8400       282
    75.8600       288
    75.8800       266
    75.9000       290
    75.9200       304
    75.9400       260
    75.9600       244
    75.9800       272
    76.0000       268
    76.0200       298
    76.0400       270
    76.0600       272
    76.0800       264
    76.1000       286
    76.1200       272
    76.1400       276
    76.1600       274
    76.1800       296
    76.2000       316
    76.2200       270
    76.2400       278
    76.2600       294
    76.2800       322
    76.3000       320
    76.3200       320
    76.3400       338
    76.3600       304
    76.3800       342
    76.4000       350
    76.4200       294
    76.4400       310
    76.4600       332
    76.4800       314
    76.5000       350
    76.5200       362
    76.5400       386
    76.5600       368
    76.5800       390
    76.6000       422
    76.6200       416
    76.6400       454
    76.6600       426
    76.6800       408
    76.7000       440
    76.7200       396
    76.7400       432
    76.7600       440
    76.7800       462
    76.8000       428
    76.8200       402
    76.8400       444
    76.8600       436
    76.8800       420
    76.9000       374
    76.9200       410
    76.9400       370
    76.9600       376
    76.9800       368
    77.0000       366
    77.0200       374
    77.0400       380
    77.0600       426
    77.0800       356
    77.1000       400
    77.1200       352
    77.1400       388
    77.1600       384
    77.1800       404
    77.2000       358
    77.2200       392
    77.2400       414
    77.2600       432
    77.2800       450
    77.3000       412
    77.3200       472
    77.3400       456
    77.3600       480
    77.3800       480
    77.4000       540
    77.4200       522
    77.4400       550
    77.4600       598
    77.4800       590
    77.5000       614
    77.5200       648
    77.5400       698
    77.5600       702
    77.5800       748
    77.6000       748
    77.6200       770
    77.6400       734
    77.6600       720
    77.6800       740
    77.7000       718
    77.7200       752
    77.7400       724
    77.7600       696
    77.7800       676
    77.8000       630
    77.8200       686
    77.8400       628
    77.8600       648
    77.8800       598
    77.9000       566
    77.9200       566
    77.9400       538
    77.9600       470
    77.9800       516
    78.0000       466
    78.0200       490
    78.0400       450
    78.0600       428
    78.0800       378
    78.1000       424
    78.1200       372
    78.1400       400
    78.1600       386
    78.1800       362
    78.2000       408
    78.2200       356
    78.2400       350
    78.2600       366
    78.2800       364
    78.3000       368
    78.3200       360
    78.3400       358
    78.3600       352
    78.3800       402
    78.4000       386
    78.4200       354
    78.4400       394
    78.4600       368
    78.4800       352
    78.5000       370
    78.5200       404
    78.5400       424
    78.5600       398
    78.5800       374
    78.6000       428
    78.6200       470
    78.6400       420
    78.6600       444
    78.6800       414
    78.7000       444
    78.7200       456
    78.7400       470
    78.7600       478
    78.7800       424
    78.8000       442
    78.8200       408
    78.8400       410
    78.8600       412
    78.8800       384
    78.9000       398
    78.9200       380
    78.9400       374
    78.9600       352
    78.9800       350
    79.0000       346
    79.0200       324
    79.0400       284
    79.0600       300
    79.0800       350
    79.1000       322
    79.1200       344
    79.1400       286
    79.1600       288
    79.1800       310
    79.2000       278
    79.2200       282
    79.2400       278
    79.2600       286
    79.2800       266
    79.3000       294
    79.3200       292
    79.3400       246
    79.3600       256
    79.3800       340
    79.4000       254
    79.4200       278
    79.4400       270
    79.4600       268
    79.4800       280
    79.5000       294
    79.5200       282
    79.5400       258
    79.5600       270
    79.5800       278
    79.6000       268
    79.6200       290
    79.6400       246
    79.6600       266
    79.6800       290
    79.7000       280
    79.7200       276
    79.7400       290
    79.7600       250
    79.7800       292
    79.8000       278
    79.8200       256
    79.8400       262
    79.8600       266
    79.8800       260
    79.9000       288
    79.9200       254
    79.9400       276
    79.9600       248
    79.9800       252
    80.0000       266
    80.0200       262
    80.0400       274
    80.0600       270
    80.0800       238
    80.1000       262
    80.1200       290
    80.1400       264
    80.1600       242
    80.1800       268
    80.2000       250
    80.2200       276
    80.2400       252
    80.2600       306
    80.2800       250
    80.3000       276
    80.3200       258
    80.3400       276
    80.3600       260
    80.3800       254
    80.4000       290
    80.4200       250
    80.4400       308
    80.4600       284
    80.4800       248
    80.5000       276
    80.5200       272
    80.5400       248
    80.5600       278
    80.5800       278
    80.6000       252
    80.6200       264
    80.6400       284
    80.6600       244
    80.6800       238
    80.7000       240
    80.7200       240
    80.7400       278
    80.7600       238
    80.7800       248
    80.8000       230
    80.8200       258
    80.8400       238
    80.8600       230
    80.8800       272
    80.9000       234
    80.9200       196
    80.9400       248
    80.9600       248
    80.9800       234
    81.0000       222
    81.0200       248
    81.0400       244
    81.0600       238
    81.0800       230
    81.1000       258
    81.1200       246
    81.1400       282
    81.1600       272
    81.1800       258
    81.2000       262
    81.2200       294
    81.2400       258
    81.2600       272
    81.2800       300
    81.3000       264
    81.3200       260
    81.3400       262
    81.3600       262
    81.3800       272
    81.4000       228
    81.4200       282
    81.4400       292
    81.4600       276
    81.4800       240
    81.5000       316
    81.5200       286
    81.5400       280
    81.5600       278
    81.5800       284
    81.6000       250
    81.6200       266
    81.6400       268
    81.6600       248
    81.6800       276
    81.7000       288
    81.7200       308
    81.7400       260
    81.7600       286
    81.7800       288
    81.8000       288
    81.8200       276
    81.8400       282
    81.8600       284
    81.8800       314
    81.9000       284
    81.9200       324
    81.9400       304
    81.9600       336
    81.9800       356
    82.0000       316
    82.0200       356
    82.0400       330
    82.0600       350
    82.0800       312
    82.1000       382
    82.1200       348
    82.1400       382
    82.1600       400
    82.1800       372
    82.2000       384
    82.2200       388
    82.2400       370
    82.2600       422
    82.2800       404
    82.3000       416
    82.3200       420
    82.3400       430
    82.3600       446
    82.3800       430
    82.4000       426
    82.4200       434
    82.4400       452
    82.4600       426
    82.4800       454
    82.5000       494
    82.5200       484
    82.5400       512
    82.5600       474
    82.5800       516
    82.6000       528
    82.6200       492
    82.6400       506
    82.6600       566
    82.6800       528
    82.7000       520
    82.7200       584
    82.7400       582
    82.7600       588
    82.7800       666
    82.8000       642
    82.8200       684
    82.8400       728
    82.8600       706
    82.8800       722
    82.9000       738
    82.9200       832
    82.9400       798
    82.9600       810
    82.9800       808
    83.0000       774
    83.0200       776
    83.0400       744
    83.0600       770
    83.0800       724
    83.1000       712
    83.1200       718
    83.1400       660
    83.1600       692
    83.1800       672
    83.2000       662
    83.2200       642
    83.2400       636
    83.2600       642
    83.2800       584
    83.3000       564
    83.3200       584
    83.3400       514
    83.3600       536
    83.3800       540
    83.4000       548
    83.4200       538
    83.4400       444
    83.4600       454
    83.4800       480
    83.5000       412
    83.5200       404
    83.5400       418
    83.5600       396
    83.5800       404
    83.6000       342
    83.6200       394
    83.6400       374
    83.6600       394
    83.6800       350
    83.7000       364
    83.7200       346
    83.7400       396
    83.7600       334
    83.7800       334
    83.8000       358
    83.8200       362
    83.8400       326
    83.8600       334
    83.8800       322
    83.9000       340
    83.9200       370
    83.9400       340
    83.9600       340
    83.9800       302
    84.0000       360
    84.0200       304
    84.0400       340
    84.0600       344
    84.0800       340
    84.1000       342
    84.1200       324
    84.1400       336
    84.1600       310
    84.1800       302
    84.2000       316
    84.2200       318
    84.2400       346
    84.2600       276
    84.2800       312
    84.3000       288
    84.3200       300
    84.3400       316
    84.3600       324
    84.3800       300
    84.4000       310
    84.4200       324
    84.4400       320
    84.4600       306
    84.4800       294
    84.5000       314
    84.5200       326
    84.5400       294
    84.5600       272
    84.5800       306
    84.6000       296
    84.6200       268
    84.6400       292
    84.6600       302
    84.6800       308
    84.7000       296
    84.7200       278
    84.7400       300
    84.7600       274
    84.7800       290
    84.8000       336
    84.8200       298
    84.8400       300
    84.8600       274
    84.8800       308
    84.9000       284
    84.9200       268
    84.9400       286
    84.9600       280
    84.9800       292
    85.0000       278
    85.0200       290
    85.0400       298
    85.0600       248
    85.0800       300
    85.1000       262
    85.1200       262
    85.1400       272
    85.1600       264
    85.1800       284
    85.2000       290
    85.2200       298
    85.2400       282
    85.2600       286
    85.2800       298
    85.3000       300
    85.3200       268
    85.3400       290
    85.3600       306
    85.3800       322
    85.4000       298
    85.4200       280
    85.4400       294
    85.4600       314
    85.4800       312
    85.5000       292
    85.5200       280
    85.5400       302
    85.5600       326
    85.5800       284
    85.6000       310
    85.6200       266
    85.6400       306
    85.6600       284
    85.6800       266
    85.7000       300
    85.7200       300
    85.7400       288
    85.7600       312
    85.7800       262
    85.8000       264
    85.8200       282
    85.8400       316
    85.8600       274
    85.8800       232
    85.9000       278
    85.9200       234
    85.9400       270
    85.9600       278
    85.9800       262
    86.0000       272
    86.0200       244
    86.0400       258
    86.0600       244
    86.0800       234
    86.1000       234
    86.1200       234
    86.1400       244
    86.1600       248
    86.1800       244
    86.2000       246
    86.2200       252
    86.2400       252
    86.2600       238
    86.2800       258
    86.3000       248
    86.3200       290
    86.3400       246
    86.3600       260
    86.3800       276
    86.4000       262
    86.4200       230
    86.4400       266
    86.4600       258
    86.4800       268
    86.5000       266
    86.5200       270
    86.5400       294
    86.5600       274
    86.5800       284
    86.6000       268
    86.6200       266
    86.6400       264
    86.6600       276
    86.6800       304
    86.7000       314
    86.7200       314
    86.7400       320
    86.7600       326
    86.7800       322
    86.8000       336
    86.8200       314
    86.8400       354
    86.8600       370
    86.8800       366
    86.9000       394
    86.9200       402
    86.9400       410
    86.9600       406
    86.9800       396
    87.0000       414
    87.0200       404
    87.0400       384
    87.0600       398
    87.0800       372
    87.1000       382
    87.1200       392
    87.1400       426
    87.1600       410
    87.1800       342
    87.2000       340
    87.2200       396
    87.2400       382
    87.2600       354
    87.2800       354
    87.3000       372
    87.3200       374
    87.3400       334
    87.3600       346
    87.3800       352
    87.4000       318
    87.4200       342
    87.4400       316
    87.4600       344
    87.4800       322
    87.5000       282
    87.5200       356
    87.5400       320
    87.5600       316
    87.5800       348
    87.6000       304
    87.6200       332
    87.6400       354
    87.6600       336
    87.6800       296
    87.7000       332
    87.7200       348
    87.7400       380
    87.7600       412
    87.7800       396
    87.8000       416
    87.8200       398
    87.8400       384
    87.8600       408
    87.8800       442
    87.9000       480
    87.9200       416
    87.9400       416
    87.9600       470
    87.9800       454
    88.0000       500
    88.0200       428
    88.0400       468
    88.0600       410
    88.0800       412
    88.1000       412
    88.1200       402
    88.1400       420
    88.1600       442
    88.1800       466
    88.2000       408
    88.2200       410
    88.2400       420
    88.2600       418
    88.2800       384
    88.3000       346
    88.3200       402
    88.3400       386
    88.3600       386
    88.3800       362
    88.4000       376
    88.4200       382
    88.4400       354
    88.4600       358
    88.4800       372
    88.5000       380
    88.5200       332
    88.5400       384
    88.5600       318
    88.5800       350
    88.6000       334
    88.6200       318
    88.6400       354
    88.6600       360
    88.6800       314
    88.7000       340
    88.7200       320
    88.7400       356
    88.7600       308
    88.7800       306
    88.8000       330
    88.8200       288
    88.8400       308
    88.8600       306
    88.8800       270
    88.9000       328
    88.9200       296
    88.9400       294
    88.9600       342
    88.9800       300
    89.0000       282
    89.0200       266
    89.0400       272
    89.0600       286
    89.0800       256
    89.1000       232
    89.1200       234
    89.1400       264
    89.1600       272
    89.1800       270
    89.2000       254
    89.2200       264
    89.2400       244
    89.2600       254
    89.2800       260
    89.3000       266
    89.3200       284
    89.3400       254
    89.3600       260
    89.3800       264
    89.4000       284
    89.4200       258
    89.4400       292
    89.4600       290
    89.4800       278
    89.5000       280
    89.5200       270
    89.5400       276
    89.5600       310
    89.5800       308
    89.6000       314
    89.6200       260
    89.6400       286
    89.6600       264
    89.6800       320
    89.7000       298
    89.7200       288
    89.7400       250
    89.7600       298
    89.7800       320
    89.8000       298
    89.8200       306
    89.8400       316
    89.8600       302
    89.8800       338
    89.9000       306
    89.9200       336
    89.9400       318
    89.9600       326
    89.9800       326
    90.0000       330
