    10.0000       340
    10.0200       392
    10.0400       382
    10.0600       376
    10.0800       404
    10.1000       364
    10.1200       366
    10.1400       372
    10.1600       354
    10.1800       338
    10.2000       422
    10.2200       346
    10.2400       346
    10.2600       356
    10.2800       364
    10.3000       392
    10.3200       362
    10.3400       360
    10.3600       348
    10.3800       358
    10.4000       356
    10.4200       324
    10.4400       334
    10.4600       380
    10.4800       372
    10.5000       330
    10.5200       346
    10.5400       358
    10.5600       350
    10.5800       382
    10.6000       350
    10.6200       340
    10.6400       352
    10.6600       326
    10.6800       360
    10.7000       358
    10.7200       356
    10.7400       362
    10.7600       364
    10.7800       340
    10.8000       332
    10.8200       310
    10.8400       358
    10.8600       312
    10.8800       362
    10.9000       358
    10.9200       330
    10.9400       330
    10.9600       380
    10.9800       310
    11.0000       350
    11.0200       342
    11.0400       300
    11.0600       298
    11.0800       348
    11.1000       368
    11.1200       310
    11.1400       334
    11.1600       344
    11.1800       354
    11.2000       340
    11.2200       334
    11.2400       336
    11.2600       338
    11.2800       336
    11.3000       318
    11.3200       344
    11.3400       322
    11.3600       358
    11.3800       324
    11.4000       348
    11.4200       330
    11.4400       312
    11.4600       344
    11.4800       344
    11.5000       356
    11.5200       308
    11.5400       350
    11.5600       344
    11.5800       362
    11.6000       318
    11.6200       332
    11.6400       352
    11.6600       340
    11.6800       372
    11.7000       352
    11.7200       360
    11.7400       338
    11.7600       348
    11.7800       334
    11.8000       366
    11.8200       380
    11.8400       316
    11.8600       350
    11.8800       346
    11.9000       376
    11.9200       372
    11.9400       378
    11.9600       374
    11.9800       360
    12.0000       430
    12.0200       400
    12.0400       426
    12.0600       420
    12.0800       478
    12.1000       442
    12.1200       502
    12.1400       488
    12.1600       548
    12.1800       570
    12.2000       592
    12.2200       550
    12.2400       604
    12.2600       500
    12.2800       488
    12.3000       456
    12.3200       390
    12.3400       392
    12.3600       314
    12.3800       352
    12.4000       342
    12.4200       314
    12.4400       328
    12.4600       344
    12.4800       312
    12.5000       298
    12.5200       320
    12.5400       300
    12.5600       308
    12.5800       312
    12.6000       316
    12.6200       290
    12.6400       306
    12.6600       280
    12.6800       282
    12.7000       282
    12.7200       306
    12.7400       278
    12.7600       284
    12.7800       292
    12.8000       304
    12.8200       256
    12.8400       304
    12.8600       290
    12.8800       284
    12.9000       296
    12.9200       284
    12.9400       294
    12.9600       306
    12.9800       306
    13.0000       294
    13.0200       290
    13.0400       288
    13.0600       276
    13.0800       290
    13.1000       298
    13.1200       284
    13.1400       270
    13.1600       280
    13.1800       292
    13.2000       284
    13.2200       298
    13.2400       320
    13.2600       278
    13.2800       256
    13.3000       292
    13.3200       268
    13.3400       248
    13.3600       286
    13.3800       268
    13.4000       294
    13.4200       306
    13.4400       284
    13.4600       258
    13.4800       278
    13.5000       304
    13.5200       262
    13.5400       272
    13.5600       264
    13.5800       252
    13.6000       284
    13.6200       250
    13.6400       250
    13.6600       292
    13.6800       308
    13.7000       276
    13.7200       266
    13.7400       298
    13.7600       254
    13.7800       284
    13.8000       278
    13.8200       286
    13.8400       268
    13.8600       282
    13.8800       284
    13.9000       274
    13.9200       258
    13.9400       260
    13.9600       212
    13.9800       276
    14.0000       302
    14.0200       254
    14.0400       290
    14.0600       246
    14.0800       262
    14.1000       254
    14.1200       278
    14.1400       266
    14.1600       254
    14.1800       280
    14.2000       272
    14.2200       268
    14.2400       258
    14.2600       238
    14.2800       258
    14.3000       258
    14.3200       296
    14.3400       276
    14.3600       294
    14.3800       306
    14.4000       250
    14.4200       302
    14.4400       270
    14.4600       294
    14.4800       280
    14.5000       302
    14.5200       274
    14.5400       294
    14.5600       282
    14.5800       248
    14.6000       314
    14.6200       292
    14.6400       318
    14.6600       344
    14.6800       340
    14.7000       326
    14.7200       348
    14.7400       390
    14.7600       380
    14.7800       374
    14.8000       430
    14.8200       406
    14.8400       430
    14.8600       440
    14.8800       478
    14.9000       518
    14.9200       568
    14.9400       596
    14.9600       596
    14.9800       642
    15.0000       802
    15.0200       828
    15.0400       852
    15.0600       934
    15.0800      1036
    15.1000      1092
    15.1200      1248
    15.1400      1372
    15.1600      1518
    15.1800      1632
    15.2000      1714
    15.2200      1680
    15.2400      1682
    15.2600      1380
    15.2800      1236
    15.3000      1016
    15.3200       810
    15.3400       720
    15.3600       624
    15.3800       542
    15.4000       498
    15.4200       496
    15.4400       410
    15.4600       370
    15.4800       390
    15.5000       352
    15.5200       330
    15.5400       342
    15.5600       346
    15.5800       350
    15.6000       306
    15.6200       314
    15.6400       300
    15.6600       314
    15.6800       278
    15.7000       290
    15.7200       310
    15.7400       318
    15.7600       288
    15.7800       270
    15.8000       296
    15.8200       284
    15.8400       274
    15.8600       272
    15.8800       294
    15.9000       294
    15.9200       264
    15.9400       272
    15.9600       306
    15.9800       282
    16.0000       318
    16.0200       278
    16.0400       272
    16.0600       290
    16.0800       314
    16.1000       348
    16.1200       320
    16.1400       300
    16.1600       358
    16.1800       360
    16.2000       352
    16.2200       406
    16.2400       372
    16.2600       424
    16.2800       434
    16.3000       416
    16.3200       442
    16.3400       426
    16.3600       426
    16.3800       430
    16.4000       366
    16.4200       340
    16.4400       370
    16.4600       330
    16.4800       348
    16.5000       374
    16.5200       372
    16.5400       352
    16.5600       382
    16.5800       376
    16.6000       410
    16.6200       428
    16.6400       448
    16.6600       468
    16.6800       484
    16.7000       532
    16.7200       584
    16.7400       648
    16.7600       686
    16.7800       702
    16.8000       758
    16.8200       864
    16.8400       914
    16.8600      1032
    16.8800      1204
    16.9000      1330
    16.9200      1446
    16.9400      1626
    16.9600      1894
    16.9800      2128
    17.0000      2328
    17.0200      2586
    17.0400      2718
    17.0600      2656
    17.0800      2464
    17.1000      2136
    17.1200      1788
    17.1400      1458
    17.1600      1156
    17.1800      1050
    17.2000      1000
    17.2200       916
    17.2400       880
    17.2600       806
    17.2800       770
    17.3000       730
    17.3200       690
    17.3400       620
    17.3600       574
    17.3800       602
    17.4000       548
    17.4200       550
    17.4400       528
    17.4600       462
    17.4800       474
    17.5000       440
    17.5200       448
    17.5400       446
    17.5600       480
    17.5800       476
    17.6000       424
    17.6200       500
    17.6400       494
    17.6600       490
    17.6800       566
    17.7000       562
    17.7200       604
    17.7400       608
    17.7600       626
    17.7800       754
    17.8000       786
    17.8200       852
    17.8400       910
    17.8600       824
    17.8800       864
    17.9000       800
    17.9200       714
    17.9400       590
    17.9600       560
    17.9800       444
    18.0000       420
    18.0200       358
    18.0400       348
    18.0600       326
    18.0800       312
    18.1000       294
    18.1200       286
    18.1400       302
    18.1600       274
    18.1800       270
    18.2000       260
    18.2200       284
    18.2400       248
    18.2600       272
    18.2800       262
    18.3000       256
    18.3200       272
    18.3400       236
    18.3600       264
    18.3800       218
    18.4000       250
    18.4200       264
    18.4400       242
    18.4600       258
    18.4800       236
    18.5000       258
    18.5200       252
    18.5400       220
    18.5600       224
    18.5800       234
    18.6000       234
    18.6200       246
    18.6400       248
    18.6600       254
    18.6800       228
    18.7000       258
    18.7200       244
    18.7400       244
    18.7600       236
    18.7800       218
    18.8000       252
    18.8200       250
    18.8400       266
    18.8600       256
    18.8800       252
    18.9000       268
    18.9200       268
    18.9400       224
    18.9600       282
    18.9800       292
    19.0000       316
    19.0200       282
    19.0400       286
    19.0600       280
    19.0800       330
    19.1000       346
    19.1200       368
    19.1400       378
    19.1600       390
    19.1800       382
    19.2000       438
    19.2200       468
    19.2400       530
    19.2600       532
    19.2800       594
    19.3000       664
    19.3200       724
    19.3400       820
    19.3600       922
    19.3800      1064
    19.4000      1134
    19.4200      1236
    19.4400      1522
    19.4600      1654
    19.4800      1976
    19.5000      2194
    19.5200      2380
    19.5400      2560
    19.5600      2590
    19.5800      2478
    19.6000      2084
    19.6200      1914
    19.6400      1594
    19.6600      1300
    19.6800      1120
    19.7000       964
    19.7200       892
    19.7400       882
    19.7600       864
    19.7800       926
    19.8000       954
    19.8200      1032
    19.8400      1138
    19.8600      1212
    19.8800      1398
    19.9000      1486
    19.9200      1586
    19.9400      1810
    19.9600      1922
    19.9800      1956
    20.0000      1848
    20.0200      1844
    20.0400      1598
    20.0600      1396
    20.0800      1246
    20.1000      1018
    20.1200       854
    20.1400       708
    20.1600       620
    20.1800       522
    20.2000       454
    20.2200       514
    20.2400       420
    20.2600       446
    20.2800       418
    20.3000       374
    20.3200       368
    20.3400       380
    20.3600       336
    20.3800       310
    20.4000       326
    20.4200       298
    20.4400       290
    20.4600       318
    20.4800       270
    20.5000       278
    20.5200       270
    20.5400       268
    20.5600       296
    20.5800       290
    20.6000       296
    20.6200       250
    20.6400       280
    20.6600       246
    20.6800       262
    20.7000       268
    20.7200       302
    20.7400       272
    20.7600       304
    20.7800       290
    20.8000       290
    20.8200       290
    20.8400       336
    20.8600       358
    20.8800       320
    20.9000       398
    20.9200       430
    20.9400       408
    20.9600       428
    20.9800       494
    21.0000       558
    21.0200       550
    21.0400       668
    21.0600       704
    21.0800       784
    21.1000       876
    21.1200       974
    21.1400      1098
    21.1600      1096
    21.1800      1258
    21.2000      1244
    21.2200      1344
    21.2400      1332
    21.2600      1244
    21.2800      1232
    21.3000      1130
    21.3200       956
    21.3400       850
    21.3600       784
    21.3800       646
    21.4000       564
    21.4200       518
    21.4400       446
    21.4600       386
    21.4800       388
    21.5000       372
    21.5200       316
    21.5400       320
    21.5600       312
    21.5800       314
    21.6000       264
    21.6200       246
    21.6400       254
    21.6600       258
    21.6800       224
    21.7000       264
    21.7200       228
    21.7400       224
    21.7600       252
    21.7800       224
    21.8000       228
    21.8200       250
    21.8400       228
    21.8600       234
    21.8800       250
    21.9000       250
    21.9200       226
    21.9400       224
    21.9600       246
    21.9800       198
    22.0000       228
    22.0200       230
    22.0400       236
    22.0600       208
    22.0800       244
    22.1000       228
    22.1200       208
    22.1400       246
    22.1600       218
    22.1800       256
    22.2000       226
    22.2200       270
    22.2400       238
    22.2600       234
    22.2800       248
    22.3000       256
    22.3200       264
    22.3400       294
    22.3600       294
    22.3800       286
    22.4000       326
    22.4200       340
    22.4400       382
    22.4600       420
    22.4800       386
    22.5000       436
    22.5200       524
    22.5400       542
    22.5600       604
    22.5800       596
    22.6000       700
    22.6200       772
    22.6400       816
    22.6600      1034
    22.6800      1242
    22.7000      1332
    22.7200      1532
    22.7400      1758
    22.7600      2042
    22.7800      2302
    22.8000      2676
    22.8200      3114
    22.8400      3334
    22.8600      3560
    22.8800      3418
    22.9000      3306
    22.9200      2964
    22.9400      2484
    22.9600      2008
    22.9800      1738
    23.0000      1344
    23.0200      1108
    23.0400       932
    23.0600       856
    23.0800       672
    23.1000       644
    23.1200       574
    23.1400       548
    23.1600       468
    23.1800       462
    23.2000       420
    23.2200       430
    23.2400       420
    23.2600       380
    23.2800       320
    23.3000       332
    23.3200       340
    23.3400       354
    23.3600       328
    23.3800       278
    23.4000       264
    23.4200       272
    23.4400       280
    23.4600       306
    23.4800       248
    23.5000       280
    23.5200       234
    23.5400       246
    23.5600       254
    23.5800       250
    23.6000       242
    23.6200       260
    23.6400       252
    23.6600       242
    23.6800       260
    23.7000       258
    23.7200       256
    23.7400       242
    23.7600       264
    23.7800       260
    23.8000       278
    23.8200       274
    23.8400       262
    23.8600       272
    23.8800       288
    23.9000       268
    23.9200       278
    23.9400       268
    23.9600       268
    23.9800       272
    24.0000       300
    24.0200       260
    24.0400       272
    24.0600       266
    24.0800       298
    24.1000       278
    24.1200       286
    24.1400       316
    24.1600       310
    24.1800       298
    24.2000       348
    24.2200       356
    24.2400       350
    24.2600       380
    24.2800       402
    24.3000       442
    24.3200       472
    24.3400       522
    24.3600       534
    24.3800       616
    24.4000       694
    24.4200       674
    24.4400       776
    24.4600       816
    24.4800       888
    24.5000       914
    24.5200       984
    24.5400       990
    24.5600       996
    24.5800      1024
    24.6000       970
    24.6200       954
    24.6400       892
    24.6600       916
    24.6800       844
    24.7000       766
    24.7200       798
    24.7400       772
    24.7600       786
    24.7800       754
    24.8000       692
    24.8200       628
    24.8400       652
    24.8600       622
    24.8800       570
    24.9000       546
    24.9200       526
    24.9400       496
    24.9600       470
    24.9800       486
    25.0000       470
    25.0200       500
    25.0400       480
    25.0600       530
    25.0800       494
    25.1000       534
    25.1200       558
    25.1400       562
    25.1600       626
    25.1800       702
    25.2000       716
    25.2200       794
    25.2400       910
    25.2600       986
    25.2800      1048
    25.3000      1140
    25.3200      1188
    25.3400      1388
    25.3600      1326
    25.3800      1352
    25.4000      1308
    25.4200      1256
    25.4400      1176
    25.4600      1114
    25.4800      1008
    25.5000       972
    25.5200       962
    25.5400       948
    25.5600       956
    25.5800       990
    25.6000       964
    25.6200       976
    25.6400       948
    25.6600       900
    25.6800       790
    25.7000       740
    25.7200       648
    25.7400       590
    25.7600       534
    25.7800       508
    25.8000       494
    25.8200       450
    25.8400       418
    25.8600       424
    25.8800       432
    25.9000       390
    25.9200       388
    25.9400       372
    25.9600       338
    25.9800       346
    26.0000       324
    26.0200       300
    26.0400       286
    26.0600       326
    26.0800       344
    26.1000       282
    26.1200       310
    26.1400       324
    26.1600       286
    26.1800       276
    26.2000       310
    26.2200       338
    26.2400       292
    26.2600       332
    26.2800       348
    26.3000       362
    26.3200       338
    26.3400       362
    26.3600       348
    26.3800       318
    26.4000       374
    26.4200       378
    26.4400       356
    26.4600       370
    26.4800       366
    26.5000       354
    26.5200       370
    26.5400       372
    26.5600       386
    26.5800       358
    26.6000       396
    26.6200       382
    26.6400       364
    26.6600       362
    26.6800       406
    26.7000       378
    26.7200       382
    26.7400       362
    26.7600       336
    26.7800       366
    26.8000       328
    26.8200       336
    26.8400       298
    26.8600       316
    26.8800       300
    26.9000       296
    26.9200       286
    26.9400       284
    26.9600       310
    26.9800       300
    27.0000       306
    27.0200       308
    27.0400       310
    27.0600       292
    27.0800       296
    27.1000       314
    27.1200       310
    27.1400       338
    27.1600       342
    27.1800       362
    27.2000       398
    27.2200       402
    27.2400       422
    27.2600       438
    27.2800       476
    27.3000       524
    27.3200       538
    27.3400       550
    27.3600       592
    27.3800       624
    27.4000       686
    27.4200       746
    27.4400       802
    27.4600       826
    27.4800       820
    27.5000       846
    27.5200       822
    27.5400       906
    27.5600       822
    27.5800       762
    27.6000       704
    27.6200       698
    27.6400       654
    27.6600       602
    27.6800       530
    27.7000       510
    27.7200       454
    27.7400       436
    27.7600       404
    27.7800       396
    27.8000       356
    27.8200       358
    27.8400       308
    27.8600       298
    27.8800       346
    27.9000       298
    27.9200       326
    27.9400       334
    27.9600       296
    27.9800       294
    28.0000       278
    28.0200       284
    28.0400       288
    28.0600       276
    28.0800       280
    28.1000       302
    28.1200       270
    28.1400       268
    28.1600       292
    28.1800       258
    28.2000       308
    28.2200       292
    28.2400       266
    28.2600       252
    28.2800       292
    28.3000       296
    28.3200       282
    28.3400       308
    28.3600       294
    28.3800       326
    28.4000       340
    28.4200       312
    28.4400       340
    28.4600       318
    28.4800       340
    28.5000       332
    28.5200       330
    28.5400       368
    28.5600       390
    28.5800       356
    28.6000       384
    28.6200       442
    28.6400       392
    28.6600       444
    28.6800       484
    28.7000       468
    28.7200       462
    28.7400       514
    28.7600       442
    28.7800       460
    28.8000       424
    28.8200       398
    28.8400       384
    28.8600       406
    28.8800       328
    28.9000       356
    28.9200       350
    28.9400       332
    28.9600       336
    28.9800       336
    29.0000       376
    29.0200       330
    29.0400       336
    29.0600       320
    29.0800       326
    29.1000       348
    29.1200       340
    29.1400       350
    29.1600       330
    29.1800       360
    29.2000       366
    29.2200       346
    29.2400       380
    29.2600       396
    29.2800       384
    29.3000       404
    29.3200       428
    29.3400       414
    29.3600       478
    29.3800       476
    29.4000       490
    29.4200       564
    29.4400       522
    29.4600       546
    29.4800       604
    29.5000       682
    29.5200       708
    29.5400       734
    29.5600       834
    29.5800       896
    29.6000       970
    29.6200      1046
    29.6400      1134
    29.6600      1242
    29.6800      1362
    29.7000      1382
    29.7200      1394
    29.7400      1392
    29.7600      1264
    29.7800      1232
    29.8000      1206
    29.8200       990
    29.8400      1036
    29.8600       912
    29.8800       904
    29.9000       848
    29.9200       848
    29.9400       818
    29.9600       820
    29.9800       866
    30.0000       920
    30.0200       944
    30.0400      1022
    30.0600      1084
    30.0800      1214
    30.1000      1292
    30.1200      1410
    30.1400      1414
    30.1600      1594
    30.1800      1660
    30.2000      1696
    30.2200      1802
    30.2400      1814
    30.2600      1760
    30.2800      1870
    30.3000      1808
    30.3200      1776
    30.3400      1770
    30.3600      1818
    30.3800      1794
    30.4000      1938
    30.4200      1992
    30.4400      2046
    30.4600      2246
    30.4800      2380
    30.5000      2570
    30.5200      2798
    30.5400      3068
    30.5600      3580
    30.5800      3792
    30.6000      4268
    30.6200      4892
    30.6400      5334
    30.6600      5936
    30.6800      6508
    30.7000      6870
    30.7200      6972
    30.7400      6966
    30.7600      6526
    30.7800      5992
    30.8000      5490
    30.8200      4800
    30.8400      4076
    30.8600      3488
    30.8800      2874
    30.9000      2508
    30.9200      2150
    30.9400      1940
    30.9600      1674
    30.9800      1506
    31.0000      1298
    31.0200      1146
    31.0400      1118
    31.0600       930
    31.0800       836
    31.1000       858
    31.1200       802
    31.1400       664
    31.1600       634
    31.1800       620
    31.2000       598
    31.2200       524
    31.2400       578
    31.2600       542
    31.2800       548
    31.3000       512
    31.3200       478
    31.3400       488
    31.3600       466
    31.3800       416
    31.4000       428
    31.4200       426
    31.4400       480
    31.4600       438
    31.4800       412
    31.5000       428
    31.5200       428
    31.5400       444
    31.5600       436
    31.5800       462
    31.6000       466
    31.6200       426
    31.6400       494
    31.6600       512
    31.6800       548
    31.7000       536
    31.7200       586
    31.7400       610
    31.7600       638
    31.7800       710
    31.8000       798
    31.8200       872
    31.8400       892
    31.8600      1008
    31.8800      1096
    31.9000      1292
    31.9200      1454
    31.9400      1612
    31.9600      1654
    31.9800      1928
    32.0000      1876
    32.0200      1890
    32.0400      1854
    32.0600      1864
    32.0800      1674
    32.1000      1558
    32.1200      1454
    32.1400      1428
    32.1600      1290
    32.1800      1272
    32.2000      1220
    32.2200      1260
    32.2400      1336
    32.2600      1296
    32.2800      1444
    32.3000      1608
    32.3200      1734
    32.3400      1940
    32.3600      2114
    32.3800      2378
    32.4000      2778
    32.4200      3076
    32.4400      3544
    32.4600      3958
    32.4800      4564
    32.5000      5116
    32.5200      5516
    32.5400      5846
    32.5600      6034
    32.5800      5966
    32.6000      5742
    32.6200      5338
    32.6400      5002
    32.6600      4496
    32.6800      3966
    32.7000      3466
    32.7200      2912
    32.7400      2456
    32.7600      2102
    32.7800      1980
    32.8000      1654
    32.8200      1570
    32.8400      1462
    32.8600      1348
    32.8800      1256
    32.9000      1124
    32.9200      1170
    32.9400      1096
    32.9600      1082
    32.9800      1144
    33.0000      1198
    33.0200      1258
    33.0400      1322
    33.0600      1366
    33.0800      1326
    33.1000      1376
    33.1200      1350
    33.1400      1216
    33.1600      1184
    33.1800      1090
    33.2000      1000
    33.2200       792
    33.2400       708
    33.2600       634
    33.2800       660
    33.3000       550
    33.3200       448
    33.3400       472
    33.3600       440
    33.3800       430
    33.4000       412
    33.4200       356
    33.4400       396
    33.4600       368
    33.4800       330
    33.5000       336
    33.5200       304
    33.5400       304
    33.5600       288
    33.5800       308
    33.6000       290
    33.6200       296
    33.6400       276
    33.6600       278
    33.6800       266
    33.7000       262
    33.7200       240
    33.7400       248
    33.7600       308
    33.7800       284
    33.8000       280
    33.8200       252
    33.8400       252
    33.8600       270
    33.8800       264
    33.9000       280
    33.9200       236
    33.9400       242
    33.9600       296
    33.9800       282
    34.0000       254
    34.0200       276
    34.0400       310
    34.0600       312
    34.0800       288
    34.1000       258
    34.1200       288
    34.1400       306
    34.1600       308
    34.1800       324
    34.2000       336
    34.2200       356
    34.2400       334
    34.2600       300
    34.2800       376
    34.3000       346
    34.3200       402
    34.3400       436
    34.3600       458
    34.3800       508
    34.4000       546
    34.4200       602
    34.4400       648
    34.4600       664
    34.4800       686
    34.5000       780
    34.5200       650
    34.5400       588
    34.5600       618
    34.5800       612
    34.6000       514
    34.6200       506
    34.6400       482
    34.6600       396
    34.6800       448
    34.7000       410
    34.7200       380
    34.7400       376
    34.7600       374
    34.7800       330
    34.8000       354
    34.8200       382
    34.8400       342
    34.8600       338
    34.8800       336
    34.9000       318
    34.9200       318
    34.9400       296
    34.9600       318
    34.9800       312
    35.0000       292
    35.0200       314
    35.0400       278
    35.0600       298
    35.0800       278
    35.1000       312
    35.1200       270
    35.1400       252
    35.1600       262
    35.1800       266
    35.2000       256
    35.2200       270
    35.2400       272
    35.2600       264
    35.2800       278
    35.3000       284
    35.3200       286
    35.3400       290
    35.3600       272
    35.3800       302
    35.4000       270
    35.4200       288
    35.4400       270
    35.4600       276
    35.4800       290
    35.5000       302
    35.5200       310
    35.5400       290
    35.5600       298
    35.5800       308
    35.6000       304
    35.6200       322
    35.6400       330
    35.6600       378
    35.6800       330
    35.7000       344
    35.7200       366
    35.7400       360
    35.7600       380
    35.7800       386
    35.8000       402
    35.8200       456
    35.8400       412
    35.8600       416
    35.8800       446
    35.9000       456
    35.9200       440
    35.9400       518
    35.9600       540
    35.9800       524
    36.0000       614
    36.0200       654
    36.0400       672
    36.0600       748
    36.0800       806
    36.1000       862
    36.1200       906
    36.1400       982
    36.1600      1052
    36.1800       996
    36.2000       986
    36.2200       930
    36.2400       916
    36.2600       812
    36.2800       824
    36.3000       702
    36.3200       726
    36.3400       652
    36.3600       554
    36.3800       574
    36.4000       520
    36.4200       512
    36.4400       512
    36.4600       492
    36.4800       500
    36.5000       480
    36.5200       502
    36.5400       496
    36.5600       496
    36.5800       494
    36.6000       540
    36.6200       544
    36.6400       570
    36.6600       624
    36.6800       618
    36.7000       726
    36.7200       718
    36.7400       840
    36.7600       960
    36.7800      1056
    36.8000      1124
    36.8200      1316
    36.8400      1338
    36.8600      1450
    36.8800      1472
    36.9000      1602
    36.9200      1566
    36.9400      1490
    36.9600      1442
    36.9800      1416
    37.0000      1328
    37.0200      1226
    37.0400      1130
    37.0600      1038
    37.0800       980
    37.1000       916
    37.1200       820
    37.1400       830
    37.1600       852
    37.1800       742
    37.2000       766
    37.2200       736
    37.2400       734
    37.2600       754
    37.2800       690
    37.3000       682
    37.3200       680
    37.3400       624
    37.3600       620
    37.3800       610
    37.4000       550
    37.4200       590
    37.4400       500
    37.4600       492
    37.4800       494
    37.5000       500
    37.5200       544
    37.5400       502
    37.5600       566
    37.5800       500
    37.6000       506
    37.6200       540
    37.6400       504
    37.6600       522
    37.6800       552
    37.7000       544
    37.7200       552
    37.7400       656
    37.7600       662
    37.7800       664
    37.8000       686
    37.8200       772
    37.8400       878
    37.8600       870
    37.8800       934
    37.9000      1028
    37.9200      1164
    37.9400      1280
    37.9600      1434
    37.9800      1580
    38.0000      1678
    38.0200      1680
    38.0400      1738
    38.0600      1752
    38.0800      1722
    38.1000      1682
    38.1200      1570
    38.1400      1650
    38.1600      1620
    38.1800      1516
    38.2000      1470
    38.2200      1550
    38.2400      1578
    38.2600      1598
    38.2800      1676
    38.3000      1858
    38.3200      1944
    38.3400      2088
    38.3600      2314
    38.3800      2666
    38.4000      2868
    38.4200      3178
    38.4400      3552
    38.4600      3846
    38.4800      4050
    38.5000      4338
    38.5200      4442
    38.5400      4548
    38.5600      4782
    38.5800      4986
    38.6000      5138
    38.6200      5272
    38.6400      5490
    38.6600      5642
    38.6800      5714
    38.7000      5502
    38.7200      5482
    38.7400      5228
    38.7600      4930
    38.7800      4750
    38.8000      4468
    38.8200      3960
    38.8400      3478
    38.8600      3252
    38.8800      2928
    38.9000      2562
    38.9200      2266
    38.9400      2116
    38.9600      1932
    38.9800      1788
    39.0000      1762
    39.0200      1666
    39.0400      1510
    39.0600      1470
    39.0800      1420
    39.1000      1322
    39.1200      1370
    39.1400      1274
    39.1600      1238
    39.1800      1172
    39.2000      1190
    39.2200      1200
    39.2400      1198
    39.2600      1160
    39.2800      1168
    39.3000      1178
    39.3200      1148
    39.3400      1140
    39.3600      1152
    39.3800      1314
    39.4000      1262
    39.4200      1246
    39.4400      1298
    39.4600      1318
    39.4800      1368
    39.5000      1434
    39.5200      1386
    39.5400      1462
    39.5600      1522
    39.5800      1548
    39.6000      1678
    39.6200      1712
    39.6400      1808
    39.6600      1880
    39.6800      1962
    39.7000      1974
    39.7200      1960
    39.7400      1860
    39.7600      1760
    39.7800      1732
    39.8000      1638
    39.8200      1488
    39.8400      1338
    39.8600      1256
    39.8800      1162
    39.9000       968
    39.9200       960
    39.9400       920
    39.9600       898
    39.9800       814
    40.0000       826
    40.0200       766
    40.0400       752
    40.0600       804
    40.0800       832
    40.1000       792
    40.1200       856
    40.1400       802
    40.1600       844
    40.1800       838
    40.2000       896
    40.2200       922
    40.2400       984
    40.2600      1014
    40.2800      1010
    40.3000      1068
    40.3200      1048
    40.3400      1040
    40.3600      1078
    40.3800      1086
    40.4000      1144
    40.4200      1160
    40.4400      1178
    40.4600      1352
    40.4800      1366
    40.5000      1448
    40.5200      1500
    40.5400      1534
    40.5600      1654
    40.5800      1690
    40.6000      1732
    40.6200      1816
    40.6400      1764
    40.6600      1736
    40.6800      1622
    40.7000      1568
    40.7200      1480
    40.7400      1350
    40.7600      1204
    40.7800      1268
    40.8000      1052
    40.8200       966
    40.8400       898
    40.8600       876
    40.8800       870
    40.9000       836
    40.9200       770
    40.9400       830
    40.9600       770
    40.9800       740
    41.0000       740
    41.0200       762
    41.0400       790
    41.0600       754
    41.0800       820
    41.1000       826
    41.1200       876
    41.1400       922
    41.1600       998
    41.1800      1058
    41.2000      1100
    41.2200      1170
    41.2400      1186
    41.2600      1290
    41.2800      1320
    41.3000      1380
    41.3200      1288
    41.3400      1384
    41.3600      1466
    41.3800      1478
    41.4000      1510
    41.4200      1540
    41.4400      1572
    41.4600      1646
    41.4800      1696
    41.5000      1740
    41.5200      1770
    41.5400      1832
    41.5600      1916
    41.5800      1958
    41.6000      2028
    41.6200      1964
    41.6400      1876
    41.6600      1800
    41.6800      1670
    41.7000      1672
    41.7200      1654
    41.7400      1552
    41.7600      1512
    41.7800      1610
    41.8000      1598
    41.8200      1528
    41.8400      1560
    41.8600      1642
    41.8800      1660
    41.9000      1598
    41.9200      1626
    41.9400      1522
    41.9600      1488
    41.9800      1494
    42.0000      1408
    42.0200      1266
    42.0400      1140
    42.0600      1092
    42.0800      1050
    42.1000       920
    42.1200       874
    42.1400       760
    42.1600       784
    42.1800       682
    42.2000       672
    42.2200       572
    42.2400       622
    42.2600       570
    42.2800       590
    42.3000       536
    42.3200       552
    42.3400       552
    42.3600       560
    42.3800       508
    42.4000       542
    42.4200       496
    42.4400       492
    42.4600       488
    42.4800       492
    42.5000       476
    42.5200       452
    42.5400       502
    42.5600       466
    42.5800       498
    42.6000       418
    42.6200       448
    42.6400       422
    42.6600       438
    42.6800       462
    42.7000       434
    42.7200       466
    42.7400       424
    42.7600       442
    42.7800       482
    42.8000       500
    42.8200       466
    42.8400       514
    42.8600       504
    42.8800       534
    42.9000       592
    42.9200       590
    42.9400       580
    42.9600       630
    42.9800       638
    43.0000       720
    43.0200       844
    43.0400       818
    43.0600       846
    43.0800       982
    43.1000      1074
    43.1200      1140
    43.1400      1260
    43.1600      1392
    43.1800      1476
    43.2000      1452
    43.2200      1432
    43.2400      1406
    43.2600      1396
    43.2800      1386
    43.3000      1256
    43.3200      1176
    43.3400      1198
    43.3600      1040
    43.3800       918
    43.4000       898
    43.4200       808
    43.4400       768
    43.4600       688
    43.4800       636
    43.5000       630
    43.5200       606
    43.5400       568
    43.5600       592
    43.5800       580
    43.6000       556
    43.6200       556
    43.6400       512
    43.6600       574
    43.6800       534
    43.7000       614
    43.7200       574
    43.7400       582
    43.7600       610
    43.7800       610
    43.8000       660
    43.8200       668
    43.8400       680
    43.8600       666
    43.8800       634
    43.9000       678
    43.9200       624
    43.9400       580
    43.9600       620
    43.9800       564
    44.0000       588
    44.0200       506
    44.0400       474
    44.0600       512
    44.0800       540
    44.1000       488
    44.1200       500
    44.1400       470
    44.1600       488
    44.1800       506
    44.2000       522
    44.2200       480
    44.2400       486
    44.2600       506
    44.2800       510
    44.3000       534
    44.3200       504
    44.3400       542
    44.3600       588
    44.3800       528
    44.4000       540
    44.4200       558
    44.4400       538
    44.4600       520
    44.4800       524
    44.5000       558
    44.5200       480
    44.5400       490
    44.5600       544
    44.5800       550
    44.6000       524
    44.6200       518
    44.6400       500
    44.6600       558
    44.6800       566
    44.7000       564
    44.7200       586
    44.7400       598
    44.7600       656
    44.7800       628
    44.8000       698
    44.8200       706
    44.8400       794
    44.8600       852
    44.8800       892
    44.9000       908
    44.9200       948
    44.9400      1074
    44.9600      1156
    44.9800      1158
    45.0000      1266
    45.0200      1386
    45.0400      1512
    45.0600      1484
    45.0800      1562
    45.1000      1686
    45.1200      1716
    45.1400      1818
    45.1600      1880
    45.1800      1932
    45.2000      2040
    45.2200      2042
    45.2400      2102
    45.2600      2172
    45.2800      2176
    45.3000      2062
    45.3200      2120
    45.3400      2092
    45.3600      2022
    45.3800      2086
    45.4000      1952
    45.4200      1846
    45.4400      1862
    45.4600      1728
    45.4800      1666
    45.5000      1598
    45.5200      1496
    45.5400      1432
    45.5600      1308
    45.5800      1264
    45.6000      1200
    45.6200      1098
    45.6400      1070
    45.6600       932
    45.6800       950
    45.7000       912
    45.7200       846
    45.7400       760
    45.7600       802
    45.7800       846
    45.8000       834
    45.8200       782
    45.8400       686
    45.8600       704
    45.8800       626
    45.9000       676
    45.9200       724
    45.9400       696
    45.9600       700
    45.9800       692
    46.0000       688
    46.0200       676
    46.0400       706
    46.0600       670
    46.0800       748
    46.1000       728
    46.1200       728
    46.1400       726
    46.1600       790
    46.1800       732
    46.2000       862
    46.2200       838
    46.2400       892
    46.2600       922
    46.2800       994
    46.3000      1022
    46.3200      1068
    46.3400      1184
    46.3600      1252
    46.3800      1366
    46.4000      1450
    46.4200      1642
    46.4400      1730
    46.4600      1892
    46.4800      2128
    46.5000      2344
    46.5200      2518
    46.5400      2932
    46.5600      3202
    46.5800      3754
    46.6000      4110
    46.6200      4562
    46.6400      4956
    46.6600      5396
    46.6800      5700
    46.7000      5964
    46.7200      6172
    46.7400      5912
    46.7600      5832
    46.7800      5720
    46.8000      5396
    46.8200      4910
    46.8400      4790
    46.8600      4298
    46.8800      3820
    46.9000      3292
    46.9200      2978
    46.9400      2710
    46.9600      2394
    46.9800      2116
    47.0000      1846
    47.0200      1642
    47.0400      1490
    47.0600      1330
    47.0800      1242
    47.1000      1158
    47.1200      1082
    47.1400      1024
    47.1600       880
    47.1800       900
    47.2000       840
    47.2200       820
    47.2400       790
    47.2600       748
    47.2800       704
    47.3000       718
    47.3200       670
    47.3400       654
    47.3600       648
    47.3800       566
    47.4000       588
    47.4200       592
    47.4400       582
    47.4600       542
    47.4800       612
    47.5000       560
    47.5200       542
    47.5400       546
    47.5600       552
    47.5800       544
    47.6000       550
    47.6200       586
    47.6400       570
    47.6600       570
    47.6800       588
    47.7000       596
    47.7200       586
    47.7400       556
    47.7600       694
    47.7800       648
    47.8000       728
    47.8200       748
    47.8400       718
    47.8600       754
    47.8800       734
    47.9000       782
    47.9200       702
    47.9400       704
    47.9600       738
    47.9800       706
    48.0000       722
    48.0200       722
    48.0400       640
    48.0600       704
    48.0800       706
    48.1000       710
    48.1200       670
    48.1400       794
    48.1600       754
    48.1800       806
    48.2000       788
    48.2200       798
    48.2400       780
    48.2600       822
    48.2800       732
    48.3000       790
    48.3200       822
    48.3400       750
    48.3600       800
    48.3800       736
    48.4000       834
    48.4200       778
    48.4400       782
    48.4600       800
    48.4800       808
    48.5000       808
    48.5200       832
    48.5400       822
    48.5600       834
    48.5800       842
    48.6000       860
    48.6200       902
    48.6400       896
    48.6600       864
    48.6800       816
    48.7000       872
    48.7200       818
    48.7400       822
    48.7600       772
    48.7800       744
    48.8000       762
    48.8200       720
    48.8400       734
    48.8600       670
    48.8800       626
    48.9000       586
    48.9200       612
    48.9400       580
    48.9600       522
    48.9800       562
    49.0000       506
    49.0200       510
    49.0400       462
    49.0600       466
    49.0800       454
    49.1000       444
    49.1200       430
    49.1400       386
    49.1600       418
    49.1800       414
    49.2000       370
    49.2200       376
    49.2400       416
    49.2600       384
    49.2800       398
    49.3000       348
    49.3200       412
    49.3400       382
    49.3600       376
    49.3800       396
    49.4000       376
    49.4200       360
    49.4400       314
    49.4600       350
    49.4800       370
    49.5000       372
    49.5200       380
    49.5400       328
    49.5600       386
    49.5800       370
    49.6000       392
    49.6200       410
    49.6400       358
    49.6600       398
    49.6800       392
    49.7000       406
    49.7200       410
    49.7400       430
    49.7600       374
    49.7800       380
    49.8000       470
    49.8200       394
    49.8400       420
    49.8600       438
    49.8800       486
    49.9000       454
    49.9200       478
    49.9400       494
    49.9600       502
    49.9800       498
    50.0000       556
    50.0200       564
    50.0400       608
    50.0600       650
    50.0800       646
    50.1000       670
    50.1200       736
    50.1400       706
    50.1600       758
    50.1800       800
    50.2000       898
    50.2200       890
    50.2400       932
    50.2600       942
    50.2800       980
    50.3000      1064
    50.3200      1088
    50.3400      1074
    50.3600      1178
    50.3800      1096
    50.4000      1096
    50.4200      1162
    50.4400      1134
    50.4600      1174
    50.4800      1154
    50.5000      1184
    50.5200      1166
    50.5400      1230
    50.5600      1158
    50.5800      1246
    50.6000      1276
    50.6200      1332
    50.6400      1372
    50.6600      1444
    50.6800      1432
    50.7000      1530
    50.7200      1608
    50.7400      1742
    50.7600      1790
    50.7800      1954
    50.8000      2062
    50.8200      2138
    50.8400      2228
    50.8600      2210
    50.8800      2184
    50.9000      2114
    50.9200      2036
    50.9400      2108
    50.9600      1998
    50.9800      1912
    51.0000      1764
    51.0200      1680
    51.0400      1590
    51.0600      1478
    51.0800      1394
    51.1000      1340
    51.1200      1232
    51.1400      1102
    51.1600      1114
    51.1800      1094
    51.2000      1024
    51.2200       958
    51.2400       914
    51.2600       934
    51.2800       946
    51.3000       912
    51.3200       934
    51.3400       896
    51.3600       972
    51.3800       874
    51.4000       910
    51.4200       898
    51.4400       914
    51.4600       908
    51.4800       876
    51.5000       924
    51.5200       848
    51.5400       900
    51.5600       864
    51.5800       878
    51.6000       908
    51.6200       830
    51.6400       888
    51.6600       914
    51.6800       928
    51.7000      1000
    51.7200      1028
    51.7400      1052
    51.7600      1072
    51.7800      1176
    51.8000      1200
    51.8200      1246
    51.8400      1376
    51.8600      1400
    51.8800      1468
    51.9000      1520
    51.9200      1548
    51.9400      1630
    51.9600      1614
    51.9800      1758
    52.0000      1924
    52.0200      1996
    52.0400      2026
    52.0600      2178
    52.0800      2102
    52.1000      2154
    52.1200      2104
    52.1400      1980
    52.1600      1888
    52.1800      1838
    52.2000      1702
    52.2200      1628
    52.2400      1560
    52.2600      1498
    52.2800      1458
    52.3000      1394
    52.3200      1260
    52.3400      1252
    52.3600      1126
    52.3800      1142
    52.4000      1096
    52.4200      1116
    52.4400      1078
    52.4600      1114
    52.4800      1180
    52.5000      1244
    52.5200      1248
    52.5400      1276
    52.5600      1350
    52.5800      1326
    52.6000      1398
    52.6200      1308
    52.6400      1380
    52.6600      1376
    52.6800      1412
    52.7000      1320
    52.7200      1420
    52.7400      1302
    52.7600      1300
    52.7800      1318
    52.8000      1240
    52.8200      1258
    52.8400      1164
    52.8600      1074
    52.8800      1058
    52.9000       990
    52.9200       978
    52.9400       974
    52.9600       946
    52.9800       890
    53.0000       948
    53.0200       824
    53.0400       958
    53.0600       910
    53.0800       982
    53.1000       960
    53.1200      1022
    53.1400      1052
    53.1600      1116
    53.1800      1126
    53.2000      1266
    53.2200      1266
    53.2400      1386
    53.2600      1340
    53.2800      1450
    53.3000      1368
    53.3200      1312
    53.3400      1314
    53.3600      1280
    53.3800      1228
    53.4000      1182
    53.4200      1114
    53.4400      1044
    53.4600       950
    53.4800       944
    53.5000       854
    53.5200       786
    53.5400       826
    53.5600       726
    53.5800       684
    53.6000       706
    53.6200       650
    53.6400       634
    53.6600       634
    53.6800       574
    53.7000       670
    53.7200       560
    53.7400       574
    53.7600       616
    53.7800       606
    53.8000       616
    53.8200       584
    53.8400       556
    53.8600       566
    53.8800       556
    53.9000       578
    53.9200       566
    53.9400       540
    53.9600       578
    53.9800       580
    54.0000       560
    54.0200       526
    54.0400       570
    54.0600       498
    54.0800       544
    54.1000       562
    54.1200       584
    54.1400       586
    54.1600       560
    54.1800       562
    54.2000       618
    54.2200       620
    54.2400       628
    54.2600       606
    54.2800       638
    54.3000       740
    54.3200       694
    54.3400       702
    54.3600       696
    54.3800       754
    54.4000       758
    54.4200       738
    54.4400       734
    54.4600       824
    54.4800       880
    54.5000       854
    54.5200       876
    54.5400       908
    54.5600       950
    54.5800       912
    54.6000      1038
    54.6200      1008
    54.6400      1000
    54.6600      1030
    54.6800      1034
    54.7000      1002
    54.7200      1008
    54.7400       974
    54.7600       942
    54.7800       960
    54.8000      1012
    54.8200       930
    54.8400       902
    54.8600       958
    54.8800       844
    54.9000       870
    54.9200       822
    54.9400       782
    54.9600       836
    54.9800       772
    55.0000       768
    55.0200       758
    55.0400       700
    55.0600       758
    55.0800       756
    55.1000       768
    55.1200       778
    55.1400       824
    55.1600       814
    55.1800       790
    55.2000       800
    55.2200       826
    55.2400       852
    55.2600       788
    55.2800       814
    55.3000       808
    55.3200       712
    55.3400       820
    55.3600       708
    55.3800       752
    55.4000       724
    55.4200       734
    55.4400       666
    55.4600       686
    55.4800       692
    55.5000       666
    55.5200       682
    55.5400       660
    55.5600       600
    55.5800       568
    55.6000       584
    55.6200       556
    55.6400       576
    55.6600       528
    55.6800       500
    55.7000       446
    55.7200       444
    55.7400       472
    55.7600       440
    55.7800       420
    55.8000       430
    55.8200       368
    55.8400       414
    55.8600       410
    55.8800       392
    55.9000       418
    55.9200       368
    55.9400       360
    55.9600       384
    55.9800       356
    56.0000       410
    56.0200       386
    56.0400       346
    56.0600       368
    56.0800       398
    56.1000       376
    56.1200       358
    56.1400       416
    56.1600       370
    56.1800       380
    56.2000       364
    56.2200       384
    56.2400       380
    56.2600       360
    56.2800       400
    56.3000       398
    56.3200       380
    56.3400       344
    56.3600       396
    56.3800       388
    56.4000       420
    56.4200       410
    56.4400       396
    56.4600       388
    56.4800       414
    56.5000       384
    56.5200       402
    56.5400       414
    56.5600       438
    56.5800       464
    56.6000       380
    56.6200       448
    56.6400       442
    56.6600       480
    56.6800       488
    56.7000       530
    56.7200       562
    56.7400       586
    56.7600       604
    56.7800       608
    56.8000       636
    56.8200       670
    56.8400       642
    56.8600       736
    56.8800       702
    56.9000       740
    56.9200       746
    56.9400       762
    56.9600       706
    56.9800       726
    57.0000       726
    57.0200       734
    57.0400       768
    57.0600       742
    57.0800       728
    57.1000       766
    57.1200       788
    57.1400       764
    57.1600       770
    57.1800       864
    57.2000       830
    57.2200       910
    57.2400       972
    57.2600       970
    57.2800      1074
    57.3000      1076
    57.3200      1168
    57.3400      1230
    57.3600      1250
    57.3800      1248
    57.4000      1330
    57.4200      1314
    57.4400      1274
    57.4600      1288
    57.4800      1236
    57.5000      1292
    57.5200      1276
    57.5400      1266
    57.5600      1218
    57.5800      1284
    57.6000      1284
    57.6200      1224
    57.6400      1210
    57.6600      1202
    57.6800      1302
    57.7000      1354
    57.7200      1262
    57.7400      1414
    57.7600      1290
    57.7800      1320
    57.8000      1312
    57.8200      1206
    57.8400      1268
    57.8600      1128
    57.8800      1168
    57.9000      1100
    57.9200      1020
    57.9400      1028
    57.9600      1014
    57.9800       952
    58.0000       880
    58.0200       858
    58.0400       834
    58.0600       808
    58.0800       778
    58.1000       834
    58.1200       760
    58.1400       800
    58.1600       774
    58.1800       856
    58.2000       816
    58.2200       904
    58.2400       918
    58.2600       970
    58.2800      1018
    58.3000      1028
    58.3200      1072
    58.3400      1098
    58.3600      1158
    58.3800      1252
    58.4000      1266
    58.4200      1338
    58.4400      1458
    58.4600      1458
    58.4800      1624
    58.5000      1668
    58.5200      1760
    58.5400      1816
    58.5600      1838
    58.5800      1956
    58.6000      1976
    58.6200      2098
    58.6400      2160
    58.6600      2244
    58.6800      2318
    58.7000      2382
    58.7200      2406
    58.7400      2450
    58.7600      2414
    58.7800      2434
    58.8000      2344
    58.8200      2350
    58.8400      2274
    58.8600      2224
    58.8800      2036
    58.9000      2052
    58.9200      1962
    58.9400      1884
    58.9600      1686
    58.9800      1594
    59.0000      1556
    59.0200      1410
    59.0400      1432
    59.0600      1292
    59.0800      1320
    59.1000      1248
    59.1200      1206
    59.1400      1154
    59.1600      1154
    59.1800      1184
    59.2000      1164
    59.2200      1180
    59.2400      1258
    59.2600      1244
    59.2800      1330
    59.3000      1344
    59.3200      1464
    59.3400      1508
    59.3600      1606
    59.3800      1660
    59.4000      1764
    59.4200      1738
    59.4400      1748
    59.4600      1738
    59.4800      1790
    59.5000      1722
    59.5200      1734
    59.5400      1718
    59.5600      1608
    59.5800      1528
    59.6000      1496
    59.6200      1450
    59.6400      1392
    59.6600      1288
    59.6800      1292
    59.7000      1146
    59.7200      1158
    59.7400      1152
    59.7600      1044
    59.7800      1038
    59.8000       978
    59.8200       910
    59.8400       922
    59.8600       896
    59.8800       876
    59.9000       816
    59.9200       822
    59.9400       760
    59.9600       746
    59.9800       706
    60.0000       706
    60.0200       662
    60.0400       698
    60.0600       666
    60.0800       694
    60.1000       606
    60.1200       618
    60.1400       588
    60.1600       576
    60.1800       556
    60.2000       574
    60.2200       556
    60.2400       508
    60.2600       530
    60.2800       500
    60.3000       516
    60.3200       502
    60.3400       468
    60.3600       536
    60.3800       452
    60.4000       440
    60.4200       434
    60.4400       452
    60.4600       432
    60.4800       450
    60.5000       454
    60.5200       418
    60.5400       448
    60.5600       398
    60.5800       458
    60.6000       414
    60.6200       448
    60.6400       426
    60.6600       428
    60.6800       412
    60.7000       414
    60.7200       438
    60.7400       404
    60.7600       442
    60.7800       422
    60.8000       466
    60.8200       432
    60.8400       462
    60.8600       440
    60.8800       484
    60.9000       498
    60.9200       490
    60.9400       480
    60.9600       536
    60.9800       524
    61.0000       554
    61.0200       550
    61.0400       566
    61.0600       612
    61.0800       622
    61.1000       576
    61.1200       640
    61.1400       676
    61.1600       648
    61.1800       696
    61.2000       686
    61.2200       690
    61.2400       770
    61.2600       730
    61.2800       736
    61.3000       712
    61.3200       760
    61.3400       840
    61.3600       820
    61.3800       810
    61.4000       864
    61.4200       888
    61.4400       898
    61.4600       920
    61.4800      1018
    61.5000      1004
    61.5200      1090
    61.5400      1088
    61.5600      1256
    61.5800      1192
    61.6000      1298
    61.6200      1328
    61.6400      1434
    61.6600      1390
    61.6800      1470
    61.7000      1370
    61.7200      1454
    61.7400      1406
    61.7600      1386
    61.7800      1322
    61.8000      1264
    61.8200      1288
    61.8400      1212
    61.8600      1122
    61.8800      1180
    61.9000      1092
    61.9200      1036
    61.9400       998
    61.9600       930
    61.9800       920
    62.0000       854
    62.0200       886
    62.0400       796
    62.0600       780
    62.0800       752
    62.1000       726
    62.1200       676
    62.1400       682
    62.1600       638
    62.1800       630
    62.2000       682
    62.2200       600
    62.2400       628
    62.2600       596
    62.2800       560
    62.3000       588
    62.3200       548
    62.3400       534
    62.3600       524
    62.3800       516
    62.4000       500
    62.4200       474
    62.4400       514
    62.4600       482
    62.4800       462
    62.5000       486
    62.5200       466
    62.5400       424
    62.5600       436
    62.5800       426
    62.6000       452
    62.6200       420
    62.6400       428
    62.6600       438
    62.6800       436
    62.7000       392
    62.7200       382
    62.7400       406
    62.7600       372
    62.7800       400
    62.8000       422
    62.8200       406
    62.8400       394
    62.8600       340
    62.8800       366
    62.9000       364
    62.9200       378
    62.9400       346
    62.9600       366
    62.9800       346
    63.0000       332
    63.0200       312
    63.0400       368
    63.0600       368
    63.0800       316
    63.1000       326
    63.1200       290
    63.1400       334
    63.1600       300
    63.1800       308
    63.2000       320
    63.2200       328
    63.2400       304
    63.2600       286
    63.2800       312
    63.3000       304
    63.3200       316
    63.3400       298
    63.3600       314
    63.3800       340
    63.4000       312
    63.4200       328
    63.4400       372
    63.4600       358
    63.4800       366
    63.5000       316
    63.5200       362
    63.5400       362
    63.5600       384
    63.5800       406
    63.6000       402
    63.6200       406
    63.6400       438
    63.6600       436
    63.6800       454
    63.7000       476
    63.7200       488
    63.7400       528
    63.7600       558
    63.7800       582
    63.8000       634
    63.8200       594
    63.8400       654
    63.8600       672
    63.8800       752
    63.9000       752
    63.9200       782
    63.9400       824
    63.9600       808
    63.9800       804
    64.0000       794
    64.0200       794
    64.0400       742
    64.0600       742
    64.0800       734
    64.1000       648
    64.1200       666
    64.1400       666
    64.1600       652
    64.1800       652
    64.2000       562
    64.2200       538
    64.2400       492
    64.2600       462
    64.2800       462
    64.3000       474
    64.3200       416
    64.3400       446
    64.3600       388
    64.3800       392
    64.4000       340
    64.4200       358
    64.4400       334
    64.4600       328
    64.4800       340
    64.5000       356
    64.5200       344
    64.5400       296
    64.5600       326
    64.5800       318
    64.6000       300
    64.6200       292
    64.6400       314
    64.6600       284
    64.6800       286
    64.7000       282
    64.7200       292
    64.7400       310
    64.7600       296
    64.7800       310
    64.8000       286
    64.8200       286
    64.8400       284
    64.8600       288
    64.8800       318
    64.9000       300
    64.9200       272
    64.9400       292
    64.9600       302
    64.9800       288
    65.0000       320
    65.0200       322
    65.0400       322
    65.0600       318
    65.0800       354
    65.1000       364
    65.1200       358
    65.1400       370
    65.1600       412
    65.1800       378
    65.2000       386
    65.2200       422
    65.2400       438
    65.2600       442
    65.2800       414
    65.3000       468
    65.3200       454
    65.3400       424
    65.3600       456
    65.3800       456
    65.4000       426
    65.4200       386
    65.4400       434
    65.4600       442
    65.4800       416
    65.5000       414
    65.5200       410
    65.5400       436
    65.5600       382
    65.5800       376
    65.6000       376
    65.6200       392
    65.6400       372
    65.6600       390
    65.6800       394
    65.7000       402
    65.7200       358
    65.7400       364
    65.7600       346
    65.7800       334
    65.8000       328
    65.8200       354
    65.8400       322
    65.8600       314
    65.8800       322
    65.9000       296
    65.9200       296
    65.9400       310
    65.9600       298
    65.9800       342
    66.0000       324
    66.0200       248
    66.0400       294
    66.0600       278
    66.0800       304
    66.1000       286
    66.1200       272
    66.1400       302
    66.1600       294
    66.1800       282
    66.2000       332
    66.2200       296
    66.2400       286
    66.2600       280
    66.2800       312
    66.3000       288
    66.3200       292
    66.3400       312
    66.3600       310
    66.3800       286
    66.4000       304
    66.4200       334
    66.4400       366
    66.4600       346
    66.4800       324
    66.5000       370
    66.5200       368
    66.5400       394
    66.5600       412
    66.5800       342
    66.6000       402
    66.6200       426
    66.6400       432
    66.6600       458
    66.6800       424
    66.7000       474
    66.7200       458
    66.7400       480
    66.7600       512
    66.7800       534
    66.8000       550
    66.8200       574
    66.8400       616
    66.8600       626
    66.8800       590
    66.9000       608
    66.9200       614
    66.9400       624
    66.9600       680
    66.9800       720
    67.0000       660
    67.0200       632
    67.0400       654
    67.0600       634
    67.0800       652
    67.1000       622
    67.1200       604
    67.1400       596
    67.1600       612
    67.1800       614
    67.2000       546
    67.2200       544
    67.2400       490
    67.2600       494
    67.2800       492
    67.3000       474
    67.3200       486
    67.3400       464
    67.3600       448
    67.3800       438
    67.4000       450
    67.4200       406
    67.4400       428
    67.4600       376
    67.4800       434
    67.5000       390
    67.5200       372
    67.5400       408
    67.5600       368
    67.5800       360
    67.6000       336
    67.6200       378
    67.6400       330
    67.6600       370
    67.6800       410
    67.7000       346
    67.7200       364
    67.7400       390
    67.7600       392
    67.7800       420
    67.8000       412
    67.8200       424
    67.8400       424
    67.8600       456
    67.8800       458
    67.9000       488
    67.9200       504
    67.9400       560
    67.9600       568
    67.9800       592
    68.0000       686
    68.0200       672
    68.0400       708
    68.0600       722
    68.0800       742
    68.1000       784
    68.1200       828
    68.1400       874
    68.1600       814
    68.1800       908
    68.2000       852
    68.2200       926
    68.2400       956
    68.2600       926
    68.2800       930
    68.3000       906
    68.3200       848
    68.3400       840
    68.3600       888
    68.3800       808
    68.4000       708
    68.4200       726
    68.4400       694
    68.4600       694
    68.4800       700
    68.5000       632
    68.5200       620
    68.5400       574
    68.5600       570
    68.5800       516
    68.6000       536
    68.6200       514
    68.6400       476
    68.6600       510
    68.6800       498
    68.7000       450
    68.7200       488
    68.7400       436
    68.7600       428
    68.7800       430
    68.8000       440
    68.8200       408
    68.8400       394
    68.8600       404
    68.8800       418
    68.9000       422
    68.9200       416
    68.9400       428
    68.9600       414
    68.9800       430
    69.0000       418
    69.0200       438
    69.0400       400
    69.0600       384
    69.0800       378
    69.1000       404
    69.1200       408
    69.1400       436
    69.1600       436
    69.1800       434
    69.2000       460
    69.2200       462
    69.2400       442
    69.2600       460
    69.2800       472
    69.3000       522
    69.3200       474
    69.3400       538
    69.3600       534
    69.3800       544
    69.4000       558
    69.4200       538
    69.4400       538
    69.4600       534
    69.4800       528
    69.5000       536
    69.5200       546
    69.5400       506
    69.5600       502
    69.5800       470
    69.6000       492
    69.6200       422
    69.6400       492
    69.6600       478
    69.6800       452
    69.7000       432
    69.7200       428
    69.7400       402
    69.7600       422
    69.7800       408
    69.8000       430
    69.8200       408
    69.8400       412
    69.8600       410
    69.8800       418
    69.9000       392
    69.9200       426
    69.9400       446
    69.9600       452
    69.9800       432
    70.0000       440
    70.0200       430
    70.0400       402
    70.0600       338
    70.0800       410
    70.1000       412
    70.1200       400
    70.1400       390
    70.1600       360
    70.1800       340
    70.2000       354
    70.2200       348
    70.2400       340
    70.2600       330
    70.2800       320
    70.3000       328
    70.3200       334
    70.3400       340
    70.3600       338
    70.3800       304
    70.4000       292
    70.4200       288
    70.4400       298
    70.4600       284
    70.4800       304
    70.5000       266
    70.5200       292
    70.5400       294
    70.5600       298
    70.5800       294
    70.6000       274
    70.6200       304
    70.6400       286
    70.6600       304
    70.6800       288
    70.7000       280
    70.7200       252
    70.7400       258
    70.7600       286
    70.7800       254
    70.8000       254
    70.8200       296
    70.8400       248
    70.8600       280
    70.8800       280
    70.9000       262
    70.9200       224
    70.9400       276
    70.9600       250
    70.9800       266
    71.0000       286
    71.0200       242
    71.0400       256
    71.0600       266
    71.0800       286
    71.1000       286
    71.1200       284
    71.1400       262
    71.1600       314
    71.1800       286
    71.2000       302
    71.2200       334
    71.2400       340
    71.2600       344
    71.2800       378
    71.3000       376
    71.3200       374
    71.3400       370
    71.3600       450
    71.3800       414
    71.4000       438
    71.4200       432
    71.4400       496
    71.4600       482
    71.4800       482
    71.5000       502
    71.5200       546
    71.5400       510
    71.5600       508
    71.5800       506
    71.6000       550
    71.6200       514
    71.6400       530
    71.6600       566
    71.6800       566
    71.7000       512
    71.7200       514
    71.7400       458
    71.7600       508
    71.7800       512
    71.8000       464
    71.8200       502
    71.8400       502
    71.8600       450
    71.8800       492
    71.9000       476
    71.9200       458
    71.9400       414
    71.9600       414
    71.9800       436
    72.0000       424
    72.0200       452
    72.0400       450
    72.0600       440
    72.0800       414
    72.1000       422
    72.1200       430
    72.1400       468
    72.1600       454
    72.1800       468
    72.2000       464
    72.2200       468
    72.2400       448
    72.2600       462
    72.2800       472
    72.3000       472
    72.3200       526
    72.3400       466
    72.3600       494
    72.3800       518
    72.4000       500
    72.4200       486
    72.4400       550
    72.4600       494
    72.4800       514
    72.5000       508
    72.5200       592
    72.5400       608
    72.5600       580
    72.5800       582
    72.6000       564
    72.6200       582
    72.6400       590
    72.6600       562
    72.6800       628
    72.7000       580
    72.7200       600
    72.7400       552
    72.7600       590
    72.7800       548
    72.8000       558
    72.8200       564
    72.8400       508
    72.8600       538
    72.8800       534
    72.9000       500
    72.9200       486
    72.9400       534
    72.9600       480
    72.9800       492
    73.0000       442
    73.0200       464
    73.0400       440
    73.0600       466
    73.0800       450
    73.1000       424
    73.1200       428
    73.1400       430
    73.1600       418
    73.1800       422
    73.2000       396
    73.2200       382
    73.2400       368
    73.2600       378
    73.2800       342
    73.3000       356
    73.3200       328
    73.3400       302
    73.3600       304
    73.3800       348
    73.4000       310
    73.4200       302
    73.4400       328
    73.4600       298
    73.4800       308
    73.5000       286
    73.5200       306
    73.5400       286
    73.5600       304
    73.5800       294
    73.6000       268
    73.6200       294
    73.6400       290
    73.6600       306
    73.6800       274
    73.7000       284
    73.7200       270
    73.7400       270
    73.7600       276
    73.7800       298
    73.8000       292
    73.8200       298
    73.8400       262
    73.8600       284
    73.8800       276
    73.9000       288
    73.9200       294
    73.9400       270
    73.9600       258
    73.9800       258
    74.0000       284
    74.0200       264
    74.0400       272
    74.0600       286
    74.0800       284
    74.1000       274
    74.1200       286
    74.1400       294
    74.1600       308
    74.1800       296
    74.2000       272
    74.2200       266
    74.2400       282
    74.2600       300
    74.2800       270
    74.3000       270
    74.3200       284
    74.3400       296
    74.3600       256
    74.3800       266
    74.4000       252
    74.4200       266
    74.4400       264
    74.4600       206
    74.4800       240
    74.5000       246
    74.5200       252
    74.5400       238
    74.5600       236
    74.5800       250
    74.6000       230
    74.6200       224
    74.6400       216
    74.6600       238
    74.6800       204
    74.7000       200
    74.7200       192
    74.7400       240
    74.7600       214
    74.7800       236
    74.8000       230
    74.8200       220
    74.8400       236
    74.8600       218
    74.8800       210
    74.9000       174
    74.9200       214
    74.9400       222
    74.9600       236
    74.9800       234
    75.0000       252
    75.0200       218
    75.0400       222
    75.0600       220
    75.0800       244
    75.1000       234
    75.1200       214
    75.1400       240
    75.1600       204
    75.1800       230
    75.2000       218
    75.2200       248
    75.2400       212
    75.2600       224
    75.2800       228
    75.3000       256
    75.3200       256
    75.3400       252
    75.3600       258
    75.3800       256
    75.4000       264
    75.4200       226
    75.4400       288
    75.4600       262
    75.4800       246
    75.5000       248
    75.5200       276
    75.5400       292
    75.5600       278
    75.5800       308
    75.6000       262
    75.6200       286
    75.6400       296
    75.6600       298
    75.6800       266
    75.7000       262
    75.7200       284
    75.7400       302
    75.7600       264
    75.7800       270
    75.8000       300
    75.8200       250
    75.8400       288
    75.8600       256
    75.8800       256
    75.9000       284
    75.9200       304
    75.9400       268
    75.9600       264
    75.9800       276
    76.0000       290
    76.0200       272
    76.0400       282
    76.0600       276
    76.0800       312
    76.1000       256
    76.1200       296
    76.1400       298
    76.1600       288
    76.1800       274
    76.2000       282
    76.2200       282
    76.2400       284
    76.2600       298
    76.2800       300
    76.3000       314
    76.3200       298
    76.3400       342
    76.3600       318
    76.3800       332
    76.4000       304
    76.4200       320
    76.4400       350
    76.4600       366
    76.4800       340
    76.5000       322
    76.5200       318
    76.5400       350
    76.5600       388
    76.5800       354
    76.6000       374
    76.6200       426
    76.6400       392
    76.6600       366
    76.6800       458
    76.7000       392
    76.7200       432
    76.7400       434
    76.7600       420
    76.7800       436
    76.8000       424
    76.8200       468
    76.8400       400
    76.8600       408
    76.8800       410
    76.9000       412
    76.9200       368
    76.9400       398
    76.9600       408
    76.9800       378
    77.0000       384
    77.0200       372
    77.0400       368
    77.0600       400
    77.0800       358
    77.1000       374
    77.1200       404
    77.1400       394
    77.1600       402
    77.1800       356
    77.2000       402
    77.2200       394
    77.2400       380
    77.2600       418
    77.2800       424
    77.3000       434
    77.3200       458
    77.3400       434
    77.3600       462
    77.3800       464
    77.4000       482
    77.4200       490
    77.4400       598
    77.4600       576
    77.4800       510
    77.5000       532
    77.5200       592
    77.5400       626
    77.5600       626
    77.5800       618
    77.6000       668
    77.6200       674
    77.6400       696
    77.6600       684
    77.6800       684
    77.7000       640
    77.7200       680
    77.7400       690
    77.7600       608
    77.7800       628
    77.8000       610
    77.8200       620
    77.8400       636
    77.8600       590
    77.8800       584
    77.9000       558
    77.9200       562
    77.9400       542
    77.9600       524
    77.9800       484
    78.0000       534
    78.0200       482
    78.0400       468
    78.0600       440
    78.0800       396
    78.1000       430
    78.1200       386
    78.1400       412
    78.1600       404
    78.1800       412
    78.2000       364
    78.2200       384
    78.2400       346
    78.2600       412
    78.2800       370
    78.3000       368
    78.3200       370
    78.3400       358
    78.3600       352
    78.3800       366
    78.4000       374
    78.4200       412
    78.4400       392
    78.4600       372
    78.4800       358
    78.5000       376
    78.5200       370
    78.5400       384
    78.5600       398
    78.5800       384
    78.6000       428
    78.6200       416
    78.6400       446
    78.6600       440
    78.6800       396
    78.7000       452
    78.7200       470
    78.7400       420
    78.7600       416
    78.7800       412
    78.8000       418
    78.8200       420
    78.8400       410
    78.8600       424
    78.8800       376
    78.9000       374
    78.9200       382
    78.9400       378
    78.9600       340
    78.9800       376
    79.0000       330
    79.0200       328
    79.0400       348
    79.0600       306
    79.0800       344
    79.1000       320
    79.1200       346
    79.1400       318
    79.1600       316
    79.1800       282
    79.2000       290
    79.2200       324
    79.2400       262
    79.2600       290
    79.2800       272
    79.3000       280
    79.3200       276
    79.3400       252
    79.3600       278
    79.3800       274
    79.4000       284
    79.4200       278
    79.4400       274
    79.4600       276
    79.4800       296
    79.5000       276
    79.5200       270
    79.5400       278
    79.5600       244
    79.5800       260
    79.6000       266
    79.6200       304
    79.6400       272
    79.6600       282
    79.6800       260
    79.7000       282
    79.7200       284
    79.7400       300
    79.7600       272
    79.7800       254
    79.8000       266
    79.8200       288
    79.8400       276
    79.8600       290
    79.8800       274
    79.9000       248
    79.9200       240
    79.9400       258
    79.9600       304
    79.9800       284
    80.0000       280
    80.0200       272
    80.0400       298
    80.0600       268
    80.0800       268
    80.1000       290
    80.1200       268
    80.1400       278
    80.1600       272
    80.1800       280
    80.2000       298
    80.2200       296
    80.2400       260
    80.2600       272
    80.2800       272
    80.3000       260
    80.3200       266
    80.3400       296
    80.3600       284
    80.3800       288
    80.4000       262
    80.4200       246
    80.4400       256
    80.4600       286
    80.4800       238
    80.5000       270
    80.5200       272
    80.5400       250
    80.5600       280
    80.5800       234
    80.6000       246
    80.6200       228
    80.6400       270
    80.6600       254
    80.6800       246
    80.7000       248
    80.7200       264
    80.7400       268
    80.7600       248
    80.7800       268
    80.8000       250
    80.8200       240
    80.8400       216
    80.8600       262
    80.8800       250
    80.9000       256
    80.9200       240
    80.9400       224
    80.9600       230
    80.9800       238
    81.0000       236
    81.0200       270
    81.0400       258
    81.0600       260
    81.0800       224
    81.1000       230
    81.1200       266
    81.1400       244
    81.1600       228
    81.1800       218
    81.2000       230
    81.2200       236
    81.2400       274
    81.2600       274
    81.2800       262
    81.3000       282
    81.3200       278
    81.3400       260
    81.3600       274
    81.3800       304
    81.4000       276
    81.4200       274
    81.4400       276
    81.4600       250
    81.4800       282
    81.5000       286
    81.5200       306
    81.5400       288
    81.5600       294
    81.5800       318
    81.6000       296
    81.6200       304
    81.6400       232
    81.6600       266
    81.6800       310
    81.7000       282
    81.7200       272
    81.7400       290
    81.7600       274
    81.7800       270
    81.8000       308
    81.8200       278
    81.8400       312
    81.8600       302
    81.8800       290
    81.9000       316
    81.9200       302
    81.9400       288
    81.9600       322
    81.9800       334
    82.0000       320
    82.0200       316
    82.0400       342
    82.0600       344
    82.0800       336
    82.1000       314
    82.1200       334
    82.1400       350
    82.1600       366
    82.1800       348
    82.2000       328
    82.2200       390
    82.2400       368
    82.2600       424
    82.2800       400
    82.3000       444
    82.3200       406
    82.3400       398
    82.3600       424
    82.3800       410
    82.4000       438
    82.4200       392
    82.4400       432
    82.4600       420
    82.4800       420
    82.5000       482
    82.5200       438
    82.5400       470
    82.5600       484
    82.5800       518
    82.6000       488
    82.6200       486
    82.6400       544
    82.6600       582
    82.6800       612
    82.7000       554
    82.7200       612
    82.7400       626
    82.7600       604
    82.7800       674
    82.8000       614
    82.8200       664
    82.8400       688
    82.8600       698
    82.8800       714
    82.9000       688
    82.9200       786
    82.9400       726
    82.9600       788
    82.9800       778
    83.0000       776
    83.0200       752
    83.0400       724
    83.0600       724
    83.0800       686
    83.1000       722
    83.1200       686
    83.1400       676
    83.1600       716
    83.1800       690
    83.2000       648
    83.2200       630
    83.2400       606
    83.2600       606
    83.2800       610
    83.3000       604
    83.3200       538
    83.3400       546
    83.3600       518
    83.3800       520
    83.4000       476
    83.4200       500
    83.4400       518
    83.4600       478
    83.4800       474
    83.5000       450
    83.5200       406
    83.5400       440
    83.5600       398
    83.5800       430
    83.6000       462
    83.6200       390
    83.6400       410
    83.6600       350
    83.6800       358
    83.7000       354
    83.7200       372
    83.7400       352
    83.7600       378
    83.7800       352
    83.8000       356
    83.8200       334
    83.8400       330
    83.8600       330
    83.8800       314
    83.9000       346
    83.9200       308
    83.9400       336
    83.9600       340
    83.9800       318
    84.0000       334
    84.0200       338
    84.0400       338
    84.0600       320
    84.0800       354
    84.1000       332
    84.1200       350
    84.1400       300
    84.1600       322
    84.1800       310
    84.2000       350
    84.2200       316
    84.2400       316
    84.2600       320
    84.2800       312
    84.3000       306
    84.3200       302
    84.3400       298
    84.3600       332
    84.3800       308
    84.4000       328
    84.4200       330
    84.4400       292
    84.4600       288
    84.4800       310
    84.5000       278
    84.5200       326
    84.5400       302
    84.5600       302
    84.5800       318
    84.6000       278
    84.6200       300
    84.6400       284
    84.6600       276
    84.6800       284
    84.7000       256
    84.7200       308
    84.7400       332
    84.7600       290
    84.7800       300
    84.8000       310
    84.8200       276
    84.8400       262
    84.8600       310
    84.8800       300
    84.9000       346
    84.9200       282
    84.9400       278
    84.9600       290
    84.9800       294
    85.0000       310
    85.0200       266
    85.0400       286
    85.0600       284
    85.0800       296
    85.1000       250
    85.1200       292
    85.1400       280
    85.1600       248
    85.1800       298
    85.2000       284
    85.2200       290
    85.2400       264
    85.2600       288
    85.2800       288
    85.3000       276
    85.3200       290
    85.3400       302
    85.3600       308
    85.3800       292
    85.4000       320
    85.4200       296
    85.4400       318
    85.4600       290
    85.4800       324
    85.5000       310
    85.5200       308
    85.5400       344
    85.5600       300
    85.5800       324
    85.6000       308
    85.6200       310
    85.6400       270
    85.6600       296
    85.6800       304
    85.7000       308
    85.7200       290
    85.7400       264
    85.7600       280
    85.7800       280
    85.8000       288
    85.8200       278
    85.8400       288
    85.8600       250
    85.8800       250
    85.9000       262
    85.9200       272
    85.9400       274
    85.9600       294
    85.9800       268
    86.0000       272
    86.0200       290
    86.0400       268
    86.0600       248
    86.0800       256
    86.1000       262
    86.1200       262
    86.1400       246
    86.1600       268
    86.1800       256
    86.2000       276
    86.2200       242
    86.2400       258
    86.2600       266
    86.2800       268
    86.3000       262
    86.3200       282
    86.3400       284
    86.3600       236
    86.3800       264
    86.4000       284
    86.4200       266
    86.4400       266
    86.4600       248
    86.4800       266
    86.5000       288
    86.5200       264
    86.5400       310
    86.5600       276
    86.5800       280
    86.6000       298
    86.6200       276
    86.6400       306
    86.6600       280
    86.6800       286
    86.7000       294
    86.7200       304
    86.7400       318
    86.7600       348
    86.7800       340
    86.8000       316
    86.8200       332
    86.8400       340
    86.8600       366
    86.8800       372
    86.9000       330
    86.9200       348
    86.9400       408
    86.9600       412
    86.9800       396
    87.0000       388
    87.0200       386
    87.0400       384
    87.0600       368
    87.0800       392
    87.1000       376
    87.1200       372
    87.1400       388
    87.1600       376
    87.1800       364
    87.2000       370
    87.2200       392
    87.2400       324
    87.2600       350
    87.2800       352
    87.3000       364
    87.3200       390
    87.3400       338
    87.3600       322
    87.3800       320
    87.4000       320
    87.4200       296
    87.4400       336
    87.4600       336
    87.4800       310
    87.5000       338
    87.5200       304
    87.5400       348
    87.5600       328
    87.5800       328
    87.6000       332
    87.6200       338
    87.6400       362
    87.6600       370
    87.6800       342
    87.7000       364
    87.7200       402
    87.7400       380
    87.7600       390
    87.7800       432
    87.8000       380
    87.8200       404
    87.8400       368
    87.8600       430
    87.8800       438
    87.9000       458
    87.9200       424
    87.9400       416
    87.9600       428
    87.9800       424
    88.0000       400
    88.0200       458
    88.0400       416
    88.0600       424
    88.0800       478
    88.1000       438
    88.1200       444
    88.1400       396
    88.1600       424
    88.1800       430
    88.2000       400
    88.2200       428
    88.2400       418
    88.2600       400
    88.2800       448
    88.3000       382
    88.3200       396
    88.3400       400
    88.3600       402
    88.3800       376
    88.4000       338
    88.4200       360
    88.4400       372
    88.4600       322
    88.4800       348
    88.5000       382
    88.5200       302
    88.5400       348
    88.5600       342
    88.5800       330
    88.6000       384
    88.6200       330
    88.6400       328
    88.6600       326
    88.6800       310
    88.7000       334
    88.7200       312
    88.7400       298
    88.7600       316
    88.7800       306
    88.8000       346
    88.8200       300
    88.8400       300
    88.8600       326
    88.8800       310
    88.9000       278
    88.9200       320
    88.9400       282
    88.9600       280
    88.9800       308
    89.0000       276
    89.0200       300
    89.0400       306
    89.0600       236
    89.0800       298
    89.1000       254
    89.1200       270
    89.1400       268
    89.1600       264
    89.1800       272
    89.2000       278
    89.2200       286
    89.2400       294
    89.2600       280
    89.2800       272
    89.3000       262
    89.3200       264
    89.3400       262
    89.3600       290
    89.3800       262
    89.4000       272
    89.4200       266
    89.4400       266
    89.4600       280
    89.4800       274
    89.5000       290
    89.5200       278
    89.5400       302
    89.5600       270
    89.5800       262
    89.6000       264
    89.6200       296
    89.6400       252
    89.6600       302
    89.6800       302
    89.7000       272
    89.7200       282
    89.7400       284
    89.7600       296
    89.7800       320
    89.8000       320
    89.8200       314
    89.8400       274
    89.8600       332
    89.8800       294
    89.9000       318
    89.9200       320
    89.9400       306
    89.9600       308
    89.9800       286
    90.0000       304
