    10.0000       390
    10.0200       374
    10.0400       376
    10.0600       408
    10.0800       412
    10.1000       410
    10.1200       432
    10.1400       390
    10.1600       396
    10.1800       394
    10.2000       354
    10.2200       420
    10.2400       360
    10.2600       306
    10.2800       340
    10.3000       374
    10.3200       366
    10.3400       356
    10.3600       382
    10.3800       354
    10.4000       364
    10.4200       352
    10.4400       340
    10.4600       344
    10.4800       316
    10.5000       356
    10.5200       320
    10.5400       378
    10.5600       352
    10.5800       334
    10.6000       372
    10.6200       352
    10.6400       340
    10.6600       360
    10.6800       338
    10.7000       342
    10.7200       340
    10.7400       332
    10.7600       356
    10.7800       326
    10.8000       364
    10.8200       330
    10.8400       366
    10.8600       310
    10.8800       318
    10.9000       332
    10.9200       344
    10.9400       344
    10.9600       342
    10.9800       334
    11.0000       320
    11.0200       330
    11.0400       324
    11.0600       322
    11.0800       322
    11.1000       320
    11.1200       366
    11.1400       356
    11.1600       344
    11.1800       322
    11.2000       368
    11.2200       328
    11.2400       340
    11.2600       342
    11.2800       362
    11.3000       352
    11.3200       338
    11.3400       322
    11.3600       316
    11.3800       320
    11.4000       324
    11.4200       332
    11.4400       312
    11.4600       350
    11.4800       336
    11.5000       312
    11.5200       368
    11.5400       342
    11.5600       342
    11.5800       358
    11.6000       374
    11.6200       322
    11.6400       340
    11.6600       364
    11.6800       338
    11.7000       330
    11.7200       328
    11.7400       348
    11.7600       348
    11.7800       370
    11.8000       316
    11.8200       362
    11.8400       356
    11.8600       356
    11.8800       336
    11.9000       348
    11.9200       356
    11.9400       394
    11.9600       406
    11.9800       374
    12.0000       398
    12.0200       386
    12.0400       430
    12.0600       446
    12.0800       426
    12.1000       424
    12.1200       456
    12.1400       498
    12.1600       548
    12.1800       514
    12.2000       494
    12.2200       528
    12.2400       492
    12.2600       504
    12.2800       428
    12.3000       442
    12.3200       392
    12.3400       390
    12.3600       354
    12.3800       376
    12.4000       326
    12.4200       330
    12.4400       324
    12.4600       316
    12.4800       324
    12.5000       338
    12.5200       294
    12.5400       302
    12.5600       328
    12.5800       316
    12.6000       324
    12.6200       296
    12.6400       274
    12.6600       272
    12.6800       312
    12.7000       316
    12.7200       322
    12.7400       302
    12.7600       304
    12.7800       330
    12.8000       322
    12.8200       304
    12.8400       296
    12.8600       320
    12.8800       308
    12.9000       314
    12.9200       282
    12.9400       300
    12.9600       312
    12.9800       264
    13.0000       270
    13.0200       286
    13.0400       272
    13.0600       288
    13.0800       310
    13.1000       284
    13.1200       276
    13.1400       280
    13.1600       274
    13.1800       316
    13.2000       310
    13.2200       294
    13.2400       292
    13.2600       284
    13.2800       290
    13.3000       286
    13.3200       300
    13.3400       284
    13.3600       302
    13.3800       270
    13.4000       286
    13.4200       272
    13.4400       288
    13.4600       244
    13.4800       264
    13.5000       262
    13.5200       286
    13.5400       270
    13.5600       272
    13.5800       296
    13.6000       300
    13.6200       296
    13.6400       274
    13.6600       254
    13.6800       284
    13.7000       260
    13.7200       298
    13.7400       306
    13.7600       292
    13.7800       246
    13.8000       284
    13.8200       278
    13.8400       256
    13.8600       266
    13.8800       268
    13.9000       288
    13.9200       268
    13.9400       264
    13.9600       266
    13.9800       286
    14.0000       266
    14.0200       274
    14.0400       244
    14.0600       260
    14.0800       288
    14.1000       284
    14.1200       240
    14.1400       266
    14.1600       254
    14.1800       264
    14.2000       264
    14.2200       274
    14.2400       244
    14.2600       272
    14.2800       246
    14.3000       276
    14.3200       314
    14.3400       268
    14.3600       288
    14.3800       250
    14.4000       282
    14.4200       244
    14.4400       286
    14.4600       298
    14.4800       254
    14.5000       294
    14.5200       288
    14.5400       278
    14.5600       246
    14.5800       268
    14.6000       282
    14.6200       294
    14.6400       274
    14.6600       288
    14.6800       310
    14.7000       320
    14.7200       304
    14.7400       288
    14.7600       290
    14.7800       320
    14.8000       304
    14.8200       336
    14.8400       364
    14.8600       352
    14.8800       338
    14.9000       394
    14.9200       384
    14.9400       454
    14.9600       450
    14.9800       468
    15.0000       478
    15.0200       540
    15.0400       540
    15.0600       562
    15.0800       642
    15.1000       668
    15.1200       662
    15.1400       724
    15.1600       808
    15.1800       838
    15.2000       774
    15.2200       896
    15.2400       812
    15.2600       746
    15.2800       628
    15.3000       542
    15.3200       510
    15.3400       460
    15.3600       392
    15.3800       406
    15.4000       364
    15.4200       366
    15.4400       324
    15.4600       308
    15.4800       334
    15.5000       326
    15.5200       314
    15.5400       288
    15.5600       276
    15.5800       306
    15.6000       268
    15.6200       260
    15.6400       300
    15.6600       258
    15.6800       296
    15.7000       270
    15.7200       252
    15.7400       272
    15.7600       226
    15.7800       260
    15.8000       246
    15.8200       306
    15.8400       266
    15.8600       272
    15.8800       256
    15.9000       256
    15.9200       284
    15.9400       258
    15.9600       272
    15.9800       264
    16.0000       262
    16.0200       266
    16.0400       272
    16.0600       286
    16.0800       238
    16.1000       290
    16.1200       290
    16.1400       284
    16.1600       264
    16.1800       276
    16.2000       302
    16.2200       312
    16.2400       318
    16.2600       302
    16.2800       288
    16.3000       294
    16.3200       330
    16.3400       332
    16.3600       316
    16.3800       278
    16.4000       312
    16.4200       278
    16.4400       284
    16.4600       288
    16.4800       278
    16.5000       292
    16.5200       312
    16.5400       306
    16.5600       308
    16.5800       322
    16.6000       334
    16.6200       302
    16.6400       318
    16.6600       352
    16.6800       370
    16.7000       368
    16.7200       378
    16.7400       404
    16.7600       442
    16.7800       452
    16.8000       490
    16.8200       518
    16.8400       542
    16.8600       598
    16.8800       688
    16.9000       716
    16.9200       808
    16.9400       818
    16.9600       944
    16.9800      1034
    17.0000      1108
    17.0200      1190
    17.0400      1218
    17.0600      1254
    17.0800      1116
    17.1000      1042
    17.1200       942
    17.1400       894
    17.1600       752
    17.1800       716
    17.2000       640
    17.2200       628
    17.2400       692
    17.2600       630
    17.2800       586
    17.3000       588
    17.3200       594
    17.3400       568
    17.3600       498
    17.3800       496
    17.4000       472
    17.4200       454
    17.4400       454
    17.4600       426
    17.4800       382
    17.5000       390
    17.5200       418
    17.5400       408
    17.5600       350
    17.5800       382
    17.6000       344
    17.6200       348
    17.6400       376
    17.6600       412
    17.6800       400
    17.7000       380
    17.7200       388
    17.7400       456
    17.7600       440
    17.7800       492
    17.8000       476
    17.8200       488
    17.8400       464
    17.8600       522
    17.8800       434
    17.9000       420
    17.9200       398
    17.9400       392
    17.9600       362
    17.9800       312
    18.0000       304
    18.0200       284
    18.0400       264
    18.0600       266
    18.0800       284
    18.1000       278
    18.1200       240
    18.1400       242
    18.1600       254
    18.1800       262
    18.2000       238
    18.2200       230
    18.2400       246
    18.2600       260
    18.2800       226
    18.3000       240
    18.3200       236
    18.3400       226
    18.3600       262
    18.3800       254
    18.4000       242
    18.4200       242
    18.4400       248
    18.4600       216
    18.4800       240
    18.5000       248
    18.5200       246
    18.5400       252
    18.5600       222
    18.5800       262
    18.6000       266
    18.6200       238
    18.6400       218
    18.6600       218
    18.6800       236
    18.7000       238
    18.7200       254
    18.7400       262
    18.7600       238
    18.7800       254
    18.8000       262
    18.8200       260
    18.8400       262
    18.8600       254
    18.8800       250
    18.9000       274
    18.9200       282
    18.9400       260
    18.9600       282
    18.9800       312
    19.0000       308
    19.0200       314
    19.0400       342
    19.0600       352
    19.0800       334
    19.1000       396
    19.1200       392
    19.1400       480
    19.1600       480
    19.1800       510
    19.2000       558
    19.2200       598
    19.2400       658
    19.2600       726
    19.2800       820
    19.3000       866
    19.3200      1006
    19.3400      1048
    19.3600      1240
    19.3800      1428
    19.4000      1558
    19.4200      1906
    19.4400      1974
    19.4600      2346
    19.4800      2730
    19.5000      2874
    19.5200      3176
    19.5400      3230
    19.5600      3190
    19.5800      3018
    19.6000      2592
    19.6200      2396
    19.6400      2100
    19.6600      1682
    19.6800      1442
    19.7000      1340
    19.7200      1182
    19.7400      1218
    19.7600      1242
    19.7800      1282
    19.8000      1376
    19.8200      1488
    19.8400      1536
    19.8600      1658
    19.8800      1792
    19.9000      2052
    19.9200      2234
    19.9400      2370
    19.9600      2380
    19.9800      2530
    20.0000      2450
    20.0200      2394
    20.0400      2128
    20.0600      1782
    20.0800      1564
    20.1000      1272
    20.1200      1070
    20.1400       930
    20.1600       792
    20.1800       678
    20.2000       664
    20.2200       650
    20.2400       574
    20.2600       582
    20.2800       554
    20.3000       494
    20.3200       474
    20.3400       470
    20.3600       488
    20.3800       416
    20.4000       386
    20.4200       384
    20.4400       368
    20.4600       358
    20.4800       332
    20.5000       320
    20.5200       320
    20.5400       316
    20.5600       316
    20.5800       296
    20.6000       326
    20.6200       276
    20.6400       310
    20.6600       306
    20.6800       314
    20.7000       312
    20.7200       304
    20.7400       252
    20.7600       324
    20.7800       322
    20.8000       356
    20.8200       312
    20.8400       316
    20.8600       346
    20.8800       358
    20.9000       364
    20.9200       390
    20.9400       476
    20.9600       536
    20.9800       520
    21.0000       550
    21.0200       544
    21.0400       654
    21.0600       694
    21.0800       720
    21.1000       812
    21.1200       872
    21.1400       948
    21.1600      1076
    21.1800      1086
    21.2000      1142
    21.2200      1146
    21.2400      1114
    21.2600      1084
    21.2800      1072
    21.3000       946
    21.3200       922
    21.3400       814
    21.3600       700
    21.3800       600
    21.4000       552
    21.4200       458
    21.4400       440
    21.4600       412
    21.4800       350
    21.5000       350
    21.5200       332
    21.5400       350
    21.5600       336
    21.5800       312
    21.6000       272
    21.6200       288
    21.6400       274
    21.6600       284
    21.6800       260
    21.7000       258
    21.7200       252
    21.7400       228
    21.7600       236
    21.7800       240
    21.8000       252
    21.8200       236
    21.8400       240
    21.8600       250
    21.8800       258
    21.9000       264
    21.9200       260
    21.9400       262
    21.9600       226
    21.9800       242
    22.0000       226
    22.0200       244
    22.0400       246
    22.0600       236
    22.0800       232
    22.1000       256
    22.1200       258
    22.1400       262
    22.1600       272
    22.1800       278
    22.2000       312
    22.2200       276
    22.2400       292
    22.2600       272
    22.2800       288
    22.3000       314
    22.3200       334
    22.3400       360
    22.3600       370
    22.3800       376
    22.4000       376
    22.4200       422
    22.4400       428
    22.4600       498
    22.4800       534
    22.5000       610
    22.5200       606
    22.5400       714
    22.5600       820
    22.5800       934
    22.6000      1018
    22.6200      1142
    22.6400      1258
    22.6600      1420
    22.6800      1732
    22.7000      2002
    22.7200      2182
    22.7400      2472
    22.7600      2870
    22.7800      3344
    22.8000      3856
    22.8200      4128
    22.8400      4392
    22.8600      4528
    22.8800      4516
    22.9000      4178
    22.9200      3768
    22.9400      3112
    22.9600      2634
    22.9800      2232
    23.0000      1698
    23.0200      1434
    23.0400      1262
    23.0600      1116
    23.0800      1020
    23.1000       840
    23.1200       790
    23.1400       736
    23.1600       678
    23.1800       600
    23.2000       538
    23.2200       560
    23.2400       540
    23.2600       502
    23.2800       490
    23.3000       424
    23.3200       400
    23.3400       384
    23.3600       358
    23.3800       338
    23.4000       332
    23.4200       318
    23.4400       350
    23.4600       302
    23.4800       278
    23.5000       336
    23.5200       320
    23.5400       290
    23.5600       332
    23.5800       270
    23.6000       304
    23.6200       310
    23.6400       262
    23.6600       284
    23.6800       280
    23.7000       270
    23.7200       266
    23.7400       282
    23.7600       304
    23.7800       282
    23.8000       274
    23.8200       312
    23.8400       292
    23.8600       282
    23.8800       284
    23.9000       332
    23.9200       328
    23.9400       306
    23.9600       318
    23.9800       296
    24.0000       328
    24.0200       320
    24.0400       354
    24.0600       336
    24.0800       320
    24.1000       358
    24.1200       362
    24.1400       346
    24.1600       372
    24.1800       386
    24.2000       374
    24.2200       386
    24.2400       458
    24.2600       438
    24.2800       504
    24.3000       542
    24.3200       570
    24.3400       666
    24.3600       698
    24.3800       744
    24.4000       782
    24.4200       906
    24.4400       958
    24.4600      1004
    24.4800      1058
    24.5000      1104
    24.5200      1092
    24.5400      1090
    24.5600       986
    24.5800      1000
    24.6000       990
    24.6200       928
    24.6400       860
    24.6600       814
    24.6800       790
    24.7000       720
    24.7200       694
    24.7400       650
    24.7600       596
    24.7800       580
    24.8000       546
    24.8200       536
    24.8400       504
    24.8600       484
    24.8800       438
    24.9000       402
    24.9200       458
    24.9400       392
    24.9600       384
    24.9800       408
    25.0000       436
    25.0200       436
    25.0400       418
    25.0600       456
    25.0800       410
    25.1000       430
    25.1200       436
    25.1400       472
    25.1600       506
    25.1800       520
    25.2000       548
    25.2200       626
    25.2400       604
    25.2600       640
    25.2800       674
    25.3000       722
    25.3200       828
    25.3400       816
    25.3600       882
    25.3800       868
    25.4000       862
    25.4200       892
    25.4400       822
    25.4600       888
    25.4800       906
    25.5000       902
    25.5200       958
    25.5400      1084
    25.5600      1096
    25.5800      1122
    25.6000      1078
    25.6200      1120
    25.6400      1014
    25.6600      1016
    25.6800       886
    25.7000       802
    25.7200       650
    25.7400       624
    25.7600       582
    25.7800       504
    25.8000       438
    25.8200       428
    25.8400       382
    25.8600       428
    25.8800       424
    25.9000       386
    25.9200       334
    25.9400       374
    25.9600       316
    25.9800       368
    26.0000       328
    26.0200       310
    26.0400       362
    26.0600       322
    26.0800       338
    26.1000       360
    26.1200       326
    26.1400       352
    26.1600       358
    26.1800       396
    26.2000       372
    26.2200       360
    26.2400       408
    26.2600       416
    26.2800       454
    26.3000       444
    26.3200       438
    26.3400       478
    26.3600       542
    26.3800       532
    26.4000       532
    26.4200       566
    26.4400       580
    26.4600       530
    26.4800       566
    26.5000       580
    26.5200       604
    26.5400       582
    26.5600       590
    26.5800       624
    26.6000       656
    26.6200       630
    26.6400       590
    26.6600       600
    26.6800       614
    26.7000       616
    26.7200       590
    26.7400       564
    26.7600       584
    26.7800       494
    26.8000       456
    26.8200       448
    26.8400       402
    26.8600       398
    26.8800       400
    26.9000       364
    26.9200       350
    26.9400       332
    26.9600       368
    26.9800       326
    27.0000       358
    27.0200       356
    27.0400       376
    27.0600       354
    27.0800       362
    27.1000       384
    27.1200       416
    27.1400       372
    27.1600       398
    27.1800       454
    27.2000       384
    27.2200       410
    27.2400       438
    27.2600       452
    27.2800       512
    27.3000       478
    27.3200       524
    27.3400       562
    27.3600       604
    27.3800       656
    27.4000       702
    27.4200       674
    27.4400       740
    27.4600       742
    27.4800       796
    27.5000       712
    27.5200       690
    27.5400       706
    27.5600       688
    27.5800       714
    27.6000       664
    27.6200       584
    27.6400       552
    27.6600       576
    27.6800       526
    27.7000       498
    27.7200       422
    27.7400       402
    27.7600       392
    27.7800       392
    27.8000       360
    27.8200       376
    27.8400       354
    27.8600       314
    27.8800       326
    27.9000       324
    27.9200       328
    27.9400       302
    27.9600       294
    27.9800       284
    28.0000       314
    28.0200       272
    28.0400       280
    28.0600       276
    28.0800       236
    28.1000       260
    28.1200       268
    28.1400       232
    28.1600       280
    28.1800       256
    28.2000       254
    28.2200       262
    28.2400       272
    28.2600       260
    28.2800       296
    28.3000       238
    28.3200       238
    28.3400       280
    28.3600       286
    28.3800       278
    28.4000       272
    28.4200       274
    28.4400       278
    28.4600       266
    28.4800       290
    28.5000       298
    28.5200       312
    28.5400       288
    28.5600       276
    28.5800       302
    28.6000       280
    28.6200       306
    28.6400       314
    28.6600       312
    28.6800       328
    28.7000       314
    28.7200       358
    28.7400       352
    28.7600       328
    28.7800       332
    28.8000       306
    28.8200       316
    28.8400       322
    28.8600       326
    28.8800       304
    28.9000       280
    28.9200       310
    28.9400       272
    28.9600       326
    28.9800       316
    29.0000       288
    29.0200       280
    29.0400       282
    29.0600       276
    29.0800       292
    29.1000       310
    29.1200       300
    29.1400       328
    29.1600       324
    29.1800       300
    29.2000       302
    29.2200       318
    29.2400       306
    29.2600       304
    29.2800       334
    29.3000       360
    29.3200       332
    29.3400       372
    29.3600       382
    29.3800       384
    29.4000       406
    29.4200       420
    29.4400       448
    29.4600       476
    29.4800       472
    29.5000       486
    29.5200       528
    29.5400       542
    29.5600       558
    29.5800       590
    29.6000       602
    29.6200       686
    29.6400       678
    29.6600       696
    29.6800       756
    29.7000       752
    29.7200       742
    29.7400       752
    29.7600       724
    29.7800       626
    29.8000       668
    29.8200       624
    29.8400       580
    29.8600       640
    29.8800       572
    29.9000       578
    29.9200       612
    29.9400       622
    29.9600       624
    29.9800       696
    30.0000       736
    30.0200       752
    30.0400       812
    30.0600       832
    30.0800       986
    30.1000      1022
    30.1200      1152
    30.1400      1160
    30.1600      1266
    30.1800      1362
    30.2000      1412
    30.2200      1424
    30.2400      1390
    30.2600      1472
    30.2800      1436
    30.3000      1468
    30.3200      1454
    30.3400      1414
    30.3600      1406
    30.3800      1430
    30.4000      1424
    30.4200      1486
    30.4400      1494
    30.4600      1544
    30.4800      1602
    30.5000      1686
    30.5200      1734
    30.5400      1926
    30.5600      2036
    30.5800      2116
    30.6000      2230
    30.6200      2522
    30.6400      2686
    30.6600      2858
    30.6800      3050
    30.7000      3114
    30.7200      2938
    30.7400      2838
    30.7600      2774
    30.7800      2578
    30.8000      2224
    30.8200      2128
    30.8400      1782
    30.8600      1590
    30.8800      1430
    30.9000      1280
    30.9200      1068
    30.9400       996
    30.9600       898
    30.9800       814
    31.0000       780
    31.0200       716
    31.0400       650
    31.0600       620
    31.0800       584
    31.1000       560
    31.1200       518
    31.1400       524
    31.1600       540
    31.1800       444
    31.2000       480
    31.2200       462
    31.2400       448
    31.2600       430
    31.2800       416
    31.3000       422
    31.3200       424
    31.3400       442
    31.3600       422
    31.3800       426
    31.4000       428
    31.4200       386
    31.4400       416
    31.4600       436
    31.4800       450
    31.5000       450
    31.5200       500
    31.5400       490
    31.5600       466
    31.5800       496
    31.6000       578
    31.6200       628
    31.6400       592
    31.6600       610
    31.6800       664
    31.7000       756
    31.7200       780
    31.7400       836
    31.7600       896
    31.7800       950
    31.8000      1064
    31.8200      1182
    31.8400      1326
    31.8600      1486
    31.8800      1530
    31.9000      1776
    31.9200      1840
    31.9400      1978
    31.9600      2272
    31.9800      2280
    32.0000      2434
    32.0200      2364
    32.0400      2328
    32.0600      2202
    32.0800      2088
    32.1000      2020
    32.1200      1896
    32.1400      1818
    32.1600      1674
    32.1800      1750
    32.2000      1694
    32.2200      1664
    32.2400      1834
    32.2600      1994
    32.2800      2098
    32.3000      2234
    32.3200      2446
    32.3400      2716
    32.3600      3064
    32.3800      3334
    32.4000      3802
    32.4200      4326
    32.4400      4838
    32.4600      5536
    32.4800      6120
    32.5000      6666
    32.5200      7120
    32.5400      7552
    32.5600      7452
    32.5800      7512
    32.6000      6964
    32.6200      6788
    32.6400      6064
    32.6600      5362
    32.6800      4834
    32.7000      4092
    32.7200      3584
    32.7400      3156
    32.7600      2760
    32.7800      2482
    32.8000      2188
    32.8200      1936
    32.8400      1832
    32.8600      1704
    32.8800      1558
    32.9000      1546
    32.9200      1484
    32.9400      1454
    32.9600      1422
    32.9800      1456
    33.0000      1490
    33.0200      1606
    33.0400      1660
    33.0600      1740
    33.0800      1692
    33.1000      1688
    33.1200      1610
    33.1400      1524
    33.1600      1398
    33.1800      1300
    33.2000      1162
    33.2200      1050
    33.2400       890
    33.2600       830
    33.2800       764
    33.3000       640
    33.3200       606
    33.3400       572
    33.3600       534
    33.3800       498
    33.4000       470
    33.4200       436
    33.4400       398
    33.4600       414
    33.4800       400
    33.5000       378
    33.5200       344
    33.5400       358
    33.5600       318
    33.5800       308
    33.6000       288
    33.6200       312
    33.6400       302
    33.6600       308
    33.6800       278
    33.7000       294
    33.7200       312
    33.7400       278
    33.7600       276
    33.7800       270
    33.8000       284
    33.8200       296
    33.8400       312
    33.8600       264
    33.8800       284
    33.9000       272
    33.9200       294
    33.9400       268
    33.9600       258
    33.9800       272
    34.0000       294
    34.0200       280
    34.0400       268
    34.0600       290
    34.0800       284
    34.1000       298
    34.1200       306
    34.1400       298
    34.1600       286
    34.1800       322
    34.2000       296
    34.2200       256
    34.2400       294
    34.2600       296
    34.2800       314
    34.3000       314
    34.3200       332
    34.3400       342
    34.3600       344
    34.3800       368
    34.4000       390
    34.4200       368
    34.4400       460
    34.4600       454
    34.4800       466
    34.5000       436
    34.5200       450
    34.5400       452
    34.5600       408
    34.5800       392
    34.6000       392
    34.6200       386
    34.6400       390
    34.6600       364
    34.6800       336
    34.7000       338
    34.7200       320
    34.7400       316
    34.7600       324
    34.7800       298
    34.8000       346
    34.8200       294
    34.8400       332
    34.8600       286
    34.8800       322
    34.9000       328
    34.9200       274
    34.9400       326
    34.9600       312
    34.9800       272
    35.0000       314
    35.0200       322
    35.0400       294
    35.0600       270
    35.0800       294
    35.1000       270
    35.1200       306
    35.1400       316
    35.1600       312
    35.1800       258
    35.2000       292
    35.2200       264
    35.2400       272
    35.2600       298
    35.2800       298
    35.3000       284
    35.3200       280
    35.3400       264
    35.3600       242
    35.3800       318
    35.4000       282
    35.4200       256
    35.4400       304
    35.4600       280
    35.4800       272
    35.5000       300
    35.5200       308
    35.5400       302
    35.5600       288
    35.5800       300
    35.6000       290
    35.6200       310
    35.6400       352
    35.6600       330
    35.6800       366
    35.7000       326
    35.7200       322
    35.7400       370
    35.7600       370
    35.7800       372
    35.8000       398
    35.8200       420
    35.8400       412
    35.8600       478
    35.8800       424
    35.9000       454
    35.9200       486
    35.9400       484
    35.9600       568
    35.9800       530
    36.0000       614
    36.0200       614
    36.0400       640
    36.0600       650
    36.0800       764
    36.1000       718
    36.1200       780
    36.1400       868
    36.1600       852
    36.1800       868
    36.2000       840
    36.2200       756
    36.2400       754
    36.2600       762
    36.2800       648
    36.3000       596
    36.3200       596
    36.3400       572
    36.3600       544
    36.3800       512
    36.4000       494
    36.4200       542
    36.4400       504
    36.4600       494
    36.4800       458
    36.5000       500
    36.5200       536
    36.5400       530
    36.5600       514
    36.5800       620
    36.6000       654
    36.6200       658
    36.6400       708
    36.6600       746
    36.6800       842
    36.7000       892
    36.7200      1056
    36.7400      1122
    36.7600      1238
    36.7800      1396
    36.8000      1468
    36.8200      1608
    36.8400      1740
    36.8600      1814
    36.8800      1898
    36.9000      1972
    36.9200      1894
    36.9400      1796
    36.9600      1656
    36.9800      1712
    37.0000      1554
    37.0200      1418
    37.0400      1310
    37.0600      1204
    37.0800      1112
    37.1000       996
    37.1200       864
    37.1400       986
    37.1600       914
    37.1800       906
    37.2000       836
    37.2200       784
    37.2400       728
    37.2600       718
    37.2800       720
    37.3000       744
    37.3200       698
    37.3400       686
    37.3600       652
    37.3800       652
    37.4000       634
    37.4200       618
    37.4400       586
    37.4600       610
    37.4800       564
    37.5000       602
    37.5200       578
    37.5400       594
    37.5600       640
    37.5800       562
    37.6000       594
    37.6200       624
    37.6400       630
    37.6600       618
    37.6800       718
    37.7000       706
    37.7200       714
    37.7400       780
    37.7600       800
    37.7800       882
    37.8000       936
    37.8200       978
    37.8400      1070
    37.8600      1194
    37.8800      1270
    37.9000      1390
    37.9200      1502
    37.9400      1708
    37.9600      1822
    37.9800      1900
    38.0000      2082
    38.0200      2154
    38.0400      2172
    38.0600      2032
    38.0800      2118
    38.1000      2054
    38.1200      1938
    38.1400      1908
    38.1600      1912
    38.1800      1816
    38.2000      1806
    38.2200      1734
    38.2400      1880
    38.2600      1950
    38.2800      2082
    38.3000      2114
    38.3200      2372
    38.3400      2438
    38.3600      2830
    38.3800      2946
    38.4000      3288
    38.4200      3656
    38.4400      3918
    38.4600      4134
    38.4800      4400
    38.5000      4398
    38.5200      4484
    38.5400      4510
    38.5600      4610
    38.5800      4560
    38.6000      4718
    38.6200      4796
    38.6400      4704
    38.6600      4578
    38.6800      4608
    38.7000      4566
    38.7200      4564
    38.7400      4376
    38.7600      4092
    38.7800      3848
    38.8000      3770
    38.8200      3462
    38.8400      3062
    38.8600      2944
    38.8800      2474
    38.9000      2304
    38.9200      2068
    38.9400      1930
    38.9600      1662
    38.9800      1594
    39.0000      1536
    39.0200      1486
    39.0400      1388
    39.0600      1318
    39.0800      1168
    39.1000      1176
    39.1200      1124
    39.1400      1096
    39.1600      1064
    39.1800      1098
    39.2000      1022
    39.2200       992
    39.2400      1070
    39.2600      1004
    39.2800      1002
    39.3000      1016
    39.3200      1040
    39.3400      1058
    39.3600      1052
    39.3800      1110
    39.4000      1140
    39.4200      1188
    39.4400      1204
    39.4600      1274
    39.4800      1328
    39.5000      1372
    39.5200      1402
    39.5400      1510
    39.5600      1610
    39.5800      1798
    39.6000      1910
    39.6200      2038
    39.6400      2062
    39.6600      2186
    39.6800      2352
    39.7000      2374
    39.7200      2408
    39.7400      2308
    39.7600      2144
    39.7800      1986
    39.8000      1828
    39.8200      1644
    39.8400      1544
    39.8600      1442
    39.8800      1262
    39.9000      1158
    39.9200      1056
    39.9400       988
    39.9600       956
    39.9800       946
    40.0000       828
    40.0200       782
    40.0400       866
    40.0600       762
    40.0800       770
    40.1000       770
    40.1200       754
    40.1400       794
    40.1600       788
    40.1800       766
    40.2000       822
    40.2200       782
    40.2400       794
    40.2600       834
    40.2800       806
    40.3000       884
    40.3200       878
    40.3400       914
    40.3600       972
    40.3800      1010
    40.4000      1090
    40.4200      1030
    40.4400      1124
    40.4600      1288
    40.4800      1284
    40.5000      1374
    40.5200      1444
    40.5400      1484
    40.5600      1518
    40.5800      1616
    40.6000      1616
    40.6200      1616
    40.6400      1614
    40.6600      1642
    40.6800      1436
    40.7000      1416
    40.7200      1312
    40.7400      1254
    40.7600      1188
    40.7800      1052
    40.8000      1004
    40.8200       922
    40.8400       920
    40.8600       828
    40.8800       792
    40.9000       760
    40.9200       772
    40.9400       746
    40.9600       710
    40.9800       732
    41.0000       752
    41.0200       792
    41.0400       766
    41.0600       754
    41.0800       810
    41.1000       794
    41.1200       834
    41.1400       882
    41.1600       884
    41.1800       976
    41.2000      1012
    41.2200      1034
    41.2400      1100
    41.2600      1100
    41.2800      1172
    41.3000      1182
    41.3200      1178
    41.3400      1252
    41.3600      1312
    41.3800      1256
    41.4000      1264
    41.4200      1212
    41.4400      1206
    41.4600      1224
    41.4800      1230
    41.5000      1232
    41.5200      1332
    41.5400      1230
    41.5600      1320
    41.5800      1300
    41.6000      1332
    41.6200      1250
    41.6400      1360
    41.6600      1364
    41.6800      1306
    41.7000      1248
    41.7200      1348
    41.7400      1432
    41.7600      1414
    41.7800      1456
    41.8000      1542
    41.8200      1608
    41.8400      1812
    41.8600      1772
    41.8800      1758
    41.9000      1854
    41.9200      1900
    41.9400      1740
    41.9600      1702
    41.9800      1692
    42.0000      1558
    42.0200      1456
    42.0400      1322
    42.0600      1194
    42.0800      1128
    42.1000      1082
    42.1200       984
    42.1400       892
    42.1600       816
    42.1800       776
    42.2000       742
    42.2200       688
    42.2400       694
    42.2600       632
    42.2800       640
    42.3000       598
    42.3200       602
    42.3400       592
    42.3600       588
    42.3800       556
    42.4000       516
    42.4200       494
    42.4400       520
    42.4600       552
    42.4800       538
    42.5000       470
    42.5200       498
    42.5400       504
    42.5600       482
    42.5800       508
    42.6000       474
    42.6200       506
    42.6400       482
    42.6600       488
    42.6800       524
    42.7000       466
    42.7200       476
    42.7400       534
    42.7600       468
    42.7800       522
    42.8000       520
    42.8200       568
    42.8400       586
    42.8600       604
    42.8800       666
    42.9000       668
    42.9200       718
    42.9400       706
    42.9600       826
    42.9800       820
    43.0000       902
    43.0200       996
    43.0400      1022
    43.0600      1128
    43.0800      1184
    43.1000      1360
    43.1200      1416
    43.1400      1608
    43.1600      1754
    43.1800      1640
    43.2000      1728
    43.2200      1728
    43.2400      1648
    43.2600      1652
    43.2800      1474
    43.3000      1476
    43.3200      1382
    43.3400      1256
    43.3600      1198
    43.3800      1060
    43.4000      1006
    43.4200       914
    43.4400       864
    43.4600       842
    43.4800       758
    43.5000       684
    43.5200       730
    43.5400       668
    43.5600       654
    43.5800       640
    43.6000       674
    43.6200       668
    43.6400       628
    43.6600       632
    43.6800       646
    43.7000       660
    43.7200       674
    43.7400       734
    43.7600       700
    43.7800       732
    43.8000       754
    43.8200       754
    43.8400       776
    43.8600       760
    43.8800       736
    43.9000       744
    43.9200       700
    43.9400       674
    43.9600       622
    43.9800       660
    44.0000       610
    44.0200       626
    44.0400       624
    44.0600       562
    44.0800       552
    44.1000       562
    44.1200       562
    44.1400       516
    44.1600       556
    44.1800       514
    44.2000       510
    44.2200       550
    44.2400       536
    44.2600       532
    44.2800       514
    44.3000       544
    44.3200       538
    44.3400       526
    44.3600       534
    44.3800       568
    44.4000       554
    44.4200       496
    44.4400       542
    44.4600       512
    44.4800       502
    44.5000       518
    44.5200       512
    44.5400       506
    44.5600       538
    44.5800       566
    44.6000       508
    44.6200       582
    44.6400       520
    44.6600       526
    44.6800       524
    44.7000       538
    44.7200       586
    44.7400       618
    44.7600       588
    44.7800       614
    44.8000       630
    44.8200       654
    44.8400       762
    44.8600       800
    44.8800       778
    44.9000       800
    44.9200       888
    44.9400       870
    44.9600       950
    44.9800      1042
    45.0000      1072
    45.0200      1090
    45.0400      1168
    45.0600      1206
    45.0800      1286
    45.1000      1200
    45.1200      1270
    45.1400      1332
    45.1600      1360
    45.1800      1326
    45.2000      1446
    45.2200      1344
    45.2400      1404
    45.2600      1412
    45.2800      1318
    45.3000      1366
    45.3200      1316
    45.3400      1292
    45.3600      1246
    45.3800      1184
    45.4000      1172
    45.4200      1222
    45.4400      1152
    45.4600      1068
    45.4800      1014
    45.5000       962
    45.5200       970
    45.5400       910
    45.5600       910
    45.5800       854
    45.6000       848
    45.6200       812
    45.6400       776
    45.6600       762
    45.6800       758
    45.7000       756
    45.7200       740
    45.7400       772
    45.7600       770
    45.7800       698
    45.8000       750
    45.8200       678
    45.8400       766
    45.8600       718
    45.8800       728
    45.9000       718
    45.9200       726
    45.9400       744
    45.9600       692
    45.9800       748
    46.0000       760
    46.0200       778
    46.0400       774
    46.0600       778
    46.0800       846
    46.1000       808
    46.1200       848
    46.1400       848
    46.1600       910
    46.1800       990
    46.2000       962
    46.2200      1048
    46.2400      1028
    46.2600      1070
    46.2800      1226
    46.3000      1328
    46.3200      1358
    46.3400      1546
    46.3600      1572
    46.3800      1666
    46.4000      1924
    46.4200      2032
    46.4400      2234
    46.4600      2588
    46.4800      2642
    46.5000      3096
    46.5200      3478
    46.5400      3806
    46.5600      4272
    46.5800      4732
    46.6000      5232
    46.6200      5682
    46.6400      6368
    46.6600      6878
    46.6800      7070
    46.7000      7540
    46.7200      7404
    46.7400      7322
    46.7600      6942
    46.7800      6634
    46.8000      6234
    46.8200      5932
    46.8400      5520
    46.8600      5060
    46.8800      4620
    46.9000      4080
    46.9200      3554
    46.9400      3236
    46.9600      2842
    46.9800      2602
    47.0000      2348
    47.0200      2134
    47.0400      1858
    47.0600      1722
    47.0800      1600
    47.1000      1454
    47.1200      1374
    47.1400      1188
    47.1600      1170
    47.1800      1104
    47.2000      1110
    47.2200       958
    47.2400       926
    47.2600       924
    47.2800       872
    47.3000       850
    47.3200       786
    47.3400       814
    47.3600       718
    47.3800       764
    47.4000       726
    47.4200       684
    47.4400       678
    47.4600       690
    47.4800       626
    47.5000       632
    47.5200       664
    47.5400       648
    47.5600       636
    47.5800       618
    47.6000       638
    47.6200       666
    47.6400       666
    47.6600       676
    47.6800       664
    47.7000       740
    47.7200       746
    47.7400       758
    47.7600       880
    47.7800       836
    47.8000       898
    47.8200       890
    47.8400       912
    47.8600       928
    47.8800       956
    47.9000       944
    47.9200       934
    47.9400       888
    47.9600       876
    47.9800       870
    48.0000       872
    48.0200       864
    48.0400       900
    48.0600       866
    48.0800       902
    48.1000       880
    48.1200       874
    48.1400       918
    48.1600       886
    48.1800       982
    48.2000       982
    48.2200      1048
    48.2400       968
    48.2600       920
    48.2800      1036
    48.3000       922
    48.3200       878
    48.3400       902
    48.3600       898
    48.3800       928
    48.4000       910
    48.4200       854
    48.4400       846
    48.4600       840
    48.4800       802
    48.5000       832
    48.5200       820
    48.5400       862
    48.5600       816
    48.5800       774
    48.6000       822
    48.6200       804
    48.6400       800
    48.6600       792
    48.6800       776
    48.7000       782
    48.7200       764
    48.7400       782
    48.7600       732
    48.7800       784
    48.8000       726
    48.8200       658
    48.8400       670
    48.8600       624
    48.8800       596
    48.9000       584
    48.9200       620
    48.9400       594
    48.9600       558
    48.9800       502
    49.0000       474
    49.0200       482
    49.0400       494
    49.0600       480
    49.0800       428
    49.1000       404
    49.1200       436
    49.1400       434
    49.1600       448
    49.1800       434
    49.2000       430
    49.2200       386
    49.2400       418
    49.2600       414
    49.2800       378
    49.3000       406
    49.3200       402
    49.3400       390
    49.3600       390
    49.3800       400
    49.4000       374
    49.4200       410
    49.4400       352
    49.4600       380
    49.4800       372
    49.5000       364
    49.5200       366
    49.5400       362
    49.5600       358
    49.5800       414
    49.6000       388
    49.6200       402
    49.6400       364
    49.6600       388
    49.6800       418
    49.7000       396
    49.7200       436
    49.7400       428
    49.7600       390
    49.7800       436
    49.8000       472
    49.8200       414
    49.8400       434
    49.8600       452
    49.8800       528
    49.9000       512
    49.9200       502
    49.9400       484
    49.9600       550
    49.9800       580
    50.0000       562
    50.0200       606
    50.0400       620
    50.0600       668
    50.0800       722
    50.1000       788
    50.1200       742
    50.1400       828
    50.1600       866
    50.1800       870
    50.2000       926
    50.2200       902
    50.2400       928
    50.2600       920
    50.2800      1000
    50.3000      1056
    50.3200      1060
    50.3400      1028
    50.3600      1012
    50.3800      1058
    50.4000       954
    50.4200      1058
    50.4400      1036
    50.4600      1092
    50.4800      1016
    50.5000      1054
    50.5200       978
    50.5400      1014
    50.5600      1048
    50.5800       962
    50.6000      1018
    50.6200      1062
    50.6400      1058
    50.6600      1066
    50.6800      1044
    50.7000      1092
    50.7200      1102
    50.7400      1204
    50.7600      1250
    50.7800      1272
    50.8000      1254
    50.8200      1384
    50.8400      1354
    50.8600      1420
    50.8800      1390
    50.9000      1394
    50.9200      1394
    50.9400      1404
    50.9600      1368
    50.9800      1294
    51.0000      1284
    51.0200      1160
    51.0400      1214
    51.0600      1090
    51.0800      1054
    51.1000      1006
    51.1200       994
    51.1400       966
    51.1600       888
    51.1800       908
    51.2000       872
    51.2200       828
    51.2400       870
    51.2600       858
    51.2800       902
    51.3000       826
    51.3200       828
    51.3400       908
    51.3600       970
    51.3800       908
    51.4000       936
    51.4200       904
    51.4400       908
    51.4600       962
    51.4800       920
    51.5000       876
    51.5200       870
    51.5400       872
    51.5600       864
    51.5800       904
    51.6000       872
    51.6200       908
    51.6400       884
    51.6600       918
    51.6800       926
    51.7000       950
    51.7200       972
    51.7400      1086
    51.7600      1058
    51.7800      1038
    51.8000      1112
    51.8200      1142
    51.8400      1254
    51.8600      1284
    51.8800      1278
    51.9000      1354
    51.9200      1370
    51.9400      1374
    51.9600      1472
    51.9800      1370
    52.0000      1432
    52.0200      1412
    52.0400      1506
    52.0600      1428
    52.0800      1454
    52.1000      1388
    52.1200      1370
    52.1400      1278
    52.1600      1246
    52.1800      1248
    52.2000      1174
    52.2200      1198
    52.2400      1092
    52.2600      1142
    52.2800      1082
    52.3000      1066
    52.3200      1034
    52.3400      1008
    52.3600      1012
    52.3800      1000
    52.4000      1038
    52.4200      1074
    52.4400      1144
    52.4600      1194
    52.4800      1172
    52.5000      1240
    52.5200      1328
    52.5400      1384
    52.5600      1468
    52.5800      1470
    52.6000      1516
    52.6200      1498
    52.6400      1470
    52.6600      1482
    52.6800      1448
    52.7000      1488
    52.7200      1418
    52.7400      1278
    52.7600      1332
    52.7800      1322
    52.8000      1302
    52.8200      1208
    52.8400      1154
    52.8600      1166
    52.8800      1110
    52.9000      1062
    52.9200      1034
    52.9400       982
    52.9600      1060
    52.9800      1032
    53.0000      1004
    53.0200      1036
    53.0400      1058
    53.0600      1100
    53.0800      1118
    53.1000      1190
    53.1200      1202
    53.1400      1210
    53.1600      1380
    53.1800      1392
    53.2000      1488
    53.2200      1524
    53.2400      1572
    53.2600      1556
    53.2800      1570
    53.3000      1668
    53.3200      1600
    53.3400      1516
    53.3600      1510
    53.3800      1424
    53.4000      1344
    53.4200      1306
    53.4400      1210
    53.4600      1154
    53.4800      1090
    53.5000       994
    53.5200       878
    53.5400       844
    53.5600       802
    53.5800       854
    53.6000       714
    53.6200       666
    53.6400       658
    53.6600       654
    53.6800       622
    53.7000       626
    53.7200       612
    53.7400       566
    53.7600       586
    53.7800       578
    53.8000       598
    53.8200       564
    53.8400       540
    53.8600       498
    53.8800       500
    53.9000       486
    53.9200       504
    53.9400       478
    53.9600       508
    53.9800       488
    54.0000       454
    54.0200       526
    54.0400       486
    54.0600       474
    54.0800       468
    54.1000       454
    54.1200       488
    54.1400       508
    54.1600       514
    54.1800       462
    54.2000       548
    54.2200       524
    54.2400       542
    54.2600       588
    54.2800       528
    54.3000       568
    54.3200       582
    54.3400       526
    54.3600       600
    54.3800       574
    54.4000       614
    54.4200       638
    54.4400       644
    54.4600       698
    54.4800       710
    54.5000       686
    54.5200       720
    54.5400       800
    54.5600       786
    54.5800       816
    54.6000       856
    54.6200       874
    54.6400       886
    54.6600       884
    54.6800       962
    54.7000       904
    54.7200       898
    54.7400       882
    54.7600       882
    54.7800       982
    54.8000       898
    54.8200       938
    54.8400       890
    54.8600       836
    54.8800       802
    54.9000       886
    54.9200       836
    54.9400       766
    54.9600       728
    54.9800       762
    55.0000       722
    55.0200       784
    55.0400       660
    55.0600       722
    55.0800       718
    55.1000       710
    55.1200       680
    55.1400       726
    55.1600       712
    55.1800       698
    55.2000       754
    55.2200       682
    55.2400       720
    55.2600       726
    55.2800       706
    55.3000       694
    55.3200       646
    55.3400       654
    55.3600       634
    55.3800       600
    55.4000       606
    55.4200       622
    55.4400       590
    55.4600       556
    55.4800       580
    55.5000       582
    55.5200       544
    55.5400       520
    55.5600       530
    55.5800       514
    55.6000       510
    55.6200       448
    55.6400       486
    55.6600       464
    55.6800       444
    55.7000       434
    55.7200       402
    55.7400       418
    55.7600       428
    55.7800       410
    55.8000       430
    55.8200       420
    55.8400       428
    55.8600       376
    55.8800       382
    55.9000       432
    55.9200       350
    55.9400       334
    55.9600       390
    55.9800       392
    56.0000       372
    56.0200       374
    56.0400       392
    56.0600       342
    56.0800       378
    56.1000       386
    56.1200       372
    56.1400       348
    56.1600       424
    56.1800       378
    56.2000       382
    56.2200       372
    56.2400       358
    56.2600       388
    56.2800       382
    56.3000       398
    56.3200       322
    56.3400       382
    56.3600       376
    56.3800       406
    56.4000       350
    56.4200       368
    56.4400       370
    56.4600       362
    56.4800       388
    56.5000       364
    56.5200       396
    56.5400       404
    56.5600       416
    56.5800       402
    56.6000       426
    56.6200       412
    56.6400       436
    56.6600       466
    56.6800       456
    56.7000       472
    56.7200       466
    56.7400       512
    56.7600       506
    56.7800       540
    56.8000       552
    56.8200       564
    56.8400       580
    56.8600       586
    56.8800       588
    56.9000       568
    56.9200       610
    56.9400       660
    56.9600       646
    56.9800       642
    57.0000       600
    57.0200       690
    57.0400       694
    57.0600       710
    57.0800       762
    57.1000       764
    57.1200       806
    57.1400       856
    57.1600       892
    57.1800       942
    57.2000      1064
    57.2200      1128
    57.2400      1116
    57.2600      1216
    57.2800      1226
    57.3000      1368
    57.3200      1438
    57.3400      1434
    57.3600      1592
    57.3800      1688
    57.4000      1618
    57.4200      1632
    57.4400      1584
    57.4600      1620
    57.4800      1564
    57.5000      1534
    57.5200      1540
    57.5400      1522
    57.5600      1514
    57.5800      1594
    57.6000      1550
    57.6200      1564
    57.6400      1614
    57.6600      1598
    57.6800      1684
    57.7000      1692
    57.7200      1642
    57.7400      1680
    57.7600      1684
    57.7800      1654
    57.8000      1656
    57.8200      1660
    57.8400      1542
    57.8600      1448
    57.8800      1384
    57.9000      1398
    57.9200      1376
    57.9400      1276
    57.9600      1254
    57.9800      1232
    58.0000      1138
    58.0200      1098
    58.0400      1012
    58.0600      1048
    58.0800      1022
    58.1000       976
    58.1200       964
    58.1400      1050
    58.1600      1046
    58.1800      1050
    58.2000      1072
    58.2200      1140
    58.2400      1112
    58.2600      1202
    58.2800      1236
    58.3000      1306
    58.3200      1384
    58.3400      1516
    58.3600      1558
    58.3800      1544
    58.4000      1700
    58.4200      1700
    58.4400      1832
    58.4600      1878
    58.4800      2006
    58.5000      2142
    58.5200      2206
    58.5400      2348
    58.5600      2344
    58.5800      2550
    58.6000      2540
    58.6200      2626
    58.6400      2808
    58.6600      2702
    58.6800      2742
    58.7000      2964
    58.7200      2960
    58.7400      2946
    58.7600      2996
    58.7800      2914
    58.8000      2818
    58.8200      2794
    58.8400      2606
    58.8600      2544
    58.8800      2490
    58.9000      2368
    58.9200      2182
    58.9400      2082
    58.9600      1940
    58.9800      1808
    59.0000      1722
    59.0200      1698
    59.0400      1492
    59.0600      1458
    59.0800      1356
    59.1000      1326
    59.1200      1150
    59.1400      1122
    59.1600      1136
    59.1800      1054
    59.2000      1060
    59.2200      1124
    59.2400      1004
    59.2600       976
    59.2800       960
    59.3000       994
    59.3200      1052
    59.3400      1052
    59.3600      1042
    59.3800      1060
    59.4000      1068
    59.4200      1082
    59.4400      1034
    59.4600      1008
    59.4800      1096
    59.5000      1006
    59.5200      1000
    59.5400      1000
    59.5600       992
    59.5800       998
    59.6000       942
    59.6200       900
    59.6400       936
    59.6600       900
    59.6800       904
    59.7000       822
    59.7200       802
    59.7400       824
    59.7600       786
    59.7800       766
    59.8000       728
    59.8200       768
    59.8400       708
    59.8600       670
    59.8800       696
    59.9000       692
    59.9200       682
    59.9400       638
    59.9600       664
    59.9800       630
    60.0000       580
    60.0200       600
    60.0400       536
    60.0600       584
    60.0800       562
    60.1000       546
    60.1200       596
    60.1400       488
    60.1600       548
    60.1800       548
    60.2000       478
    60.2200       506
    60.2400       500
    60.2600       434
    60.2800       478
    60.3000       466
    60.3200       470
    60.3400       486
    60.3600       456
    60.3800       486
    60.4000       458
    60.4200       434
    60.4400       436
    60.4600       442
    60.4800       494
    60.5000       442
    60.5200       450
    60.5400       456
    60.5600       472
    60.5800       500
    60.6000       458
    60.6200       428
    60.6400       454
    60.6600       450
    60.6800       466
    60.7000       476
    60.7200       446
    60.7400       456
    60.7600       458
    60.7800       482
    60.8000       438
    60.8200       460
    60.8400       484
    60.8600       492
    60.8800       514
    60.9000       532
    60.9200       520
    60.9400       504
    60.9600       538
    60.9800       560
    61.0000       588
    61.0200       580
    61.0400       572
    61.0600       628
    61.0800       614
    61.1000       630
    61.1200       672
    61.1400       712
    61.1600       654
    61.1800       686
    61.2000       706
    61.2200       680
    61.2400       678
    61.2600       674
    61.2800       654
    61.3000       750
    61.3200       744
    61.3400       726
    61.3600       692
    61.3800       738
    61.4000       754
    61.4200       766
    61.4400       758
    61.4600       786
    61.4800       844
    61.5000       782
    61.5200       778
    61.5400       886
    61.5600       826
    61.5800       896
    61.6000       936
    61.6200       934
    61.6400       946
    61.6600       968
    61.6800       890
    61.7000      1004
    61.7200       928
    61.7400       920
    61.7600       918
    61.7800       886
    61.8000       882
    61.8200       828
    61.8400       888
    61.8600       810
    61.8800       812
    61.9000       790
    61.9200       766
    61.9400       736
    61.9600       774
    61.9800       718
    62.0000       712
    62.0200       754
    62.0400       732
    62.0600       698
    62.0800       684
    62.1000       672
    62.1200       734
    62.1400       668
    62.1600       624
    62.1800       638
    62.2000       662
    62.2200       544
    62.2400       642
    62.2600       602
    62.2800       620
    62.3000       582
    62.3200       614
    62.3400       590
    62.3600       544
    62.3800       552
    62.4000       558
    62.4200       500
    62.4400       562
    62.4600       506
    62.4800       492
    62.5000       464
    62.5200       466
    62.5400       472
    62.5600       498
    62.5800       442
    62.6000       438
    62.6200       468
    62.6400       470
    62.6600       452
    62.6800       406
    62.7000       402
    62.7200       378
    62.7400       406
    62.7600       402
    62.7800       386
    62.8000       366
    62.8200       390
    62.8400       386
    62.8600       364
    62.8800       342
    62.9000       320
    62.9200       302
    62.9400       340
    62.9600       348
    62.9800       354
    63.0000       346
    63.0200       352
    63.0400       316
    63.0600       308
    63.0800       324
    63.1000       294
    63.1200       302
    63.1400       314
    63.1600       282
    63.1800       294
    63.2000       318
    63.2200       262
    63.2400       286
    63.2600       322
    63.2800       306
    63.3000       324
    63.3200       288
    63.3400       284
    63.3600       314
    63.3800       284
    63.4000       332
    63.4200       306
    63.4400       312
    63.4600       328
    63.4800       324
    63.5000       370
    63.5200       332
    63.5400       368
    63.5600       362
    63.5800       394
    63.6000       392
    63.6200       368
    63.6400       392
    63.6600       432
    63.6800       438
    63.7000       430
    63.7200       434
    63.7400       482
    63.7600       510
    63.7800       544
    63.8000       518
    63.8200       566
    63.8400       580
    63.8600       548
    63.8800       570
    63.9000       628
    63.9200       622
    63.9400       574
    63.9600       586
    63.9800       626
    64.0000       634
    64.0200       550
    64.0400       574
    64.0600       530
    64.0800       498
    64.1000       524
    64.1200       526
    64.1400       486
    64.1600       438
    64.1800       426
    64.2000       434
    64.2200       398
    64.2400       430
    64.2600       336
    64.2800       356
    64.3000       364
    64.3200       340
    64.3400       334
    64.3600       328
    64.3800       302
    64.4000       344
    64.4200       312
    64.4400       290
    64.4600       280
    64.4800       284
    64.5000       294
    64.5200       288
    64.5400       318
    64.5600       292
    64.5800       302
    64.6000       284
    64.6200       266
    64.6400       300
    64.6600       296
    64.6800       280
    64.7000       298
    64.7200       272
    64.7400       266
    64.7600       258
    64.7800       282
    64.8000       294
    64.8200       276
    64.8400       280
    64.8600       266
    64.8800       270
    64.9000       308
    64.9200       300
    64.9400       298
    64.9600       286
    64.9800       308
    65.0000       314
    65.0200       312
    65.0400       342
    65.0600       336
    65.0800       340
    65.1000       370
    65.1200       374
    65.1400       416
    65.1600       400
    65.1800       418
    65.2000       418
    65.2200       426
    65.2400       414
    65.2600       422
    65.2800       420
    65.3000       460
    65.3200       456
    65.3400       458
    65.3600       456
    65.3800       434
    65.4000       418
    65.4200       416
    65.4400       402
    65.4600       466
    65.4800       434
    65.5000       404
    65.5200       408
    65.5400       426
    65.5600       402
    65.5800       350
    65.6000       374
    65.6200       362
    65.6400       392
    65.6600       398
    65.6800       368
    65.7000       320
    65.7200       364
    65.7400       306
    65.7600       330
    65.7800       340
    65.8000       320
    65.8200       318
    65.8400       330
    65.8600       324
    65.8800       320
    65.9000       322
    65.9200       304
    65.9400       304
    65.9600       292
    65.9800       274
    66.0000       276
    66.0200       302
    66.0400       272
    66.0600       290
    66.0800       274
    66.1000       296
    66.1200       250
    66.1400       290
    66.1600       288
    66.1800       286
    66.2000       298
    66.2200       300
    66.2400       320
    66.2600       276
    66.2800       310
    66.3000       310
    66.3200       294
    66.3400       280
    66.3600       326
    66.3800       324
    66.4000       288
    66.4200       312
    66.4400       350
    66.4600       336
    66.4800       366
    66.5000       360
    66.5200       358
    66.5400       358
    66.5600       412
    66.5800       368
    66.6000       410
    66.6200       414
    66.6400       416
    66.6600       462
    66.6800       426
    66.7000       462
    66.7200       478
    66.7400       526
    66.7600       580
    66.7800       520
    66.8000       578
    66.8200       626
    66.8400       660
    66.8600       620
    66.8800       672
    66.9000       694
    66.9200       648
    66.9400       652
    66.9600       642
    66.9800       672
    67.0000       696
    67.0200       644
    67.0400       612
    67.0600       590
    67.0800       630
    67.1000       588
    67.1200       574
    67.1400       570
    67.1600       524
    67.1800       522
    67.2000       544
    67.2200       514
    67.2400       526
    67.2600       486
    67.2800       494
    67.3000       456
    67.3200       422
    67.3400       434
    67.3600       456
    67.3800       448
    67.4000       416
    67.4200       412
    67.4400       378
    67.4600       406
    67.4800       438
    67.5000       382
    67.5200       396
    67.5400       396
    67.5600       398
    67.5800       370
    67.6000       380
    67.6200       416
    67.6400       406
    67.6600       446
    67.6800       400
    67.7000       440
    67.7200       414
    67.7400       444
    67.7600       462
    67.7800       474
    67.8000       506
    67.8200       510
    67.8400       512
    67.8600       520
    67.8800       522
    67.9000       578
    67.9200       634
    67.9400       678
    67.9600       736
    67.9800       710
    68.0000       850
    68.0200       790
    68.0400       858
    68.0600       860
    68.0800       970
    68.1000      1034
    68.1200      1048
    68.1400      1062
    68.1600      1024
    68.1800      1110
    68.2000      1070
    68.2200      1100
    68.2400      1050
    68.2600      1030
    68.2800      1084
    68.3000      1046
    68.3200      1040
    68.3400       974
    68.3600       930
    68.3800      1004
    68.4000       880
    68.4200       882
    68.4400       826
    68.4600       754
    68.4800       714
    68.5000       748
    68.5200       664
    68.5400       668
    68.5600       656
    68.5800       576
    68.6000       584
    68.6200       584
    68.6400       512
    68.6600       522
    68.6800       526
    68.7000       502
    68.7200       480
    68.7400       446
    68.7600       426
    68.7800       428
    68.8000       458
    68.8200       404
    68.8400       398
    68.8600       440
    68.8800       408
    68.9000       414
    68.9200       416
    68.9400       400
    68.9600       346
    68.9800       394
    69.0000       402
    69.0200       354
    69.0400       388
    69.0600       394
    69.0800       406
    69.1000       374
    69.1200       422
    69.1400       418
    69.1600       464
    69.1800       442
    69.2000       466
    69.2200       454
    69.2400       466
    69.2600       534
    69.2800       496
    69.3000       488
    69.3200       530
    69.3400       552
    69.3600       580
    69.3800       556
    69.4000       546
    69.4200       546
    69.4400       532
    69.4600       540
    69.4800       512
    69.5000       542
    69.5200       532
    69.5400       534
    69.5600       472
    69.5800       436
    69.6000       478
    69.6200       450
    69.6400       442
    69.6600       468
    69.6800       414
    69.7000       420
    69.7200       422
    69.7400       390
    69.7600       392
    69.7800       406
    69.8000       376
    69.8200       392
    69.8400       364
    69.8600       364
    69.8800       356
    69.9000       362
    69.9200       364
    69.9400       346
    69.9600       388
    69.9800       338
    70.0000       390
    70.0200       326
    70.0400       338
    70.0600       318
    70.0800       312
    70.1000       332
    70.1200       326
    70.1400       326
    70.1600       314
    70.1800       334
    70.2000       292
    70.2200       310
    70.2400       304
    70.2600       302
    70.2800       276
    70.3000       280
    70.3200       274
    70.3400       272
    70.3600       292
    70.3800       280
    70.4000       298
    70.4200       258
    70.4400       266
    70.4600       274
    70.4800       286
    70.5000       274
    70.5200       314
    70.5400       262
    70.5600       280
    70.5800       262
    70.6000       352
    70.6200       280
    70.6400       274
    70.6600       298
    70.6800       256
    70.7000       272
    70.7200       250
    70.7400       292
    70.7600       242
    70.7800       302
    70.8000       232
    70.8200       288
    70.8400       250
    70.8600       274
    70.8800       294
    70.9000       268
    70.9200       276
    70.9400       262
    70.9600       264
    70.9800       280
    71.0000       262
    71.0200       284
    71.0400       296
    71.0600       306
    71.0800       300
    71.1000       290
    71.1200       308
    71.1400       346
    71.1600       336
    71.1800       334
    71.2000       346
    71.2200       328
    71.2400       350
    71.2600       346
    71.2800       402
    71.3000       380
    71.3200       400
    71.3400       442
    71.3600       442
    71.3800       542
    71.4000       538
    71.4200       514
    71.4400       550
    71.4600       580
    71.4800       584
    71.5000       568
    71.5200       582
    71.5400       626
    71.5600       614
    71.5800       586
    71.6000       622
    71.6200       562
    71.6400       674
    71.6600       592
    71.6800       610
    71.7000       572
    71.7200       584
    71.7400       586
    71.7600       578
    71.7800       574
    71.8000       564
    71.8200       570
    71.8400       532
    71.8600       588
    71.8800       526
    71.9000       524
    71.9200       558
    71.9400       488
    71.9600       546
    71.9800       554
    72.0000       492
    72.0200       496
    72.0400       512
    72.0600       480
    72.0800       522
    72.1000       484
    72.1200       484
    72.1400       500
    72.1600       502
    72.1800       496
    72.2000       498
    72.2200       526
    72.2400       492
    72.2600       524
    72.2800       520
    72.3000       534
    72.3200       514
    72.3400       562
    72.3600       528
    72.3800       546
    72.4000       486
    72.4200       458
    72.4400       498
    72.4600       464
    72.4800       530
    72.5000       508
    72.5200       466
    72.5400       442
    72.5600       486
    72.5800       528
    72.6000       482
    72.6200       458
    72.6400       526
    72.6600       472
    72.6800       480
    72.7000       464
    72.7200       466
    72.7400       466
    72.7600       436
    72.7800       446
    72.8000       442
    72.8200       430
    72.8400       458
    72.8600       462
    72.8800       420
    72.9000       430
    72.9200       404
    72.9400       406
    72.9600       420
    72.9800       416
    73.0000       402
    73.0200       402
    73.0400       362
    73.0600       358
    73.0800       390
    73.1000       372
    73.1200       332
    73.1400       368
    73.1600       376
    73.1800       340
    73.2000       344
    73.2200       334
    73.2400       318
    73.2600       316
    73.2800       312
    73.3000       328
    73.3200       308
    73.3400       294
    73.3600       280
    73.3800       292
    73.4000       274
    73.4200       232
    73.4400       280
    73.4600       266
    73.4800       266
    73.5000       276
    73.5200       268
    73.5400       264
    73.5600       248
    73.5800       262
    73.6000       268
    73.6200       296
    73.6400       246
    73.6600       240
    73.6800       270
    73.7000       280
    73.7200       284
    73.7400       284
    73.7600       240
    73.7800       242
    73.8000       278
    73.8200       270
    73.8400       258
    73.8600       274
    73.8800       300
    73.9000       292
    73.9200       266
    73.9400       284
    73.9600       276
    73.9800       270
    74.0000       310
    74.0200       316
    74.0400       314
    74.0600       294
    74.0800       306
    74.1000       300
    74.1200       298
    74.1400       338
    74.1600       292
    74.1800       292
    74.2000       336
    74.2200       320
    74.2400       296
    74.2600       314
    74.2800       252
    74.3000       290
    74.3200       268
    74.3400       292
    74.3600       246
    74.3800       318
    74.4000       302
    74.4200       258
    74.4400       256
    74.4600       242
    74.4800       240
    74.5000       250
    74.5200       230
    74.5400       236
    74.5600       220
    74.5800       268
    74.6000       216
    74.6200       232
    74.6400       230
    74.6600       230
    74.6800       240
    74.7000       236
    74.7200       218
    74.7400       210
    74.7600       234
    74.7800       220
    74.8000       220
    74.8200       194
    74.8400       198
    74.8600       224
    74.8800       230
    74.9000       212
    74.9200       234
    74.9400       248
    74.9600       216
    74.9800       202
    75.0000       238
    75.0200       218
    75.0400       220
    75.0600       230
    75.0800       230
    75.1000       220
    75.1200       194
    75.1400       232
    75.1600       220
    75.1800       228
    75.2000       200
    75.2200       238
    75.2400       256
    75.2600       242
    75.2800       218
    75.3000       210
    75.3200       236
    75.3400       214
    75.3600       214
    75.3800       246
    75.4000       190
    75.4200       228
    75.4400       246
    75.4600       238
    75.4800       216
    75.5000       230
    75.5200       220
    75.5400       226
    75.5600       236
    75.5800       264
    75.6000       222
    75.6200       262
    75.6400       226
    75.6600       234
    75.6800       234
    75.7000       258
    75.7200       244
    75.7400       222
    75.7600       246
    75.7800       224
    75.8000       236
    75.8200       242
    75.8400       278
    75.8600       244
    75.8800       252
    75.9000       252
    75.9200       270
    75.9400       270
    75.9600       228
    75.9800       256
    76.0000       276
    76.0200       246
    76.0400       250
    76.0600       250
    76.0800       266
    76.1000       296
    76.1200       294
    76.1400       268
    76.1600       252
    76.1800       316
    76.2000       272
    76.2200       296
    76.2400       286
    76.2600       320
    76.2800       304
    76.3000       322
    76.3200       314
    76.3400       350
    76.3600       332
    76.3800       326
    76.4000       310
    76.4200       358
    76.4400       344
    76.4600       364
    76.4800       348
    76.5000       388
    76.5200       322
    76.5400       336
    76.5600       416
    76.5800       336
    76.6000       390
    76.6200       412
    76.6400       380
    76.6600       458
    76.6800       430
    76.7000       440
    76.7200       382
    76.7400       448
    76.7600       394
    76.7800       400
    76.8000       424
    76.8200       408
    76.8400       440
    76.8600       464
    76.8800       388
    76.9000       370
    76.9200       372
    76.9400       374
    76.9600       370
    76.9800       412
    77.0000       366
    77.0200       380
    77.0400       384
    77.0600       378
    77.0800       426
    77.1000       326
    77.1200       348
    77.1400       412
    77.1600       406
    77.1800       398
    77.2000       388
    77.2200       378
    77.2400       426
    77.2600       458
    77.2800       450
    77.3000       444
    77.3200       504
    77.3400       484
    77.3600       492
    77.3800       530
    77.4000       518
    77.4200       542
    77.4400       600
    77.4600       592
    77.4800       624
    77.5000       650
    77.5200       702
    77.5400       720
    77.5600       692
    77.5800       720
    77.6000       752
    77.6200       748
    77.6400       792
    77.6600       780
    77.6800       800
    77.7000       756
    77.7200       774
    77.7400       784
    77.7600       722
    77.7800       726
    77.8000       724
    77.8200       680
    77.8400       712
    77.8600       662
    77.8800       658
    77.9000       640
    77.9200       624
    77.9400       650
    77.9600       594
    77.9800       532
    78.0000       576
    78.0200       498
    78.0400       534
    78.0600       504
    78.0800       482
    78.1000       502
    78.1200       446
    78.1400       440
    78.1600       446
    78.1800       424
    78.2000       442
    78.2200       420
    78.2400       434
    78.2600       402
    78.2800       440
    78.3000       406
    78.3200       374
    78.3400       410
    78.3600       370
    78.3800       430
    78.4000       436
    78.4200       428
    78.4400       388
    78.4600       446
    78.4800       444
    78.5000       396
    78.5200       440
    78.5400       436
    78.5600       394
    78.5800       434
    78.6000       428
    78.6200       476
    78.6400       454
    78.6600       422
    78.6800       442
    78.7000       450
    78.7200       466
    78.7400       420
    78.7600       446
    78.7800       430
    78.8000       436
    78.8200       418
    78.8400       424
    78.8600       410
    78.8800       400
    78.9000       362
    78.9200       376
    78.9400       380
    78.9600       380
    78.9800       364
    79.0000       360
    79.0200       330
    79.0400       358
    79.0600       350
    79.0800       326
    79.1000       304
    79.1200       290
    79.1400       306
    79.1600       322
    79.1800       258
    79.2000       318
    79.2200       262
    79.2400       292
    79.2600       292
    79.2800       280
    79.3000       322
    79.3200       288
    79.3400       256
    79.3600       260
    79.3800       264
    79.4000       252
    79.4200       258
    79.4400       272
    79.4600       272
    79.4800       274
    79.5000       282
    79.5200       286
    79.5400       312
    79.5600       282
    79.5800       300
    79.6000       280
    79.6200       272
    79.6400       306
    79.6600       292
    79.6800       294
    79.7000       304
    79.7200       296
    79.7400       248
    79.7600       314
    79.7800       268
    79.8000       274
    79.8200       280
    79.8400       304
    79.8600       274
    79.8800       258
    79.9000       272
    79.9200       278
    79.9400       278
    79.9600       274
    79.9800       258
    80.0000       298
    80.0200       278
    80.0400       258
    80.0600       292
    80.0800       296
    80.1000       266
    80.1200       264
    80.1400       270
    80.1600       288
    80.1800       298
    80.2000       272
    80.2200       256
    80.2400       270
    80.2600       268
    80.2800       226
    80.3000       252
    80.3200       262
    80.3400       254
    80.3600       290
    80.3800       274
    80.4000       278
    80.4200       262
    80.4400       270
    80.4600       270
    80.4800       284
    80.5000       266
    80.5200       270
    80.5400       258
    80.5600       266
    80.5800       282
    80.6000       278
    80.6200       250
    80.6400       264
    80.6600       274
    80.6800       250
    80.7000       268
    80.7200       252
    80.7400       270
    80.7600       258
    80.7800       224
    80.8000       246
    80.8200       252
    80.8400       264
    80.8600       276
    80.8800       238
    80.9000       238
    80.9200       236
    80.9400       226
    80.9600       260
    80.9800       256
    81.0000       230
    81.0200       266
    81.0400       234
    81.0600       264
    81.0800       242
    81.1000       248
    81.1200       236
    81.1400       284
    81.1600       288
    81.1800       254
    81.2000       270
    81.2200       278
    81.2400       296
    81.2600       318
    81.2800       264
    81.3000       324
    81.3200       282
    81.3400       286
    81.3600       292
    81.3800       256
    81.4000       300
    81.4200       272
    81.4400       286
    81.4600       292
    81.4800       276
    81.5000       300
    81.5200       284
    81.5400       244
    81.5600       292
    81.5800       280
    81.6000       310
    81.6200       274
    81.6400       316
    81.6600       308
    81.6800       280
    81.7000       324
    81.7200       268
    81.7400       312
    81.7600       282
    81.7800       318
    81.8000       296
    81.8200       308
    81.8400       322
    81.8600       286
    81.8800       298
    81.9000       322
    81.9200       320
    81.9400       342
    81.9600       304
    81.9800       344
    82.0000       344
    82.0200       350
    82.0400       336
    82.0600       344
    82.0800       314
    82.1000       322
    82.1200       364
    82.1400       350
    82.1600       342
    82.1800       368
    82.2000       344
    82.2200       378
    82.2400       356
    82.2600       342
    82.2800       388
    82.3000       368
    82.3200       368
    82.3400       400
    82.3600       360
    82.3800       366
    82.4000       386
    82.4200       412
    82.4400       416
    82.4600       384
    82.4800       406
    82.5000       404
    82.5200       394
    82.5400       410
    82.5600       454
    82.5800       448
    82.6000       428
    82.6200       416
    82.6400       496
    82.6600       460
    82.6800       472
    82.7000       464
    82.7200       468
    82.7400       494
    82.7600       538
    82.7800       534
    82.8000       508
    82.8200       538
    82.8400       552
    82.8600       526
    82.8800       576
    82.9000       592
    82.9200       560
    82.9400       574
    82.9600       572
    82.9800       524
    83.0000       552
    83.0200       570
    83.0400       570
    83.0600       538
    83.0800       530
    83.1000       552
    83.1200       548
    83.1400       516
    83.1600       504
    83.1800       506
    83.2000       518
    83.2200       558
    83.2400       482
    83.2600       478
    83.2800       426
    83.3000       424
    83.3200       500
    83.3400       430
    83.3600       478
    83.3800       422
    83.4000       386
    83.4200       446
    83.4400       400
    83.4600       432
    83.4800       450
    83.5000       400
    83.5200       382
    83.5400       430
    83.5600       374
    83.5800       382
    83.6000       372
    83.6200       348
    83.6400       340
    83.6600       346
    83.6800       354
    83.7000       318
    83.7200       338
    83.7400       348
    83.7600       326
    83.7800       312
    83.8000       334
    83.8200       310
    83.8400       338
    83.8600       330
    83.8800       342
    83.9000       352
    83.9200       356
    83.9400       352
    83.9600       318
    83.9800       334
    84.0000       332
    84.0200       324
    84.0400       298
    84.0600       308
    84.0800       318
    84.1000       306
    84.1200       330
    84.1400       334
    84.1600       312
    84.1800       356
    84.2000       310
    84.2200       290
    84.2400       288
    84.2600       280
    84.2800       294
    84.3000       294
    84.3200       294
    84.3400       300
    84.3600       322
    84.3800       292
    84.4000       276
    84.4200       288
    84.4400       306
    84.4600       270
    84.4800       294
    84.5000       302
    84.5200       248
    84.5400       270
    84.5600       258
    84.5800       270
    84.6000       296
    84.6200       288
    84.6400       286
    84.6600       272
    84.6800       288
    84.7000       270
    84.7200       240
    84.7400       290
    84.7600       286
    84.7800       278
    84.8000       290
    84.8200       270
    84.8400       254
    84.8600       264
    84.8800       270
    84.9000       258
    84.9200       258
    84.9400       262
    84.9600       270
    84.9800       258
    85.0000       250
    85.0200       274
    85.0400       300
    85.0600       284
    85.0800       258
    85.1000       282
    85.1200       242
    85.1400       274
    85.1600       282
    85.1800       266
    85.2000       296
    85.2200       274
    85.2400       274
    85.2600       230
    85.2800       270
    85.3000       258
    85.3200       288
    85.3400       284
    85.3600       302
    85.3800       304
    85.4000       270
    85.4200       276
    85.4400       300
    85.4600       290
    85.4800       302
    85.5000       302
    85.5200       288
    85.5400       290
    85.5600       286
    85.5800       298
    85.6000       268
    85.6200       286
    85.6400       280
    85.6600       292
    85.6800       262
    85.7000       276
    85.7200       278
    85.7400       258
    85.7600       280
    85.7800       280
    85.8000       276
    85.8200       262
    85.8400       220
    85.8600       278
    85.8800       282
    85.9000       300
    85.9200       270
    85.9400       268
    85.9600       260
    85.9800       242
    86.0000       294
    86.0200       250
    86.0400       256
    86.0600       260
    86.0800       248
    86.1000       276
    86.1200       246
    86.1400       252
    86.1600       214
    86.1800       252
    86.2000       240
    86.2200       252
    86.2400       234
    86.2600       254
    86.2800       240
    86.3000       268
    86.3200       250
    86.3400       256
    86.3600       228
    86.3800       252
    86.4000       230
    86.4200       242
    86.4400       238
    86.4600       252
    86.4800       260
    86.5000       262
    86.5200       260
    86.5400       280
    86.5600       256
    86.5800       264
    86.6000       266
    86.6200       272
    86.6400       294
    86.6600       296
    86.6800       294
    86.7000       280
    86.7200       282
    86.7400       266
    86.7600       338
    86.7800       268
    86.8000       314
    86.8200       316
    86.8400       318
    86.8600       316
    86.8800       358
    86.9000       332
    86.9200       340
    86.9400       334
    86.9600       338
    86.9800       330
    87.0000       312
    87.0200       320
    87.0400       366
    87.0600       332
    87.0800       336
    87.1000       324
    87.1200       350
    87.1400       320
    87.1600       328
    87.1800       332
    87.2000       346
    87.2200       330
    87.2400       316
    87.2600       336
    87.2800       318
    87.3000       322
    87.3200       288
    87.3400       328
    87.3600       340
    87.3800       298
    87.4000       300
    87.4200       326
    87.4400       332
    87.4600       322
    87.4800       308
    87.5000       322
    87.5200       302
    87.5400       284
    87.5600       346
    87.5800       320
    87.6000       296
    87.6200       316
    87.6400       338
    87.6600       340
    87.6800       326
    87.7000       318
    87.7200       352
    87.7400       344
    87.7600       380
    87.7800       340
    87.8000       380
    87.8200       376
    87.8400       366
    87.8600       400
    87.8800       378
    87.9000       408
    87.9200       346
    87.9400       346
    87.9600       380
    87.9800       386
    88.0000       382
    88.0200       396
    88.0400       426
    88.0600       424
    88.0800       386
    88.1000       376
    88.1200       388
    88.1400       406
    88.1600       362
    88.1800       374
    88.2000       404
    88.2200       352
    88.2400       354
    88.2600       356
    88.2800       400
    88.3000       348
    88.3200       362
    88.3400       358
    88.3600       356
    88.3800       360
    88.4000       350
    88.4200       366
    88.4400       340
    88.4600       360
    88.4800       360
    88.5000       350
    88.5200       354
    88.5400       354
    88.5600       312
    88.5800       348
    88.6000       314
    88.6200       356
    88.6400       338
    88.6600       336
    88.6800       330
    88.7000       328
    88.7200       308
    88.7400       288
    88.7600       296
    88.7800       300
    88.8000       330
    88.8200       284
    88.8400       292
    88.8600       340
    88.8800       300
    88.9000       296
    88.9200       300
    88.9400       304
    88.9600       298
    88.9800       294
    89.0000       268
    89.0200       288
    89.0400       278
    89.0600       254
    89.0800       298
    89.1000       252
    89.1200       276
    89.1400       280
    89.1600       306
    89.1800       260
    89.2000       306
    89.2200       292
    89.2400       280
    89.2600       262
    89.2800       268
    89.3000       276
    89.3200       274
    89.3400       288
    89.3600       280
    89.3800       266
    89.4000       270
    89.4200       296
    89.4400       308
    89.4600       308
    89.4800       320
    89.5000       326
    89.5200       302
    89.5400       288
    89.5600       308
    89.5800       302
    89.6000       290
    89.6200       336
    89.6400       306
    89.6600       304
    89.6800       284
    89.7000       290
    89.7200       328
    89.7400       286
    89.7600       312
    89.7800       300
    89.8000       292
    89.8200       306
    89.8400       312
    89.8600       320
    89.8800       318
    89.9000       300
    89.9200       328
    89.9400       316
    89.9600       296
    89.9800       292
    90.0000       344
