    10.0000       382
    10.0200       370
    10.0400       374
    10.0600       360
    10.0800       368
    10.1000       370
    10.1200       354
    10.1400       392
    10.1600       400
    10.1800       394
    10.2000       356
    10.2200       334
    10.2400       374
    10.2600       352
    10.2800       344
    10.3000       404
    10.3200       366
    10.3400       358
    10.3600       342
    10.3800       356
    10.4000       334
    10.4200       306
    10.4400       364
    10.4600       334
    10.4800       330
    10.5000       366
    10.5200       390
    10.5400       302
    10.5600       352
    10.5800       344
    10.6000       384
    10.6200       362
    10.6400       356
    10.6600       350
    10.6800       336
    10.7000       340
    10.7200       354
    10.7400       346
    10.7600       336
    10.7800       352
    10.8000       372
    10.8200       316
    10.8400       328
    10.8600       316
    10.8800       356
    10.9000       338
    10.9200       312
    10.9400       352
    10.9600       332
    10.9800       334
    11.0000       340
    11.0200       358
    11.0400       314
    11.0600       318
    11.0800       320
    11.1000       330
    11.1200       336
    11.1400       334
    11.1600       332
    11.1800       322
    11.2000       298
    11.2200       308
    11.2400       322
    11.2600       326
    11.2800       338
    11.3000       290
    11.3200       298
    11.3400       314
    11.3600       318
    11.3800       342
    11.4000       336
    11.4200       322
    11.4400       344
    11.4600       340
    11.4800       328
    11.5000       326
    11.5200       322
    11.5400       324
    11.5600       310
    11.5800       332
    11.6000       358
    11.6200       334
    11.6400       306
    11.6600       310
    11.6800       308
    11.7000       314
    11.7200       374
    11.7400       304
    11.7600       344
    11.7800       336
    11.8000       322
    11.8200       362
    11.8400       342
    11.8600       336
    11.8800       326
    11.9000       370
    11.9200       374
    11.9400       372
    11.9600       400
    11.9800       400
    12.0000       378
    12.0200       400
    12.0400       408
    12.0600       438
    12.0800       458
    12.1000       498
    12.1200       498
    12.1400       530
    12.1600       480
    12.1800       502
    12.2000       524
    12.2200       480
    12.2400       516
    12.2600       432
    12.2800       442
    12.3000       416
    12.3200       428
    12.3400       352
    12.3600       330
    12.3800       324
    12.4000       354
    12.4200       354
    12.4400       318
    12.4600       286
    12.4800       300
    12.5000       336
    12.5200       292
    12.5400       330
    12.5600       308
    12.5800       280
    12.6000       316
    12.6200       288
    12.6400       300
    12.6600       298
    12.6800       304
    12.7000       304
    12.7200       332
    12.7400       294
    12.7600       298
    12.7800       294
    12.8000       290
    12.8200       318
    12.8400       284
    12.8600       264
    12.8800       280
    12.9000       270
    12.9200       274
    12.9400       312
    12.9600       250
    12.9800       290
    13.0000       296
    13.0200       280
    13.0400       278
    13.0600       304
    13.0800       288
    13.1000       276
    13.1200       316
    13.1400       242
    13.1600       304
    13.1800       296
    13.2000       288
    13.2200       254
    13.2400       276
    13.2600       262
    13.2800       302
    13.3000       288
    13.3200       256
    13.3400       278
    13.3600       272
    13.3800       248
    13.4000       268
    13.4200       252
    13.4400       286
    13.4600       288
    13.4800       278
    13.5000       256
    13.5200       274
    13.5400       248
    13.5600       258
    13.5800       278
    13.6000       276
    13.6200       276
    13.6400       260
    13.6600       276
    13.6800       254
    13.7000       276
    13.7200       284
    13.7400       280
    13.7600       258
    13.7800       254
    13.8000       268
    13.8200       288
    13.8400       300
    13.8600       276
    13.8800       264
    13.9000       250
    13.9200       264
    13.9400       280
    13.9600       282
    13.9800       280
    14.0000       262
    14.0200       246
    14.0400       252
    14.0600       246
    14.0800       256
    14.1000       268
    14.1200       306
    14.1400       286
    14.1600       250
    14.1800       264
    14.2000       272
    14.2200       252
    14.2400       286
    14.2600       290
    14.2800       258
    14.3000       276
    14.3200       258
    14.3400       294
    14.3600       276
    14.3800       264
    14.4000       246
    14.4200       302
    14.4400       266
    14.4600       262
    14.4800       260
    14.5000       268
    14.5200       276
    14.5400       272
    14.5600       286
    14.5800       274
    14.6000       270
    14.6200       320
    14.6400       294
    14.6600       284
    14.6800       334
    14.7000       346
    14.7200       328
    14.7400       362
    14.7600       352
    14.7800       348
    14.8000       352
    14.8200       390
    14.8400       406
    14.8600       464
    14.8800       400
    14.9000       510
    14.9200       512
    14.9400       544
    14.9600       552
    14.9800       596
    15.0000       666
    15.0200       646
    15.0400       770
    15.0600       770
    15.0800       896
    15.1000       964
    15.1200      1112
    15.1400      1106
    15.1600      1184
    15.1800      1242
    15.2000      1296
    15.2200      1304
    15.2400      1228
    15.2600      1096
    15.2800       976
    15.3000       780
    15.3200       680
    15.3400       578
    15.3600       498
    15.3800       420
    15.4000       438
    15.4200       382
    15.4400       336
    15.4600       370
    15.4800       334
    15.5000       342
    15.5200       304
    15.5400       282
    15.5600       268
    15.5800       288
    15.6000       314
    15.6200       342
    15.6400       280
    15.6600       244
    15.6800       306
    15.7000       278
    15.7200       266
    15.7400       270
    15.7600       274
    15.7800       312
    15.8000       262
    15.8200       246
    15.8400       276
    15.8600       278
    15.8800       248
    15.9000       266
    15.9200       270
    15.9400       260
    15.9600       268
    15.9800       306
    16.0000       270
    16.0200       278
    16.0400       294
    16.0600       270
    16.0800       292
    16.1000       298
    16.1200       286
    16.1400       348
    16.1600       308
    16.1800       350
    16.2000       304
    16.2200       318
    16.2400       320
    16.2600       402
    16.2800       366
    16.3000       370
    16.3200       328
    16.3400       330
    16.3600       342
    16.3800       334
    16.4000       354
    16.4200       324
    16.4400       324
    16.4600       330
    16.4800       352
    16.5000       320
    16.5200       292
    16.5400       326
    16.5600       346
    16.5800       372
    16.6000       360
    16.6200       382
    16.6400       384
    16.6600       444
    16.6800       418
    16.7000       462
    16.7200       486
    16.7400       530
    16.7600       536
    16.7800       608
    16.8000       610
    16.8200       674
    16.8400       752
    16.8600       870
    16.8800       972
    16.9000      1062
    16.9200      1226
    16.9400      1394
    16.9600      1544
    16.9800      1714
    17.0000      1980
    17.0200      2012
    17.0400      1920
    17.0600      1946
    17.0800      1776
    17.1000      1526
    17.1200      1288
    17.1400      1066
    17.1600       976
    17.1800       850
    17.2000       802
    17.2200       794
    17.2400       674
    17.2600       684
    17.2800       704
    17.3000       632
    17.3200       554
    17.3400       590
    17.3600       606
    17.3800       498
    17.4000       512
    17.4200       454
    17.4400       418
    17.4600       430
    17.4800       412
    17.5000       416
    17.5200       410
    17.5400       376
    17.5600       394
    17.5800       364
    17.6000       416
    17.6200       428
    17.6400       402
    17.6600       446
    17.6800       450
    17.7000       472
    17.7200       528
    17.7400       544
    17.7600       568
    17.7800       576
    17.8000       650
    17.8200       668
    17.8400       698
    17.8600       668
    17.8800       670
    17.9000       620
    17.9200       540
    17.9400       482
    17.9600       422
    17.9800       348
    18.0000       362
    18.0200       342
    18.0400       298
    18.0600       296
    18.0800       266
    18.1000       270
    18.1200       280
    18.1400       230
    18.1600       260
    18.1800       266
    18.2000       228
    18.2200       218
    18.2400       238
    18.2600       236
    18.2800       210
    18.3000       234
    18.3200       232
    18.3400       258
    18.3600       250
    18.3800       222
    18.4000       210
    18.4200       242
    18.4400       234
    18.4600       242
    18.4800       190
    18.5000       226
    18.5200       244
    18.5400       238
    18.5600       212
    18.5800       228
    18.6000       232
    18.6200       212
    18.6400       214
    18.6600       218
    18.6800       228
    18.7000       246
    18.7200       234
    18.7400       210
    18.7600       234
    18.7800       226
    18.8000       220
    18.8200       224
    18.8400       224
    18.8600       234
    18.8800       250
    18.9000       246
    18.9200       280
    18.9400       262
    18.9600       282
    18.9800       258
    19.0000       260
    19.0200       304
    19.0400       284
    19.0600       356
    19.0800       286
    19.1000       348
    19.1200       346
    19.1400       400
    19.1600       392
    19.1800       444
    19.2000       498
    19.2200       502
    19.2400       552
    19.2600       666
    19.2800       672
    19.3000       790
    19.3200       844
    19.3400       956
    19.3600      1074
    19.3800      1250
    19.4000      1440
    19.4200      1698
    19.4400      1932
    19.4600      2134
    19.4800      2484
    19.5000      2632
    19.5200      2942
    19.5400      3092
    19.5600      2996
    19.5800      2688
    19.6000      2298
    19.6200      1932
    19.6400      1606
    19.6600      1360
    19.6800      1052
    19.7000      1002
    19.7200       976
    19.7400      1002
    19.7600       984
    19.7800      1074
    19.8000      1128
    19.8200      1180
    19.8400      1380
    19.8600      1432
    19.8800      1676
    19.9000      1894
    19.9200      2016
    19.9400      2112
    19.9600      2256
    19.9800      2424
    20.0000      2290
    20.0200      2180
    20.0400      1782
    20.0600      1588
    20.0800      1282
    20.1000      1086
    20.1200       854
    20.1400       760
    20.1600       600
    20.1800       506
    20.2000       540
    20.2200       488
    20.2400       438
    20.2600       446
    20.2800       424
    20.3000       372
    20.3200       388
    20.3400       402
    20.3600       354
    20.3800       340
    20.4000       356
    20.4200       308
    20.4400       302
    20.4600       262
    20.4800       282
    20.5000       284
    20.5200       296
    20.5400       268
    20.5600       284
    20.5800       264
    20.6000       250
    20.6200       266
    20.6400       272
    20.6600       248
    20.6800       268
    20.7000       238
    20.7200       272
    20.7400       264
    20.7600       258
    20.7800       298
    20.8000       288
    20.8200       316
    20.8400       330
    20.8600       370
    20.8800       338
    20.9000       368
    20.9200       412
    20.9400       432
    20.9600       466
    20.9800       492
    21.0000       564
    21.0200       562
    21.0400       632
    21.0600       678
    21.0800       822
    21.1000       872
    21.1200       972
    21.1400       996
    21.1600      1130
    21.1800      1214
    21.2000      1188
    21.2200      1222
    21.2400      1258
    21.2600      1234
    21.2800      1128
    21.3000       956
    21.3200       900
    21.3400       780
    21.3600       646
    21.3800       606
    21.4000       536
    21.4200       472
    21.4400       396
    21.4600       358
    21.4800       354
    21.5000       360
    21.5200       318
    21.5400       298
    21.5600       294
    21.5800       270
    21.6000       272
    21.6200       258
    21.6400       248
    21.6600       250
    21.6800       244
    21.7000       242
    21.7200       262
    21.7400       248
    21.7600       228
    21.7800       230
    21.8000       254
    21.8200       230
    21.8400       210
    21.8600       224
    21.8800       216
    21.9000       226
    21.9200       222
    21.9400       260
    21.9600       226
    21.9800       216
    22.0000       238
    22.0200       228
    22.0400       222
    22.0600       226
    22.0800       248
    22.1000       234
    22.1200       224
    22.1400       238
    22.1600       270
    22.1800       230
    22.2000       228
    22.2200       256
    22.2400       238
    22.2600       252
    22.2800       252
    22.3000       290
    22.3200       260
    22.3400       260
    22.3600       302
    22.3800       312
    22.4000       356
    22.4200       346
    22.4400       376
    22.4600       408
    22.4800       432
    22.5000       488
    22.5200       558
    22.5400       596
    22.5600       642
    22.5800       760
    22.6000       880
    22.6200       922
    22.6400      1142
    22.6600      1270
    22.6800      1408
    22.7000      1702
    22.7200      2042
    22.7400      2252
    22.7600      2698
    22.7800      3046
    22.8000      3520
    22.8200      3888
    22.8400      4202
    22.8600      4270
    22.8800      4240
    22.9000      3790
    22.9200      3224
    22.9400      2728
    22.9600      2150
    22.9800      1712
    23.0000      1432
    23.0200      1182
    23.0400       948
    23.0600       832
    23.0800       764
    23.1000       682
    23.1200       580
    23.1400       572
    23.1600       540
    23.1800       474
    23.2000       472
    23.2200       424
    23.2400       396
    23.2600       362
    23.2800       378
    23.3000       382
    23.3200       294
    23.3400       286
    23.3600       300
    23.3800       306
    23.4000       290
    23.4200       292
    23.4400       256
    23.4600       278
    23.4800       266
    23.5000       264
    23.5200       256
    23.5400       252
    23.5600       240
    23.5800       260
    23.6000       254
    23.6200       240
    23.6400       242
    23.6600       258
    23.6800       250
    23.7000       244
    23.7200       236
    23.7400       242
    23.7600       262
    23.7800       266
    23.8000       236
    23.8200       240
    23.8400       264
    23.8600       244
    23.8800       244
    23.9000       250
    23.9200       282
    23.9400       258
    23.9600       278
    23.9800       276
    24.0000       272
    24.0200       266
    24.0400       270
    24.0600       294
    24.0800       300
    24.1000       312
    24.1200       330
    24.1400       302
    24.1600       342
    24.1800       340
    24.2000       356
    24.2200       366
    24.2400       382
    24.2600       408
    24.2800       434
    24.3000       460
    24.3200       524
    24.3400       540
    24.3600       630
    24.3800       702
    24.4000       748
    24.4200       806
    24.4400       870
    24.4600       902
    24.4800       958
    24.5000       988
    24.5200      1040
    24.5400      1044
    24.5600      1058
    24.5800      1018
    24.6000       942
    24.6200       908
    24.6400       886
    24.6600       872
    24.6800       816
    24.7000       690
    24.7200       742
    24.7400       704
    24.7600       664
    24.7800       662
    24.8000       644
    24.8200       574
    24.8400       554
    24.8600       558
    24.8800       468
    24.9000       496
    24.9200       414
    24.9400       442
    24.9600       412
    24.9800       430
    25.0000       434
    25.0200       432
    25.0400       430
    25.0600       434
    25.0800       444
    25.1000       484
    25.1200       468
    25.1400       526
    25.1600       538
    25.1800       628
    25.2000       632
    25.2200       738
    25.2400       800
    25.2600       908
    25.2800       940
    25.3000      1040
    25.3200      1056
    25.3400      1166
    25.3600      1182
    25.3800      1162
    25.4000      1156
    25.4200      1132
    25.4400      1038
    25.4600      1004
    25.4800       934
    25.5000       946
    25.5200       942
    25.5400      1058
    25.5600      1086
    25.5800      1094
    25.6000      1128
    25.6200      1110
    25.6400       998
    25.6600       892
    25.6800       768
    25.7000       742
    25.7200       590
    25.7400       534
    25.7600       490
    25.7800       482
    25.8000       450
    25.8200       414
    25.8400       394
    25.8600       348
    25.8800       386
    25.9000       384
    25.9200       340
    25.9400       332
    25.9600       330
    25.9800       312
    26.0000       308
    26.0200       332
    26.0400       302
    26.0600       282
    26.0800       306
    26.1000       282
    26.1200       318
    26.1400       290
    26.1600       324
    26.1800       332
    26.2000       326
    26.2200       316
    26.2400       340
    26.2600       358
    26.2800       352
    26.3000       366
    26.3200       372
    26.3400       392
    26.3600       410
    26.3800       396
    26.4000       440
    26.4200       424
    26.4400       412
    26.4600       430
    26.4800       440
    26.5000       450
    26.5200       480
    26.5400       458
    26.5600       478
    26.5800       478
    26.6000       458
    26.6200       474
    26.6400       484
    26.6600       506
    26.6800       472
    26.7000       466
    26.7200       466
    26.7400       430
    26.7600       414
    26.7800       354
    26.8000       388
    26.8200       378
    26.8400       360
    26.8600       326
    26.8800       270
    26.9000       304
    26.9200       312
    26.9400       300
    26.9600       296
    26.9800       312
    27.0000       296
    27.0200       300
    27.0400       302
    27.0600       318
    27.0800       348
    27.1000       324
    27.1200       326
    27.1400       354
    27.1600       344
    27.1800       356
    27.2000       358
    27.2200       390
    27.2400       404
    27.2600       444
    27.2800       476
    27.3000       468
    27.3200       568
    27.3400       582
    27.3600       634
    27.3800       658
    27.4000       708
    27.4200       706
    27.4400       786
    27.4600       784
    27.4800       776
    27.5000       812
    27.5200       804
    27.5400       820
    27.5600       688
    27.5800       728
    27.6000       682
    27.6200       640
    27.6400       594
    27.6600       528
    27.6800       476
    27.7000       452
    27.7200       462
    27.7400       410
    27.7600       362
    27.7800       362
    27.8000       328
    27.8200       310
    27.8400       328
    27.8600       324
    27.8800       332
    27.9000       304
    27.9200       294
    27.9400       272
    27.9600       286
    27.9800       296
    28.0000       276
    28.0200       252
    28.0400       296
    28.0600       266
    28.0800       252
    28.1000       256
    28.1200       288
    28.1400       258
    28.1600       262
    28.1800       272
    28.2000       246
    28.2200       226
    28.2400       266
    28.2600       236
    28.2800       286
    28.3000       284
    28.3200       286
    28.3400       286
    28.3600       250
    28.3800       284
    28.4000       302
    28.4200       288
    28.4400       314
    28.4600       280
    28.4800       316
    28.5000       294
    28.5200       312
    28.5400       294
    28.5600       346
    28.5800       326
    28.6000       360
    28.6200       364
    28.6400       352
    28.6600       362
    28.6800       412
    28.7000       426
    28.7200       410
    28.7400       410
    28.7600       380
    28.7800       362
    28.8000       348
    28.8200       362
    28.8400       298
    28.8600       286
    28.8800       340
    28.9000       296
    28.9200       288
    28.9400       334
    28.9600       270
    28.9800       322
    29.0000       270
    29.0200       258
    29.0400       304
    29.0600       290
    29.0800       302
    29.1000       282
    29.1200       290
    29.1400       304
    29.1600       320
    29.1800       304
    29.2000       312
    29.2200       304
    29.2400       358
    29.2600       358
    29.2800       364
    29.3000       364
    29.3200       398
    29.3400       390
    29.3600       432
    29.3800       418
    29.4000       416
    29.4200       442
    29.4400       474
    29.4600       524
    29.4800       536
    29.5000       556
    29.5200       618
    29.5400       662
    29.5600       758
    29.5800       740
    29.6000       830
    29.6200       888
    29.6400      1000
    29.6600      1026
    29.6800      1110
    29.7000      1082
    29.7200      1162
    29.7400      1094
    29.7600      1014
    29.7800       966
    29.8000       922
    29.8200       848
    29.8400       770
    29.8600       734
    29.8800       708
    29.9000       660
    29.9200       706
    29.9400       730
    29.9600       704
    29.9800       766
    30.0000       860
    30.0200       848
    30.0400       958
    30.0600       984
    30.0800      1104
    30.1000      1248
    30.1200      1220
    30.1400      1362
    30.1600      1466
    30.1800      1532
    30.2000      1504
    30.2200      1630
    30.2400      1642
    30.2600      1646
    30.2800      1566
    30.3000      1578
    30.3200      1628
    30.3400      1534
    30.3600      1612
    30.3800      1644
    30.4000      1636
    30.4200      1764
    30.4400      1864
    30.4600      1866
    30.4800      2126
    30.5000      2174
    30.5200      2520
    30.5400      2712
    30.5600      2944
    30.5800      3372
    30.6000      3740
    30.6200      4118
    30.6400      4608
    30.6600      4928
    30.6800      5388
    30.7000      5608
    30.7200      5562
    30.7400      5214
    30.7600      4978
    30.7800      4510
    30.8000      3918
    30.8200      3498
    30.8400      2892
    30.8600      2496
    30.8800      2078
    30.9000      1736
    30.9200      1414
    30.9400      1266
    30.9600      1140
    30.9800       992
    31.0000       930
    31.0200       866
    31.0400       754
    31.0600       754
    31.0800       670
    31.1000       654
    31.1200       604
    31.1400       556
    31.1600       548
    31.1800       456
    31.2000       508
    31.2200       488
    31.2400       452
    31.2600       392
    31.2800       440
    31.3000       426
    31.3200       382
    31.3400       366
    31.3600       386
    31.3800       400
    31.4000       392
    31.4200       374
    31.4400       402
    31.4600       390
    31.4800       352
    31.5000       394
    31.5200       402
    31.5400       430
    31.5600       426
    31.5800       456
    31.6000       454
    31.6200       496
    31.6400       514
    31.6600       528
    31.6800       558
    31.7000       580
    31.7200       648
    31.7400       752
    31.7600       758
    31.7800       832
    31.8000       888
    31.8200      1002
    31.8400      1084
    31.8600      1260
    31.8800      1426
    31.9000      1604
    31.9200      1790
    31.9400      2042
    31.9600      2144
    31.9800      2284
    32.0000      2342
    32.0200      2188
    32.0400      2128
    32.0600      1982
    32.0800      1888
    32.1000      1638
    32.1200      1560
    32.1400      1450
    32.1600      1318
    32.1800      1270
    32.2000      1352
    32.2200      1356
    32.2400      1476
    32.2600      1516
    32.2800      1580
    32.3000      1694
    32.3200      2038
    32.3400      2206
    32.3600      2540
    32.3800      2962
    32.4000      3394
    32.4200      4016
    32.4400      4624
    32.4600      5244
    32.4800      5774
    32.5000      6474
    32.5200      6896
    32.5400      7270
    32.5600      7266
    32.5800      6990
    32.6000      6552
    32.6200      5942
    32.6400      5168
    32.6600      4664
    32.6800      4030
    32.7000      3544
    32.7200      2916
    32.7400      2506
    32.7600      2146
    32.7800      1858
    32.8000      1736
    32.8200      1520
    32.8400      1432
    32.8600      1348
    32.8800      1292
    32.9000      1248
    32.9200      1276
    32.9400      1298
    32.9600      1280
    32.9800      1308
    33.0000      1364
    33.0200      1414
    33.0400      1526
    33.0600      1604
    33.0800      1544
    33.1000      1592
    33.1200      1492
    33.1400      1348
    33.1600      1262
    33.1800      1160
    33.2000       992
    33.2200       866
    33.2400       790
    33.2600       684
    33.2800       596
    33.3000       458
    33.3200       526
    33.3400       456
    33.3600       422
    33.3800       442
    33.4000       390
    33.4200       358
    33.4400       348
    33.4600       332
    33.4800       330
    33.5000       324
    33.5200       296
    33.5400       278
    33.5600       296
    33.5800       284
    33.6000       290
    33.6200       258
    33.6400       258
    33.6600       266
    33.6800       268
    33.7000       268
    33.7200       230
    33.7400       278
    33.7600       258
    33.7800       244
    33.8000       224
    33.8200       244
    33.8400       250
    33.8600       276
    33.8800       254
    33.9000       250
    33.9200       260
    33.9400       234
    33.9600       252
    33.9800       250
    34.0000       268
    34.0200       262
    34.0400       276
    34.0600       268
    34.0800       270
    34.1000       276
    34.1200       306
    34.1400       294
    34.1600       266
    34.1800       278
    34.2000       318
    34.2200       282
    34.2400       320
    34.2600       316
    34.2800       332
    34.3000       352
    34.3200       352
    34.3400       392
    34.3600       460
    34.3800       442
    34.4000       552
    34.4200       494
    34.4400       572
    34.4600       580
    34.4800       604
    34.5000       546
    34.5200       558
    34.5400       508
    34.5600       464
    34.5800       480
    34.6000       428
    34.6200       414
    34.6400       364
    34.6600       374
    34.6800       328
    34.7000       358
    34.7200       294
    34.7400       298
    34.7600       342
    34.7800       328
    34.8000       308
    34.8200       296
    34.8400       354
    34.8600       302
    34.8800       266
    34.9000       348
    34.9200       298
    34.9400       324
    34.9600       292
    34.9800       292
    35.0000       302
    35.0200       276
    35.0400       274
    35.0600       304
    35.0800       256
    35.1000       232
    35.1200       296
    35.1400       252
    35.1600       246
    35.1800       256
    35.2000       248
    35.2200       266
    35.2400       258
    35.2600       242
    35.2800       298
    35.3000       238
    35.3200       264
    35.3400       238
    35.3600       256
    35.3800       274
    35.4000       254
    35.4200       276
    35.4400       282
    35.4600       290
    35.4800       288
    35.5000       284
    35.5200       276
    35.5400       302
    35.5600       298
    35.5800       298
    35.6000       338
    35.6200       314
    35.6400       332
    35.6600       308
    35.6800       314
    35.7000       322
    35.7200       316
    35.7400       338
    35.7600       358
    35.7800       392
    35.8000       388
    35.8200       388
    35.8400       386
    35.8600       408
    35.8800       442
    35.9000       426
    35.9200       486
    35.9400       482
    35.9600       518
    35.9800       574
    36.0000       598
    36.0200       672
    36.0400       738
    36.0600       754
    36.0800       916
    36.1000       886
    36.1200       970
    36.1400      1014
    36.1600       994
    36.1800      1008
    36.2000       964
    36.2200       920
    36.2400       834
    36.2600       730
    36.2800       744
    36.3000       694
    36.3200       584
    36.3400       578
    36.3600       580
    36.3800       502
    36.4000       500
    36.4200       470
    36.4400       488
    36.4600       456
    36.4800       450
    36.5000       446
    36.5200       464
    36.5400       554
    36.5600       488
    36.5800       510
    36.6000       576
    36.6200       592
    36.6400       610
    36.6600       688
    36.6800       774
    36.7000       754
    36.7200       922
    36.7400       994
    36.7600      1190
    36.7800      1282
    36.8000      1486
    36.8200      1582
    36.8400      1754
    36.8600      1832
    36.8800      1800
    36.9000      1936
    36.9200      1842
    36.9400      1732
    36.9600      1648
    36.9800      1490
    37.0000      1446
    37.0200      1284
    37.0400      1086
    37.0600      1030
    37.0800       942
    37.1000       926
    37.1200       814
    37.1400       834
    37.1600       806
    37.1800       778
    37.2000       706
    37.2200       718
    37.2400       684
    37.2600       678
    37.2800       674
    37.3000       640
    37.3200       636
    37.3400       572
    37.3600       572
    37.3800       528
    37.4000       528
    37.4200       510
    37.4400       520
    37.4600       506
    37.4800       520
    37.5000       492
    37.5200       522
    37.5400       518
    37.5600       526
    37.5800       498
    37.6000       544
    37.6200       504
    37.6400       536
    37.6600       558
    37.6800       528
    37.7000       562
    37.7200       602
    37.7400       608
    37.7600       648
    37.7800       748
    37.8000       780
    37.8200       904
    37.8400       930
    37.8600      1044
    37.8800      1154
    37.9000      1338
    37.9200      1442
    37.9400      1514
    37.9600      1716
    37.9800      1864
    38.0000      1964
    38.0200      2052
    38.0400      2094
    38.0600      1976
    38.0800      1828
    38.1000      1818
    38.1200      1682
    38.1400      1722
    38.1600      1650
    38.1800      1564
    38.2000      1596
    38.2200      1560
    38.2400      1614
    38.2600      1708
    38.2800      1810
    38.3000      1928
    38.3200      2218
    38.3400      2464
    38.3600      2608
    38.3800      2978
    38.4000      3360
    38.4200      3640
    38.4400      3978
    38.4600      4422
    38.4800      4650
    38.5000      4804
    38.5200      4822
    38.5400      4942
    38.5600      5178
    38.5800      5188
    38.6000      5120
    38.6200      5340
    38.6400      5468
    38.6600      5634
    38.6800      5560
    38.7000      5448
    38.7200      5302
    38.7400      5056
    38.7600      4890
    38.7800      4506
    38.8000      4152
    38.8200      3714
    38.8400      3296
    38.8600      2946
    38.8800      2582
    38.9000      2326
    38.9200      2060
    38.9400      1864
    38.9600      1662
    38.9800      1544
    39.0000      1498
    39.0200      1310
    39.0400      1282
    39.0600      1246
    39.0800      1188
    39.1000      1160
    39.1200      1150
    39.1400      1096
    39.1600      1126
    39.1800      1096
    39.2000      1068
    39.2200       994
    39.2400      1040
    39.2600      1028
    39.2800      1046
    39.3000      1010
    39.3200      1040
    39.3400      1098
    39.3600      1120
    39.3800      1130
    39.4000      1174
    39.4200      1178
    39.4400      1296
    39.4600      1310
    39.4800      1350
    39.5000      1470
    39.5200      1432
    39.5400      1520
    39.5600      1628
    39.5800      1702
    39.6000      1944
    39.6200      1940
    39.6400      2128
    39.6600      2266
    39.6800      2236
    39.7000      2242
    39.7200      2146
    39.7400      2104
    39.7600      1952
    39.7800      1808
    39.8000      1694
    39.8200      1544
    39.8400      1292
    39.8600      1186
    39.8800      1028
    39.9000       998
    39.9200       888
    39.9400       902
    39.9600       800
    39.9800       776
    40.0000       726
    40.0200       752
    40.0400       748
    40.0600       732
    40.0800       742
    40.1000       768
    40.1200       726
    40.1400       776
    40.1600       812
    40.1800       814
    40.2000       808
    40.2200       866
    40.2400       898
    40.2600       840
    40.2800       846
    40.3000       946
    40.3200       914
    40.3400       972
    40.3600       978
    40.3800      1090
    40.4000      1032
    40.4200      1188
    40.4400      1152
    40.4600      1324
    40.4800      1370
    40.5000      1478
    40.5200      1552
    40.5400      1652
    40.5600      1784
    40.5800      1732
    40.6000      1786
    40.6200      1848
    40.6400      1744
    40.6600      1638
    40.6800      1592
    40.7000      1450
    40.7200      1380
    40.7400      1234
    40.7600      1166
    40.7800      1060
    40.8000      1028
    40.8200       876
    40.8400       926
    40.8600       780
    40.8800       780
    40.9000       752
    40.9200       718
    40.9400       714
    40.9600       692
    40.9800       652
    41.0000       714
    41.0200       740
    41.0400       724
    41.0600       744
    41.0800       768
    41.1000       838
    41.1200       860
    41.1400       918
    41.1600       990
    41.1800      1012
    41.2000      1024
    41.2200      1028
    41.2400      1148
    41.2600      1172
    41.2800      1160
    41.3000      1274
    41.3200      1338
    41.3400      1290
    41.3600      1322
    41.3800      1406
    41.4000      1412
    41.4200      1414
    41.4400      1412
    41.4600      1444
    41.4800      1534
    41.5000      1552
    41.5200      1642
    41.5400      1590
    41.5600      1646
    41.5800      1752
    41.6000      1732
    41.6200      1582
    41.6400      1600
    41.6600      1616
    41.6800      1614
    41.7000      1514
    41.7200      1514
    41.7400      1586
    41.7600      1496
    41.7800      1516
    41.8000      1648
    41.8200      1642
    41.8400      1832
    41.8600      1894
    41.8800      1940
    41.9000      1900
    41.9200      1914
    41.9400      1766
    41.9600      1718
    41.9800      1566
    42.0000      1496
    42.0200      1376
    42.0400      1274
    42.0600      1090
    42.0800      1022
    42.1000       866
    42.1200       932
    42.1400       742
    42.1600       738
    42.1800       672
    42.2000       602
    42.2200       620
    42.2400       542
    42.2600       578
    42.2800       548
    42.3000       594
    42.3200       506
    42.3400       474
    42.3600       490
    42.3800       494
    42.4000       516
    42.4200       476
    42.4400       462
    42.4600       488
    42.4800       444
    42.5000       470
    42.5200       470
    42.5400       452
    42.5600       410
    42.5800       460
    42.6000       430
    42.6200       446
    42.6400       442
    42.6600       412
    42.6800       466
    42.7000       430
    42.7200       462
    42.7400       504
    42.7600       402
    42.7800       440
    42.8000       504
    42.8200       498
    42.8400       514
    42.8600       514
    42.8800       538
    42.9000       554
    42.9200       548
    42.9400       616
    42.9600       684
    42.9800       738
    43.0000       774
    43.0200       910
    43.0400       990
    43.0600      1094
    43.0800      1146
    43.1000      1282
    43.1200      1460
    43.1400      1584
    43.1600      1634
    43.1800      1672
    43.2000      1748
    43.2200      1668
    43.2400      1724
    43.2600      1580
    43.2800      1458
    43.3000      1410
    43.3200      1322
    43.3400      1134
    43.3600      1052
    43.3800       976
    43.4000       898
    43.4200       804
    43.4400       720
    43.4600       670
    43.4800       656
    43.5000       634
    43.5200       592
    43.5400       618
    43.5600       532
    43.5800       544
    43.6000       548
    43.6200       532
    43.6400       526
    43.6600       568
    43.6800       578
    43.7000       654
    43.7200       600
    43.7400       634
    43.7600       664
    43.7800       662
    43.8000       760
    43.8200       710
    43.8400       726
    43.8600       690
    43.8800       684
    43.9000       724
    43.9200       660
    43.9400       640
    43.9600       610
    43.9800       554
    44.0000       566
    44.0200       566
    44.0400       518
    44.0600       500
    44.0800       494
    44.1000       502
    44.1200       486
    44.1400       482
    44.1600       472
    44.1800       484
    44.2000       476
    44.2200       544
    44.2400       452
    44.2600       502
    44.2800       528
    44.3000       510
    44.3200       494
    44.3400       516
    44.3600       560
    44.3800       522
    44.4000       512
    44.4200       550
    44.4400       534
    44.4600       506
    44.4800       468
    44.5000       450
    44.5200       536
    44.5400       460
    44.5600       474
    44.5800       474
    44.6000       510
    44.6200       496
    44.6400       514
    44.6600       524
    44.6800       530
    44.7000       536
    44.7200       532
    44.7400       566
    44.7600       588
    44.7800       656
    44.8000       650
    44.8200       710
    44.8400       750
    44.8600       818
    44.8800       872
    44.9000       918
    44.9200       942
    44.9400       992
    44.9600      1054
    44.9800      1136
    45.0000      1152
    45.0200      1266
    45.0400      1300
    45.0600      1318
    45.0800      1396
    45.1000      1568
    45.1200      1584
    45.1400      1726
    45.1600      1672
    45.1800      1760
    45.2000      1818
    45.2200      1944
    45.2400      1858
    45.2600      1958
    45.2800      1928
    45.3000      1846
    45.3200      1816
    45.3400      1802
    45.3600      1672
    45.3800      1700
    45.4000      1612
    45.4200      1634
    45.4400      1450
    45.4600      1472
    45.4800      1372
    45.5000      1228
    45.5200      1202
    45.5400      1144
    45.5600      1054
    45.5800      1046
    45.6000       926
    45.6200       928
    45.6400       858
    45.6600       892
    45.6800       846
    45.7000       736
    45.7200       696
    45.7400       682
    45.7600       610
    45.7800       680
    45.8000       660
    45.8200       622
    45.8400       666
    45.8600       642
    45.8800       640
    45.9000       592
    45.9200       608
    45.9400       602
    45.9600       658
    45.9800       650
    46.0000       636
    46.0200       640
    46.0400       664
    46.0600       674
    46.0800       654
    46.1000       716
    46.1200       688
    46.1400       748
    46.1600       760
    46.1800       808
    46.2000       828
    46.2200       846
    46.2400       874
    46.2600       978
    46.2800       974
    46.3000      1094
    46.3200      1150
    46.3400      1226
    46.3600      1342
    46.3800      1472
    46.4000      1548
    46.4200      1732
    46.4400      2000
    46.4600      2190
    46.4800      2484
    46.5000      2666
    46.5200      3108
    46.5400      3628
    46.5600      3972
    46.5800      4666
    46.6000      5212
    46.6200      5750
    46.6400      6284
    46.6600      6892
    46.6800      7336
    46.7000      7508
    46.7200      7412
    46.7400      7182
    46.7600      6822
    46.7800      6578
    46.8000      6082
    46.8200      5728
    46.8400      5226
    46.8600      4670
    46.8800      4130
    46.9000      3560
    46.9200      3086
    46.9400      2702
    46.9600      2386
    46.9800      2114
    47.0000      1846
    47.0200      1694
    47.0400      1554
    47.0600      1404
    47.0800      1270
    47.1000      1210
    47.1200      1068
    47.1400       992
    47.1600       974
    47.1800       904
    47.2000       868
    47.2200       792
    47.2400       828
    47.2600       698
    47.2800       708
    47.3000       676
    47.3200       688
    47.3400       610
    47.3600       640
    47.3800       596
    47.4000       596
    47.4200       602
    47.4400       600
    47.4600       588
    47.4800       556
    47.5000       576
    47.5200       562
    47.5400       536
    47.5600       546
    47.5800       564
    47.6000       570
    47.6200       568
    47.6400       594
    47.6600       570
    47.6800       650
    47.7000       632
    47.7200       672
    47.7400       662
    47.7600       726
    47.7800       712
    47.8000       808
    47.8200       890
    47.8400       800
    47.8600       860
    47.8800       892
    47.9000       884
    47.9200       786
    47.9400       824
    47.9600       752
    47.9800       804
    48.0000       754
    48.0200       782
    48.0400       754
    48.0600       736
    48.0800       802
    48.1000       786
    48.1200       780
    48.1400       844
    48.1600       850
    48.1800       904
    48.2000       874
    48.2200       880
    48.2400       922
    48.2600       880
    48.2800       870
    48.3000       814
    48.3200       858
    48.3400       800
    48.3600       808
    48.3800       846
    48.4000       826
    48.4200       804
    48.4400       788
    48.4600       756
    48.4800       842
    48.5000       834
    48.5200       824
    48.5400       766
    48.5600       836
    48.5800       860
    48.6000       826
    48.6200       832
    48.6400       796
    48.6600       866
    48.6800       814
    48.7000       794
    48.7200       786
    48.7400       766
    48.7600       710
    48.7800       716
    48.8000       684
    48.8200       672
    48.8400       682
    48.8600       642
    48.8800       570
    48.9000       578
    48.9200       578
    48.9400       540
    48.9600       522
    48.9800       478
    49.0000       456
    49.0200       452
    49.0400       448
    49.0600       446
    49.0800       406
    49.1000       406
    49.1200       412
    49.1400       366
    49.1600       362
    49.1800       378
    49.2000       362
    49.2200       376
    49.2400       386
    49.2600       350
    49.2800       356
    49.3000       368
    49.3200       342
    49.3400       380
    49.3600       368
    49.3800       386
    49.4000       348
    49.4200       342
    49.4400       366
    49.4600       354
    49.4800       318
    49.5000       342
    49.5200       364
    49.5400       344
    49.5600       370
    49.5800       380
    49.6000       382
    49.6200       398
    49.6400       376
    49.6600       394
    49.6800       360
    49.7000       378
    49.7200       352
    49.7400       406
    49.7600       398
    49.7800       394
    49.8000       418
    49.8200       416
    49.8400       438
    49.8600       468
    49.8800       442
    49.9000       460
    49.9200       500
    49.9400       514
    49.9600       552
    49.9800       510
    50.0000       556
    50.0200       564
    50.0400       634
    50.0600       636
    50.0800       690
    50.1000       724
    50.1200       728
    50.1400       764
    50.1600       880
    50.1800       882
    50.2000       894
    50.2200       904
    50.2400       988
    50.2600       950
    50.2800       990
    50.3000      1008
    50.3200      1036
    50.3400      1086
    50.3600      1038
    50.3800      1090
    50.4000      1082
    50.4200      1086
    50.4400      1094
    50.4600      1096
    50.4800      1042
    50.5000      1084
    50.5200      1114
    50.5400      1100
    50.5600      1092
    50.5800      1162
    50.6000      1116
    50.6200      1208
    50.6400      1198
    50.6600      1278
    50.6800      1336
    50.7000      1360
    50.7200      1518
    50.7400      1562
    50.7600      1676
    50.7800      1728
    50.8000      1862
    50.8200      1856
    50.8400      1914
    50.8600      1978
    50.8800      2000
    50.9000      1914
    50.9200      1862
    50.9400      1778
    50.9600      1668
    50.9800      1660
    51.0000      1512
    51.0200      1462
    51.0400      1434
    51.0600      1324
    51.0800      1286
    51.1000      1078
    51.1200      1044
    51.1400      1002
    51.1600      1000
    51.1800       912
    51.2000       942
    51.2200       924
    51.2400       880
    51.2600       836
    51.2800       850
    51.3000       878
    51.3200       908
    51.3400       908
    51.3600       872
    51.3800       882
    51.4000       876
    51.4200       914
    51.4400       888
    51.4600       874
    51.4800       852
    51.5000       836
    51.5200       874
    51.5400       842
    51.5600       854
    51.5800       864
    51.6000       888
    51.6200       862
    51.6400       874
    51.6600       888
    51.6800       962
    51.7000       920
    51.7200       952
    51.7400      1064
    51.7600      1060
    51.7800      1170
    51.8000      1230
    51.8200      1240
    51.8400      1310
    51.8600      1404
    51.8800      1410
    51.9000      1464
    51.9200      1472
    51.9400      1532
    51.9600      1596
    51.9800      1654
    52.0000      1730
    52.0200      1782
    52.0400      1844
    52.0600      1822
    52.0800      1880
    52.1000      1868
    52.1200      1728
    52.1400      1632
    52.1600      1664
    52.1800      1538
    52.2000      1558
    52.2200      1412
    52.2400      1352
    52.2600      1316
    52.2800      1176
    52.3000      1162
    52.3200      1080
    52.3400      1038
    52.3600      1076
    52.3800      1034
    52.4000      1066
    52.4200      1052
    52.4400      1090
    52.4600      1218
    52.4800      1234
    52.5000      1278
    52.5200      1282
    52.5400      1408
    52.5600      1432
    52.5800      1498
    52.6000      1476
    52.6200      1454
    52.6400      1494
    52.6600      1494
    52.6800      1504
    52.7000      1366
    52.7200      1404
    52.7400      1412
    52.7600      1326
    52.7800      1336
    52.8000      1228
    52.8200      1076
    52.8400      1058
    52.8600      1092
    52.8800       972
    52.9000      1016
    52.9200       974
    52.9400       892
    52.9600       926
    52.9800       910
    53.0000       842
    53.0200       942
    53.0400       890
    53.0600       930
    53.0800      1002
    53.1000      1034
    53.1200      1142
    53.1400      1216
    53.1600      1280
    53.1800      1350
    53.2000      1510
    53.2200      1612
    53.2400      1590
    53.2600      1592
    53.2800      1574
    53.3000      1576
    53.3200      1550
    53.3400      1476
    53.3600      1430
    53.3800      1436
    53.4000      1362
    53.4200      1198
    53.4400      1112
    53.4600      1084
    53.4800       966
    53.5000       888
    53.5200       796
    53.5400       802
    53.5600       730
    53.5800       732
    53.6000       624
    53.6200       588
    53.6400       636
    53.6600       648
    53.6800       578
    53.7000       552
    53.7200       522
    53.7400       552
    53.7600       576
    53.7800       548
    53.8000       586
    53.8200       506
    53.8400       576
    53.8600       520
    53.8800       530
    53.9000       536
    53.9200       504
    53.9400       498
    53.9600       472
    53.9800       510
    54.0000       506
    54.0200       554
    54.0400       512
    54.0600       516
    54.0800       444
    54.1000       530
    54.1200       506
    54.1400       490
    54.1600       464
    54.1800       530
    54.2000       506
    54.2200       602
    54.2400       544
    54.2600       576
    54.2800       598
    54.3000       576
    54.3200       612
    54.3400       670
    54.3600       682
    54.3800       672
    54.4000       668
    54.4200       708
    54.4400       718
    54.4600       724
    54.4800       766
    54.5000       852
    54.5200       778
    54.5400       914
    54.5600       952
    54.5800       916
    54.6000       930
    54.6200       936
    54.6400       950
    54.6600      1010
    54.6800      1024
    54.7000      1032
    54.7200      1006
    54.7400      1034
    54.7600      1022
    54.7800       982
    54.8000      1012
    54.8200       998
    54.8400       922
    54.8600       822
    54.8800       860
    54.9000       858
    54.9200       836
    54.9400       856
    54.9600       768
    54.9800       788
    55.0000       770
    55.0200       812
    55.0400       798
    55.0600       698
    55.0800       742
    55.1000       756
    55.1200       718
    55.1400       744
    55.1600       794
    55.1800       800
    55.2000       796
    55.2200       770
    55.2400       786
    55.2600       750
    55.2800       752
    55.3000       718
    55.3200       786
    55.3400       722
    55.3600       684
    55.3800       714
    55.4000       678
    55.4200       678
    55.4400       626
    55.4600       648
    55.4800       594
    55.5000       628
    55.5200       576
    55.5400       646
    55.5600       586
    55.5800       544
    55.6000       540
    55.6200       528
    55.6400       570
    55.6600       472
    55.6800       428
    55.7000       450
    55.7200       444
    55.7400       430
    55.7600       382
    55.7800       382
    55.8000       356
    55.8200       392
    55.8400       330
    55.8600       368
    55.8800       336
    55.9000       368
    55.9200       378
    55.9400       358
    55.9600       354
    55.9800       394
    56.0000       372
    56.0200       360
    56.0400       382
    56.0600       356
    56.0800       358
    56.1000       378
    56.1200       366
    56.1400       358
    56.1600       366
    56.1800       374
    56.2000       330
    56.2200       360
    56.2400       338
    56.2600       340
    56.2800       378
    56.3000       378
    56.3200       318
    56.3400       344
    56.3600       346
    56.3800       358
    56.4000       352
    56.4200       356
    56.4400       322
    56.4600       380
    56.4800       392
    56.5000       398
    56.5200       360
    56.5400       398
    56.5600       388
    56.5800       448
    56.6000       428
    56.6200       444
    56.6400       426
    56.6600       426
    56.6800       448
    56.7000       478
    56.7200       462
    56.7400       526
    56.7600       548
    56.7800       556
    56.8000       588
    56.8200       582
    56.8400       626
    56.8600       672
    56.8800       666
    56.9000       694
    56.9200       664
    56.9400       648
    56.9600       680
    56.9800       692
    57.0000       660
    57.0200       696
    57.0400       662
    57.0600       752
    57.0800       774
    57.1000       788
    57.1200       786
    57.1400       820
    57.1600       780
    57.1800       868
    57.2000       910
    57.2200      1014
    57.2400      1026
    57.2600      1128
    57.2800      1234
    57.3000      1366
    57.3200      1478
    57.3400      1458
    57.3600      1472
    57.3800      1572
    57.4000      1562
    57.4200      1480
    57.4400      1510
    57.4600      1368
    57.4800      1470
    57.5000      1476
    57.5200      1364
    57.5400      1416
    57.5600      1392
    57.5800      1362
    57.6000      1394
    57.6200      1390
    57.6400      1440
    57.6600      1444
    57.6800      1558
    57.7000      1558
    57.7200      1726
    57.7400      1560
    57.7600      1538
    57.7800      1528
    57.8000      1454
    57.8200      1410
    57.8400      1380
    57.8600      1318
    57.8800      1284
    57.9000      1240
    57.9200      1160
    57.9400      1128
    57.9600      1090
    57.9800      1054
    58.0000       970
    58.0200       926
    58.0400       844
    58.0600       882
    58.0800       858
    58.1000       862
    58.1200       788
    58.1400       846
    58.1600       854
    58.1800       888
    58.2000       888
    58.2200       922
    58.2400       946
    58.2600      1034
    58.2800      1100
    58.3000      1160
    58.3200      1150
    58.3400      1276
    58.3600      1312
    58.3800      1412
    58.4000      1512
    58.4200      1520
    58.4400      1678
    58.4600      1766
    58.4800      1964
    58.5000      2032
    58.5200      2028
    58.5400      2170
    58.5600      2292
    58.5800      2326
    58.6000      2582
    58.6200      2406
    58.6400      2720
    58.6600      2810
    58.6800      2800
    58.7000      2820
    58.7200      2838
    58.7400      2992
    58.7600      2988
    58.7800      2942
    58.8000      2808
    58.8200      2772
    58.8400      2686
    58.8600      2624
    58.8800      2502
    58.9000      2326
    58.9200      2098
    58.9400      2008
    58.9600      1868
    58.9800      1724
    59.0000      1638
    59.0200      1540
    59.0400      1396
    59.0600      1354
    59.0800      1290
    59.1000      1226
    59.1200      1160
    59.1400      1078
    59.1600      1108
    59.1800      1094
    59.2000      1042
    59.2200      1080
    59.2400      1106
    59.2600      1164
    59.2800      1144
    59.3000      1138
    59.3200      1284
    59.3400      1338
    59.3600      1420
    59.3800      1382
    59.4000      1494
    59.4200      1486
    59.4400      1428
    59.4600      1490
    59.4800      1442
    59.5000      1436
    59.5200      1466
    59.5400      1468
    59.5600      1346
    59.5800      1296
    59.6000      1252
    59.6200      1288
    59.6400      1200
    59.6600      1128
    59.6800      1086
    59.7000       962
    59.7200       964
    59.7400       958
    59.7600       810
    59.7800       846
    59.8000       822
    59.8200       828
    59.8400       730
    59.8600       772
    59.8800       792
    59.9000       744
    59.9200       672
    59.9400       700
    59.9600       656
    59.9800       672
    60.0000       694
    60.0200       596
    60.0400       588
    60.0600       634
    60.0800       568
    60.1000       566
    60.1200       554
    60.1400       590
    60.1600       562
    60.1800       498
    60.2000       500
    60.2200       472
    60.2400       532
    60.2600       458
    60.2800       474
    60.3000       444
    60.3200       460
    60.3400       488
    60.3600       454
    60.3800       462
    60.4000       432
    60.4200       454
    60.4400       428
    60.4600       424
    60.4800       422
    60.5000       432
    60.5200       446
    60.5400       426
    60.5600       464
    60.5800       422
    60.6000       400
    60.6200       414
    60.6400       396
    60.6600       428
    60.6800       392
    60.7000       430
    60.7200       450
    60.7400       380
    60.7600       404
    60.7800       460
    60.8000       442
    60.8200       452
    60.8400       446
    60.8600       468
    60.8800       448
    60.9000       480
    60.9200       520
    60.9400       488
    60.9600       536
    60.9800       554
    61.0000       550
    61.0200       568
    61.0400       570
    61.0600       614
    61.0800       610
    61.1000       644
    61.1200       598
    61.1400       698
    61.1600       634
    61.1800       668
    61.2000       700
    61.2200       690
    61.2400       688
    61.2600       694
    61.2800       678
    61.3000       700
    61.3200       750
    61.3400       724
    61.3600       750
    61.3800       770
    61.4000       784
    61.4200       826
    61.4400       868
    61.4600       918
    61.4800       964
    61.5000       908
    61.5200      1080
    61.5400      1080
    61.5600      1050
    61.5800      1122
    61.6000      1088
    61.6200      1176
    61.6400      1240
    61.6600      1276
    61.6800      1286
    61.7000      1312
    61.7200      1304
    61.7400      1244
    61.7600      1232
    61.7800      1184
    61.8000      1178
    61.8200      1146
    61.8400      1056
    61.8600      1066
    61.8800      1030
    61.9000       946
    61.9200       916
    61.9400       846
    61.9600       872
    61.9800       806
    62.0000       808
    62.0200       784
    62.0400       758
    62.0600       736
    62.0800       704
    62.1000       756
    62.1200       708
    62.1400       682
    62.1600       706
    62.1800       698
    62.2000       606
    62.2200       630
    62.2400       576
    62.2600       610
    62.2800       580
    62.3000       570
    62.3200       544
    62.3400       562
    62.3600       538
    62.3800       514
    62.4000       498
    62.4200       456
    62.4400       530
    62.4600       536
    62.4800       488
    62.5000       488
    62.5200       422
    62.5400       466
    62.5600       436
    62.5800       442
    62.6000       416
    62.6200       442
    62.6400       406
    62.6600       428
    62.6800       378
    62.7000       402
    62.7200       402
    62.7400       408
    62.7600       388
    62.7800       386
    62.8000       406
    62.8200       360
    62.8400       346
    62.8600       356
    62.8800       344
    62.9000       314
    62.9200       360
    62.9400       332
    62.9600       326
    62.9800       354
    63.0000       320
    63.0200       326
    63.0400       348
    63.0600       290
    63.0800       294
    63.1000       332
    63.1200       326
    63.1400       300
    63.1600       288
    63.1800       284
    63.2000       292
    63.2200       280
    63.2400       282
    63.2600       288
    63.2800       308
    63.3000       270
    63.3200       278
    63.3400       248
    63.3600       290
    63.3800       288
    63.4000       302
    63.4200       318
    63.4400       306
    63.4600       324
    63.4800       314
    63.5000       332
    63.5200       340
    63.5400       328
    63.5600       336
    63.5800       370
    63.6000       376
    63.6200       424
    63.6400       414
    63.6600       456
    63.6800       458
    63.7000       476
    63.7200       534
    63.7400       480
    63.7600       540
    63.7800       622
    63.8000       614
    63.8200       626
    63.8400       660
    63.8600       680
    63.8800       722
    63.9000       702
    63.9200       718
    63.9400       734
    63.9600       792
    63.9800       714
    64.0000       748
    64.0200       704
    64.0400       692
    64.0600       646
    64.0800       670
    64.1000       592
    64.1200       624
    64.1400       570
    64.1600       508
    64.1800       522
    64.2000       502
    64.2200       472
    64.2400       444
    64.2600       410
    64.2800       412
    64.3000       402
    64.3200       364
    64.3400       350
    64.3600       342
    64.3800       308
    64.4000       350
    64.4200       334
    64.4400       312
    64.4600       322
    64.4800       322
    64.5000       280
    64.5200       328
    64.5400       286
    64.5600       270
    64.5800       264
    64.6000       290
    64.6200       260
    64.6400       272
    64.6600       266
    64.6800       256
    64.7000       262
    64.7200       304
    64.7400       272
    64.7600       268
    64.7800       270
    64.8000       286
    64.8200       282
    64.8400       282
    64.8600       236
    64.8800       282
    64.9000       254
    64.9200       278
    64.9400       270
    64.9600       290
    64.9800       300
    65.0000       314
    65.0200       322
    65.0400       324
    65.0600       348
    65.0800       364
    65.1000       334
    65.1200       410
    65.1400       416
    65.1600       416
    65.1800       420
    65.2000       416
    65.2200       428
    65.2400       438
    65.2600       488
    65.2800       440
    65.3000       478
    65.3200       466
    65.3400       420
    65.3600       484
    65.3800       454
    65.4000       468
    65.4200       458
    65.4400       406
    65.4600       442
    65.4800       446
    65.5000       402
    65.5200       376
    65.5400       404
    65.5600       368
    65.5800       402
    65.6000       392
    65.6200       372
    65.6400       354
    65.6600       370
    65.6800       364
    65.7000       344
    65.7200       332
    65.7400       342
    65.7600       332
    65.7800       324
    65.8000       338
    65.8200       318
    65.8400       274
    65.8600       298
    65.8800       312
    65.9000       294
    65.9200       328
    65.9400       288
    65.9600       274
    65.9800       284
    66.0000       284
    66.0200       264
    66.0400       282
    66.0600       262
    66.0800       266
    66.1000       266
    66.1200       268
    66.1400       254
    66.1600       284
    66.1800       282
    66.2000       238
    66.2200       230
    66.2400       270
    66.2600       274
    66.2800       302
    66.3000       274
    66.3200       256
    66.3400       300
    66.3600       260
    66.3800       290
    66.4000       308
    66.4200       282
    66.4400       318
    66.4600       318
    66.4800       316
    66.5000       312
    66.5200       334
    66.5400       316
    66.5600       372
    66.5800       392
    66.6000       350
    66.6200       392
    66.6400       396
    66.6600       402
    66.6800       448
    66.7000       426
    66.7200       464
    66.7400       506
    66.7600       510
    66.7800       522
    66.8000       538
    66.8200       576
    66.8400       588
    66.8600       632
    66.8800       628
    66.9000       692
    66.9200       620
    66.9400       672
    66.9600       640
    66.9800       662
    67.0000       666
    67.0200       582
    67.0400       666
    67.0600       636
    67.0800       622
    67.1000       612
    67.1200       616
    67.1400       582
    67.1600       486
    67.1800       492
    67.2000       520
    67.2200       488
    67.2400       454
    67.2600       480
    67.2800       420
    67.3000       444
    67.3200       408
    67.3400       414
    67.3600       398
    67.3800       394
    67.4000       352
    67.4200       378
    67.4400       370
    67.4600       362
    67.4800       370
    67.5000       348
    67.5200       330
    67.5400       320
    67.5600       338
    67.5800       350
    67.6000       388
    67.6200       384
    67.6400       352
    67.6600       378
    67.6800       402
    67.7000       392
    67.7200       388
    67.7400       364
    67.7600       394
    67.7800       402
    67.8000       426
    67.8200       418
    67.8400       494
    67.8600       512
    67.8800       532
    67.9000       528
    67.9200       562
    67.9400       594
    67.9600       640
    67.9800       676
    68.0000       760
    68.0200       726
    68.0400       820
    68.0600       910
    68.0800       932
    68.1000      1016
    68.1200       942
    68.1400      1034
    68.1600      1002
    68.1800      1058
    68.2000      1098
    68.2200      1066
    68.2400       980
    68.2600      1112
    68.2800      1012
    68.3000      1022
    68.3200       962
    68.3400       918
    68.3600       878
    68.3800       858
    68.4000       796
    68.4200       752
    68.4400       778
    68.4600       694
    68.4800       670
    68.5000       628
    68.5200       630
    68.5400       632
    68.5600       560
    68.5800       564
    68.6000       524
    68.6200       514
    68.6400       530
    68.6600       498
    68.6800       444
    68.7000       484
    68.7200       398
    68.7400       456
    68.7600       450
    68.7800       406
    68.8000       446
    68.8200       396
    68.8400       392
    68.8600       360
    68.8800       374
    68.9000       396
    68.9200       364
    68.9400       352
    68.9600       416
    68.9800       370
    69.0000       404
    69.0200       386
    69.0400       372
    69.0600       394
    69.0800       360
    69.1000       406
    69.1200       410
    69.1400       362
    69.1600       424
    69.1800       424
    69.2000       442
    69.2200       470
    69.2400       502
    69.2600       476
    69.2800       520
    69.3000       504
    69.3200       518
    69.3400       596
    69.3600       566
    69.3800       578
    69.4000       548
    69.4200       572
    69.4400       566
    69.4600       554
    69.4800       542
    69.5000       514
    69.5200       544
    69.5400       528
    69.5600       470
    69.5800       508
    69.6000       526
    69.6200       456
    69.6400       498
    69.6600       458
    69.6800       440
    69.7000       396
    69.7200       440
    69.7400       428
    69.7600       426
    69.7800       382
    69.8000       364
    69.8200       380
    69.8400       386
    69.8600       368
    69.8800       400
    69.9000       410
    69.9200       374
    69.9400       376
    69.9600       396
    69.9800       344
    70.0000       404
    70.0200       404
    70.0400       356
    70.0600       368
    70.0800       360
    70.1000       346
    70.1200       378
    70.1400       312
    70.1600       378
    70.1800       326
    70.2000       338
    70.2200       318
    70.2400       338
    70.2600       316
    70.2800       312
    70.3000       320
    70.3200       302
    70.3400       276
    70.3600       302
    70.3800       312
    70.4000       278
    70.4200       304
    70.4400       282
    70.4600       290
    70.4800       282
    70.5000       278
    70.5200       282
    70.5400       264
    70.5600       336
    70.5800       318
    70.6000       282
    70.6200       274
    70.6400       268
    70.6600       282
    70.6800       260
    70.7000       292
    70.7200       276
    70.7400       246
    70.7600       294
    70.7800       264
    70.8000       248
    70.8200       224
    70.8400       292
    70.8600       272
    70.8800       254
    70.9000       266
    70.9200       254
    70.9400       246
    70.9600       270
    70.9800       246
    71.0000       240
    71.0200       262
    71.0400       274
    71.0600       264
    71.0800       250
    71.1000       286
    71.1200       292
    71.1400       284
    71.1600       292
    71.1800       332
    71.2000       318
    71.2200       332
    71.2400       344
    71.2600       332
    71.2800       342
    71.3000       358
    71.3200       406
    71.3400       444
    71.3600       468
    71.3800       484
    71.4000       488
    71.4200       518
    71.4400       516
    71.4600       522
    71.4800       604
    71.5000       564
    71.5200       560
    71.5400       574
    71.5600       562
    71.5800       596
    71.6000       588
    71.6200       596
    71.6400       590
    71.6600       572
    71.6800       596
    71.7000       620
    71.7200       564
    71.7400       574
    71.7600       538
    71.7800       544
    71.8000       546
    71.8200       546
    71.8400       490
    71.8600       492
    71.8800       474
    71.9000       494
    71.9200       500
    71.9400       488
    71.9600       476
    71.9800       456
    72.0000       474
    72.0200       418
    72.0400       446
    72.0600       460
    72.0800       454
    72.1000       468
    72.1200       476
    72.1400       440
    72.1600       496
    72.1800       466
    72.2000       478
    72.2200       494
    72.2400       500
    72.2600       496
    72.2800       522
    72.3000       464
    72.3200       510
    72.3400       512
    72.3600       500
    72.3800       482
    72.4000       526
    72.4200       502
    72.4400       512
    72.4600       518
    72.4800       538
    72.5000       530
    72.5200       558
    72.5400       552
    72.5600       500
    72.5800       526
    72.6000       542
    72.6200       552
    72.6400       534
    72.6600       582
    72.6800       574
    72.7000       530
    72.7200       552
    72.7400       506
    72.7600       514
    72.7800       508
    72.8000       574
    72.8200       480
    72.8400       558
    72.8600       506
    72.8800       478
    72.9000       452
    72.9200       492
    72.9400       484
    72.9600       486
    72.9800       436
    73.0000       458
    73.0200       408
    73.0400       394
    73.0600       450
    73.0800       436
    73.1000       410
    73.1200       374
    73.1400       386
    73.1600       360
    73.1800       332
    73.2000       370
    73.2200       318
    73.2400       370
    73.2600       308
    73.2800       314
    73.3000       322
    73.3200       326
    73.3400       290
    73.3600       308
    73.3800       304
    73.4000       326
    73.4200       306
    73.4400       304
    73.4600       274
    73.4800       284
    73.5000       268
    73.5200       252
    73.5400       296
    73.5600       288
    73.5800       220
    73.6000       226
    73.6200       276
    73.6400       290
    73.6600       224
    73.6800       264
    73.7000       274
    73.7200       256
    73.7400       238
    73.7600       290
    73.7800       236
    73.8000       276
    73.8200       258
    73.8400       276
    73.8600       260
    73.8800       282
    73.9000       304
    73.9200       262
    73.9400       292
    73.9600       272
    73.9800       322
    74.0000       260
    74.0200       276
    74.0400       298
    74.0600       264
    74.0800       298
    74.1000       310
    74.1200       310
    74.1400       270
    74.1600       278
    74.1800       290
    74.2000       284
    74.2200       278
    74.2400       312
    74.2600       290
    74.2800       270
    74.3000       272
    74.3200       276
    74.3400       292
    74.3600       256
    74.3800       268
    74.4000       254
    74.4200       272
    74.4400       244
    74.4600       240
    74.4800       258
    74.5000       214
    74.5200       268
    74.5400       240
    74.5600       246
    74.5800       208
    74.6000       206
    74.6200       206
    74.6400       236
    74.6600       222
    74.6800       208
    74.7000       194
    74.7200       206
    74.7400       212
    74.7600       220
    74.7800       198
    74.8000       216
    74.8200       234
    74.8400       208
    74.8600       214
    74.8800       176
    74.9000       218
    74.9200       232
    74.9400       218
    74.9600       204
    74.9800       218
    75.0000       210
    75.0200       198
    75.0400       224
    75.0600       240
    75.0800       224
    75.1000       208
    75.1200       202
    75.1400       220
    75.1600       244
    75.1800       236
    75.2000       228
    75.2200       204
    75.2400       218
    75.2600       210
    75.2800       244
    75.3000       218
    75.3200       236
    75.3400       236
    75.3600       218
    75.3800       224
    75.4000       250
    75.4200       214
    75.4400       248
    75.4600       256
    75.4800       270
    75.5000       254
    75.5200       266
    75.5400       238
    75.5600       268
    75.5800       276
    75.6000       276
    75.6200       246
    75.6400       280
    75.6600       264
    75.6800       242
    75.7000       236
    75.7200       244
    75.7400       280
    75.7600       254
    75.7800       262
    75.8000       260
    75.8200       254
    75.8400       248
    75.8600       256
    75.8800       260
    75.9000       276
    75.9200       242
    75.9400       256
    75.9600       252
    75.9800       264
    76.0000       284
    76.0200       316
    76.0400       280
    76.0600       272
    76.0800       278
    76.1000       278
    76.1200       282
    76.1400       294
    76.1600       294
    76.1800       298
    76.2000       266
    76.2200       280
    76.2400       318
    76.2600       316
    76.2800       338
    76.3000       314
    76.3200       334
    76.3400       374
    76.3600       310
    76.3800       348
    76.4000       334
    76.4200       338
    76.4400       346
    76.4600       326
    76.4800       382
    76.5000       348
    76.5200       356
    76.5400       372
    76.5600       390
    76.5800       374
    76.6000       376
    76.6200       390
    76.6400       442
    76.6600       418
    76.6800       434
    76.7000       410
    76.7200       428
    76.7400       432
    76.7600       400
    76.7800       434
    76.8000       404
    76.8200       444
    76.8400       396
    76.8600       408
    76.8800       402
    76.9000       390
    76.9200       394
    76.9400       436
    76.9600       428
    76.9800       402
    77.0000       374
    77.0200       378
    77.0400       374
    77.0600       372
    77.0800       396
    77.1000       376
    77.1200       354
    77.1400       388
    77.1600       394
    77.1800       366
    77.2000       412
    77.2200       370
    77.2400       396
    77.2600       440
    77.2800       412
    77.3000       452
    77.3200       440
    77.3400       470
    77.3600       478
    77.3800       504
    77.4000       494
    77.4200       540
    77.4400       562
    77.4600       598
    77.4800       628
    77.5000       630
    77.5200       630
    77.5400       658
    77.5600       750
    77.5800       740
    77.6000       750
    77.6200       754
    77.6400       790
    77.6600       786
    77.6800       784
    77.7000       778
    77.7200       748
    77.7400       740
    77.7600       696
    77.7800       698
    77.8000       696
    77.8200       726
    77.8400       666
    77.8600       674
    77.8800       636
    77.9000       622
    77.9200       610
    77.9400       568
    77.9600       502
    77.9800       534
    78.0000       486
    78.0200       492
    78.0400       468
    78.0600       444
    78.0800       438
    78.1000       436
    78.1200       444
    78.1400       388
    78.1600       446
    78.1800       436
    78.2000       402
    78.2200       390
    78.2400       392
    78.2600       394
    78.2800       394
    78.3000       392
    78.3200       364
    78.3400       356
    78.3600       382
    78.3800       354
    78.4000       368
    78.4200       376
    78.4400       408
    78.4600       372
    78.4800       406
    78.5000       418
    78.5200       430
    78.5400       402
    78.5600       440
    78.5800       396
    78.6000       438
    78.6200       460
    78.6400       432
    78.6600       436
    78.6800       426
    78.7000       442
    78.7200       466
    78.7400       394
    78.7600       428
    78.7800       436
    78.8000       408
    78.8200       420
    78.8400       430
    78.8600       378
    78.8800       396
    78.9000       382
    78.9200       336
    78.9400       334
    78.9600       344
    78.9800       354
    79.0000       370
    79.0200       342
    79.0400       324
    79.0600       334
    79.0800       306
    79.1000       314
    79.1200       298
    79.1400       294
    79.1600       284
    79.1800       296
    79.2000       268
    79.2200       288
    79.2400       282
    79.2600       264
    79.2800       286
    79.3000       276
    79.3200       256
    79.3400       262
    79.3600       276
    79.3800       280
    79.4000       266
    79.4200       278
    79.4400       286
    79.4600       268
    79.4800       262
    79.5000       256
    79.5200       276
    79.5400       284
    79.5600       280
    79.5800       322
    79.6000       310
    79.6200       272
    79.6400       270
    79.6600       306
    79.6800       300
    79.7000       300
    79.7200       288
    79.7400       262
    79.7600       272
    79.7800       302
    79.8000       264
    79.8200       260
    79.8400       278
    79.8600       272
    79.8800       248
    79.9000       296
    79.9200       274
    79.9400       272
    79.9600       262
    79.9800       252
    80.0000       246
    80.0200       286
    80.0400       258
    80.0600       268
    80.0800       264
    80.1000       250
    80.1200       240
    80.1400       276
    80.1600       232
    80.1800       282
    80.2000       258
    80.2200       262
    80.2400       288
    80.2600       250
    80.2800       254
    80.3000       262
    80.3200       264
    80.3400       280
    80.3600       274
    80.3800       248
    80.4000       278
    80.4200       270
    80.4400       268
    80.4600       284
    80.4800       232
    80.5000       288
    80.5200       260
    80.5400       222
    80.5600       228
    80.5800       268
    80.6000       270
    80.6200       272
    80.6400       264
    80.6600       272
    80.6800       242
    80.7000       206
    80.7200       252
    80.7400       236
    80.7600       224
    80.7800       264
    80.8000       232
    80.8200       250
    80.8400       246
    80.8600       244
    80.8800       214
    80.9000       206
    80.9200       240
    80.9400       230
    80.9600       236
    80.9800       206
    81.0000       268
    81.0200       236
    81.0400       246
    81.0600       220
    81.0800       224
    81.1000       226
    81.1200       238
    81.1400       280
    81.1600       240
    81.1800       254
    81.2000       240
    81.2200       236
    81.2400       272
    81.2600       268
    81.2800       250
    81.3000       250
    81.3200       284
    81.3400       276
    81.3600       254
    81.3800       274
    81.4000       284
    81.4200       280
    81.4400       296
    81.4600       262
    81.4800       292
    81.5000       274
    81.5200       270
    81.5400       278
    81.5600       278
    81.5800       310
    81.6000       302
    81.6200       248
    81.6400       284
    81.6600       284
    81.6800       266
    81.7000       280
    81.7200       266
    81.7400       290
    81.7600       282
    81.7800       308
    81.8000       278
    81.8200       288
    81.8400       288
    81.8600       310
    81.8800       302
    81.9000       304
    81.9200       328
    81.9400       322
    81.9600       270
    81.9800       306
    82.0000       314
    82.0200       296
    82.0400       324
    82.0600       354
    82.0800       320
    82.1000       336
    82.1200       320
    82.1400       362
    82.1600       364
    82.1800       350
    82.2000       358
    82.2200       358
    82.2400       374
    82.2600       400
    82.2800       374
    82.3000       382
    82.3200       428
    82.3400       418
    82.3600       396
    82.3800       436
    82.4000       392
    82.4200       458
    82.4400       434
    82.4600       430
    82.4800       460
    82.5000       446
    82.5200       468
    82.5400       428
    82.5600       452
    82.5800       440
    82.6000       510
    82.6200       494
    82.6400       524
    82.6600       532
    82.6800       520
    82.7000       596
    82.7200       548
    82.7400       588
    82.7600       606
    82.7800       608
    82.8000       604
    82.8200       636
    82.8400       636
    82.8600       614
    82.8800       694
    82.9000       644
    82.9200       690
    82.9400       702
    82.9600       708
    82.9800       686
    83.0000       692
    83.0200       656
    83.0400       682
    83.0600       704
    83.0800       652
    83.1000       702
    83.1200       656
    83.1400       568
    83.1600       612
    83.1800       630
    83.2000       600
    83.2200       618
    83.2400       600
    83.2600       634
    83.2800       574
    83.3000       530
    83.3200       526
    83.3400       528
    83.3600       494
    83.3800       520
    83.4000       538
    83.4200       480
    83.4400       476
    83.4600       446
    83.4800       438
    83.5000       466
    83.5200       430
    83.5400       402
    83.5600       406
    83.5800       410
    83.6000       412
    83.6200       354
    83.6400       396
    83.6600       314
    83.6800       374
    83.7000       338
    83.7200       352
    83.7400       372
    83.7600       348
    83.7800       372
    83.8000       328
    83.8200       352
    83.8400       338
    83.8600       306
    83.8800       298
    83.9000       340
    83.9200       308
    83.9400       344
    83.9600       320
    83.9800       358
    84.0000       316
    84.0200       340
    84.0400       314
    84.0600       320
    84.0800       304
    84.1000       326
    84.1200       352
    84.1400       338
    84.1600       346
    84.1800       328
    84.2000       302
    84.2200       298
    84.2400       314
    84.2600       262
    84.2800       320
    84.3000       296
    84.3200       290
    84.3400       310
    84.3600       308
    84.3800       274
    84.4000       346
    84.4200       288
    84.4400       310
    84.4600       272
    84.4800       260
    84.5000       288
    84.5200       278
    84.5400       262
    84.5600       270
    84.5800       278
    84.6000       254
    84.6200       278
    84.6400       272
    84.6600       256
    84.6800       276
    84.7000       294
    84.7200       308
    84.7400       304
    84.7600       288
    84.7800       298
    84.8000       274
    84.8200       262
    84.8400       300
    84.8600       274
    84.8800       270
    84.9000       304
    84.9200       274
    84.9400       306
    84.9600       274
    84.9800       290
    85.0000       278
    85.0200       278
    85.0400       240
    85.0600       274
    85.0800       280
    85.1000       254
    85.1200       270
    85.1400       254
    85.1600       238
    85.1800       292
    85.2000       284
    85.2200       254
    85.2400       264
    85.2600       256
    85.2800       280
    85.3000       278
    85.3200       310
    85.3400       260
    85.3600       254
    85.3800       274
    85.4000       288
    85.4200       298
    85.4400       306
    85.4600       280
    85.4800       282
    85.5000       290
    85.5200       332
    85.5400       320
    85.5600       296
    85.5800       280
    85.6000       282
    85.6200       286
    85.6400       288
    85.6600       280
    85.6800       272
    85.7000       268
    85.7200       260
    85.7400       270
    85.7600       266
    85.7800       268
    85.8000       262
    85.8200       304
    85.8400       274
    85.8600       266
    85.8800       254
    85.9000       250
    85.9200       260
    85.9400       238
    85.9600       248
    85.9800       246
    86.0000       254
    86.0200       242
    86.0400       260
    86.0600       236
    86.0800       230
    86.1000       232
    86.1200       262
    86.1400       254
    86.1600       228
    86.1800       236
    86.2000       224
    86.2200       242
    86.2400       228
    86.2600       224
    86.2800       288
    86.3000       234
    86.3200       220
    86.3400       270
    86.3600       240
    86.3800       256
    86.4000       240
    86.4200       242
    86.4400       268
    86.4600       250
    86.4800       278
    86.5000       274
    86.5200       248
    86.5400       278
    86.5600       288
    86.5800       244
    86.6000       306
    86.6200       264
    86.6400       300
    86.6600       292
    86.6800       316
    86.7000       302
    86.7200       306
    86.7400       292
    86.7600       312
    86.7800       334
    86.8000       310
    86.8200       360
    86.8400       328
    86.8600       354
    86.8800       374
    86.9000       394
    86.9200       402
    86.9400       394
    86.9600       358
    86.9800       386
    87.0000       390
    87.0200       400
    87.0400       420
    87.0600       380
    87.0800       380
    87.1000       362
    87.1200       386
    87.1400       406
    87.1600       336
    87.1800       318
    87.2000       356
    87.2200       348
    87.2400       326
    87.2600       358
    87.2800       322
    87.3000       328
    87.3200       322
    87.3400       350
    87.3600       280
    87.3800       336
    87.4000       310
    87.4200       312
    87.4400       312
    87.4600       328
    87.4800       336
    87.5000       286
    87.5200       286
    87.5400       310
    87.5600       332
    87.5800       316
    87.6000       336
    87.6200       348
    87.6400       338
    87.6600       354
    87.6800       336
    87.7000       342
    87.7200       386
    87.7400       392
    87.7600       388
    87.7800       364
    87.8000       392
    87.8200       386
    87.8400       410
    87.8600       432
    87.8800       436
    87.9000       436
    87.9200       422
    87.9400       428
    87.9600       414
    87.9800       452
    88.0000       448
    88.0200       390
    88.0400       418
    88.0600       420
    88.0800       410
    88.1000       416
    88.1200       454
    88.1400       432
    88.1600       422
    88.1800       422
    88.2000       388
    88.2200       404
    88.2400       392
    88.2600       364
    88.2800       392
    88.3000       402
    88.3200       380
    88.3400       382
    88.3600       364
    88.3800       392
    88.4000       354
    88.4200       354
    88.4400       362
    88.4600       386
    88.4800       342
    88.5000       324
    88.5200       356
    88.5400       300
    88.5600       328
    88.5800       350
    88.6000       332
    88.6200       356
    88.6400       330
    88.6600       310
    88.6800       312
    88.7000       352
    88.7200       334
    88.7400       292
    88.7600       312
    88.7800       312
    88.8000       314
    88.8200       262
    88.8400       306
    88.8600       286
    88.8800       290
    88.9000       316
    88.9200       304
    88.9400       286
    88.9600       284
    88.9800       278
    89.0000       302
    89.0200       280
    89.0400       258
    89.0600       272
    89.0800       272
    89.1000       292
    89.1200       262
    89.1400       276
    89.1600       264
    89.1800       276
    89.2000       256
    89.2200       280
    89.2400       290
    89.2600       264
    89.2800       278
    89.3000       296
    89.3200       280
    89.3400       266
    89.3600       292
    89.3800       284
    89.4000       264
    89.4200       278
    89.4400       282
    89.4600       288
    89.4800       240
    89.5000       294
    89.5200       268
    89.5400       242
    89.5600       296
    89.5800       314
    89.6000       246
    89.6200       308
    89.6400       292
    89.6600       288
    89.6800       294
    89.7000       310
    89.7200       288
    89.7400       324
    89.7600       298
    89.7800       286
    89.8000       300
    89.8200       282
    89.8400       304
    89.8600       314
    89.8800       320
    89.9000       310
    89.9200       344
    89.9400       332
    89.9600       280
    89.9800       320
    90.0000       312
