    10.0000       350
    10.0200       372
    10.0400       364
    10.0600       386
    10.0800       356
    10.1000       412
    10.1200       352
    10.1400       392
    10.1600       352
    10.1800       398
    10.2000       350
    10.2200       356
    10.2400       362
    10.2600       356
    10.2800       356
    10.3000       360
    10.3200       336
    10.3400       380
    10.3600       368
    10.3800       320
    10.4000       352
    10.4200       350
    10.4400       350
    10.4600       312
    10.4800       324
    10.5000       366
    10.5200       356
    10.5400       328
    10.5600       330
    10.5800       328
    10.6000       320
    10.6200       314
    10.6400       322
    10.6600       326
    10.6800       328
    10.7000       350
    10.7200       334
    10.7400       354
    10.7600       330
    10.7800       338
    10.8000       300
    10.8200       344
    10.8400       372
    10.8600       330
    10.8800       342
    10.9000       322
    10.9200       318
    10.9400       318
    10.9600       340
    10.9800       342
    11.0000       314
    11.0200       346
    11.0400       360
    11.0600       326
    11.0800       354
    11.1000       306
    11.1200       344
    11.1400       314
    11.1600       328
    11.1800       324
    11.2000       324
    11.2200       326
    11.2400       316
    11.2600       302
    11.2800       352
    11.3000       326
    11.3200       318
    11.3400       334
    11.3600       334
    11.3800       360
    11.4000       352
    11.4200       330
    11.4400       350
    11.4600       300
    11.4800       370
    11.5000       320
    11.5200       318
    11.5400       306
    11.5600       326
    11.5800       290
    11.6000       334
    11.6200       340
    11.6400       330
    11.6600       346
    11.6800       328
    11.7000       322
    11.7200       350
    11.7400       344
    11.7600       368
    11.7800       392
    11.8000       344
    11.8200       348
    11.8400       358
    11.8600       340
    11.8800       376
    11.9000       380
    11.9200       348
    11.9400       396
    11.9600       376
    11.9800       398
    12.0000       402
    12.0200       414
    12.0400       426
    12.0600       432
    12.0800       446
    12.1000       454
    12.1200       480
    12.1400       504
    12.1600       558
    12.1800       532
    12.2000       534
    12.2200       536
    12.2400       506
    12.2600       476
    12.2800       468
    12.3000       386
    12.3200       432
    12.3400       400
    12.3600       374
    12.3800       322
    12.4000       340
    12.4200       344
    12.4400       314
    12.4600       312
    12.4800       316
    12.5000       344
    12.5200       308
    12.5400       306
    12.5600       312
    12.5800       318
    12.6000       282
    12.6200       298
    12.6400       288
    12.6600       300
    12.6800       290
    12.7000       332
    12.7200       302
    12.7400       256
    12.7600       288
    12.7800       288
    12.8000       266
    12.8200       294
    12.8400       298
    12.8600       284
    12.8800       278
    12.9000       252
    12.9200       294
    12.9400       292
    12.9600       286
    12.9800       316
    13.0000       280
    13.0200       298
    13.0400       302
    13.0600       296
    13.0800       308
    13.1000       314
    13.1200       272
    13.1400       286
    13.1600       332
    13.1800       268
    13.2000       272
    13.2200       270
    13.2400       284
    13.2600       284
    13.2800       276
    13.3000       292
    13.3200       284
    13.3400       278
    13.3600       278
    13.3800       282
    13.4000       254
    13.4200       236
    13.4400       270
    13.4600       278
    13.4800       286
    13.5000       278
    13.5200       278
    13.5400       292
    13.5600       264
    13.5800       256
    13.6000       254
    13.6200       258
    13.6400       256
    13.6600       278
    13.6800       264
    13.7000       282
    13.7200       260
    13.7400       258
    13.7600       252
    13.7800       284
    13.8000       266
    13.8200       256
    13.8400       292
    13.8600       290
    13.8800       280
    13.9000       260
    13.9200       254
    13.9400       256
    13.9600       290
    13.9800       268
    14.0000       258
    14.0200       264
    14.0400       268
    14.0600       256
    14.0800       268
    14.1000       292
    14.1200       248
    14.1400       270
    14.1600       260
    14.1800       268
    14.2000       254
    14.2200       260
    14.2400       284
    14.2600       258
    14.2800       262
    14.3000       302
    14.3200       268
    14.3400       284
    14.3600       296
    14.3800       268
    14.4000       264
    14.4200       274
    14.4400       276
    14.4600       290
    14.4800       270
    14.5000       272
    14.5200       246
    14.5400       270
    14.5600       262
    14.5800       286
    14.6000       306
    14.6200       306
    14.6400       326
    14.6600       326
    14.6800       314
    14.7000       326
    14.7200       306
    14.7400       338
    14.7600       322
    14.7800       356
    14.8000       384
    14.8200       388
    14.8400       406
    14.8600       456
    14.8800       450
    14.9000       504
    14.9200       472
    14.9400       552
    14.9600       552
    14.9800       650
    15.0000       708
    15.0200       756
    15.0400       762
    15.0600       894
    15.0800       916
    15.1000      1006
    15.1200      1092
    15.1400      1158
    15.1600      1300
    15.1800      1456
    15.2000      1494
    15.2200      1426
    15.2400      1336
    15.2600      1208
    15.2800      1028
    15.3000       834
    15.3200       688
    15.3400       592
    15.3600       518
    15.3800       478
    15.4000       432
    15.4200       424
    15.4400       356
    15.4600       336
    15.4800       360
    15.5000       328
    15.5200       308
    15.5400       322
    15.5600       278
    15.5800       290
    15.6000       296
    15.6200       294
    15.6400       258
    15.6600       294
    15.6800       274
    15.7000       296
    15.7200       250
    15.7400       324
    15.7600       288
    15.7800       284
    15.8000       282
    15.8200       286
    15.8400       278
    15.8600       282
    15.8800       248
    15.9000       290
    15.9200       254
    15.9400       276
    15.9600       270
    15.9800       298
    16.0000       292
    16.0200       322
    16.0400       286
    16.0600       300
    16.0800       292
    16.1000       262
    16.1200       346
    16.1400       324
    16.1600       342
    16.1800       322
    16.2000       368
    16.2200       338
    16.2400       354
    16.2600       384
    16.2800       382
    16.3000       382
    16.3200       388
    16.3400       358
    16.3600       394
    16.3800       338
    16.4000       342
    16.4200       334
    16.4400       346
    16.4600       308
    16.4800       342
    16.5000       354
    16.5200       362
    16.5400       338
    16.5600       398
    16.5800       392
    16.6000       420
    16.6200       406
    16.6400       394
    16.6600       448
    16.6800       460
    16.7000       460
    16.7200       502
    16.7400       530
    16.7600       614
    16.7800       606
    16.8000       692
    16.8200       764
    16.8400       886
    16.8600       936
    16.8800      1012
    16.9000      1160
    16.9200      1350
    16.9400      1516
    16.9600      1684
    16.9800      1922
    17.0000      2084
    17.0200      2202
    17.0400      2230
    17.0600      2170
    17.0800      2000
    17.1000      1646
    17.1200      1356
    17.1400      1114
    17.1600      1020
    17.1800       914
    17.2000       872
    17.2200       838
    17.2400       798
    17.2600       704
    17.2800       644
    17.3000       686
    17.3200       648
    17.3400       616
    17.3600       610
    17.3800       534
    17.4000       448
    17.4200       468
    17.4400       478
    17.4600       426
    17.4800       432
    17.5000       390
    17.5200       414
    17.5400       456
    17.5600       452
    17.5800       418
    17.6000       424
    17.6200       424
    17.6400       482
    17.6600       462
    17.6800       452
    17.7000       546
    17.7200       568
    17.7400       602
    17.7600       604
    17.7800       696
    17.8000       744
    17.8200       784
    17.8400       794
    17.8600       760
    17.8800       702
    17.9000       640
    17.9200       572
    17.9400       504
    17.9600       438
    17.9800       398
    18.0000       376
    18.0200       328
    18.0400       296
    18.0600       300
    18.0800       300
    18.1000       290
    18.1200       296
    18.1400       270
    18.1600       294
    18.1800       268
    18.2000       224
    18.2200       244
    18.2400       260
    18.2600       238
    18.2800       238
    18.3000       244
    18.3200       248
    18.3400       218
    18.3600       212
    18.3800       254
    18.4000       248
    18.4200       226
    18.4400       250
    18.4600       234
    18.4800       246
    18.5000       200
    18.5200       228
    18.5400       228
    18.5600       212
    18.5800       230
    18.6000       244
    18.6200       222
    18.6400       246
    18.6600       244
    18.6800       214
    18.7000       258
    18.7200       234
    18.7400       232
    18.7600       258
    18.7800       242
    18.8000       244
    18.8200       236
    18.8400       260
    18.8600       228
    18.8800       210
    18.9000       266
    18.9200       222
    18.9400       254
    18.9600       252
    18.9800       282
    19.0000       264
    19.0200       298
    19.0400       312
    19.0600       338
    19.0800       352
    19.1000       340
    19.1200       374
    19.1400       410
    19.1600       452
    19.1800       432
    19.2000       472
    19.2200       526
    19.2400       558
    19.2600       568
    19.2800       712
    19.3000       760
    19.3200       852
    19.3400       908
    19.3600      1070
    19.3800      1252
    19.4000      1424
    19.4200      1562
    19.4400      1836
    19.4600      2098
    19.4800      2300
    19.5000      2680
    19.5200      2850
    19.5400      2806
    19.5600      2816
    19.5800      2674
    19.6000      2196
    19.6200      1934
    19.6400      1542
    19.6600      1316
    19.6800      1092
    19.7000      1028
    19.7200       948
    19.7400       952
    19.7600      1018
    19.7800      1018
    19.8000      1072
    19.8200      1196
    19.8400      1328
    19.8600      1402
    19.8800      1614
    19.9000      1718
    19.9200      1862
    19.9400      2036
    19.9600      2124
    19.9800      2214
    20.0000      2080
    20.0200      1950
    20.0400      1688
    20.0600      1426
    20.0800      1248
    20.1000       970
    20.1200       844
    20.1400       670
    20.1600       614
    20.1800       496
    20.2000       458
    20.2200       518
    20.2400       428
    20.2600       436
    20.2800       414
    20.3000       382
    20.3200       390
    20.3400       338
    20.3600       360
    20.3800       330
    20.4000       366
    20.4200       302
    20.4400       316
    20.4600       284
    20.4800       270
    20.5000       302
    20.5200       272
    20.5400       280
    20.5600       252
    20.5800       258
    20.6000       268
    20.6200       256
    20.6400       266
    20.6600       262
    20.6800       266
    20.7000       258
    20.7200       294
    20.7400       282
    20.7600       286
    20.7800       274
    20.8000       310
    20.8200       328
    20.8400       314
    20.8600       332
    20.8800       366
    20.9000       404
    20.9200       394
    20.9400       402
    20.9600       496
    20.9800       506
    21.0000       560
    21.0200       590
    21.0400       684
    21.0600       786
    21.0800       802
    21.1000       936
    21.1200       992
    21.1400      1044
    21.1600      1214
    21.1800      1216
    21.2000      1236
    21.2200      1326
    21.2400      1256
    21.2600      1212
    21.2800      1070
    21.3000      1018
    21.3200       916
    21.3400       806
    21.3600       676
    21.3800       616
    21.4000       496
    21.4200       480
    21.4400       442
    21.4600       362
    21.4800       332
    21.5000       338
    21.5200       318
    21.5400       316
    21.5600       304
    21.5800       242
    21.6000       274
    21.6200       242
    21.6400       280
    21.6600       252
    21.6800       262
    21.7000       230
    21.7200       236
    21.7400       222
    21.7600       224
    21.7800       208
    21.8000       240
    21.8200       220
    21.8400       232
    21.8600       246
    21.8800       222
    21.9000       248
    21.9200       210
    21.9400       254
    21.9600       228
    21.9800       218
    22.0000       240
    22.0200       256
    22.0400       244
    22.0600       224
    22.0800       254
    22.1000       236
    22.1200       252
    22.1400       206
    22.1600       230
    22.1800       252
    22.2000       242
    22.2200       262
    22.2400       270
    22.2600       290
    22.2800       242
    22.3000       254
    22.3200       294
    22.3400       312
    22.3600       312
    22.3800       354
    22.4000       360
    22.4200       364
    22.4400       376
    22.4600       382
    22.4800       428
    22.5000       522
    22.5200       554
    22.5400       616
    22.5600       646
    22.5800       732
    22.6000       818
    22.6200       944
    22.6400      1082
    22.6600      1312
    22.6800      1368
    22.7000      1650
    22.7200      1876
    22.7400      2164
    22.7600      2586
    22.7800      2850
    22.8000      3228
    22.8200      3606
    22.8400      4060
    22.8600      3988
    22.8800      3936
    22.9000      3510
    22.9200      3162
    22.9400      2618
    22.9600      2096
    22.9800      1742
    23.0000      1358
    23.0200      1072
    23.0400       924
    23.0600       804
    23.0800       718
    23.1000       684
    23.1200       610
    23.1400       560
    23.1600       544
    23.1800       466
    23.2000       424
    23.2200       456
    23.2400       386
    23.2600       370
    23.2800       356
    23.3000       302
    23.3200       324
    23.3400       318
    23.3600       312
    23.3800       314
    23.4000       292
    23.4200       290
    23.4400       278
    23.4600       248
    23.4800       272
    23.5000       254
    23.5200       276
    23.5400       254
    23.5600       266
    23.5800       256
    23.6000       250
    23.6200       260
    23.6400       242
    23.6600       250
    23.6800       266
    23.7000       242
    23.7200       246
    23.7400       280
    23.7600       242
    23.7800       262
    23.8000       258
    23.8200       252
    23.8400       232
    23.8600       256
    23.8800       230
    23.9000       246
    23.9200       284
    23.9400       284
    23.9600       262
    23.9800       256
    24.0000       256
    24.0200       286
    24.0400       276
    24.0600       238
    24.0800       260
    24.1000       312
    24.1200       314
    24.1400       278
    24.1600       300
    24.1800       294
    24.2000       322
    24.2200       342
    24.2400       398
    24.2600       404
    24.2800       420
    24.3000       458
    24.3200       516
    24.3400       518
    24.3600       576
    24.3800       622
    24.4000       722
    24.4200       766
    24.4400       846
    24.4600       942
    24.4800       954
    24.5000       908
    24.5200       982
    24.5400       994
    24.5600      1028
    24.5800       996
    24.6000       974
    24.6200       894
    24.6400       908
    24.6600       848
    24.6800       818
    24.7000       766
    24.7200       736
    24.7400       692
    24.7600       676
    24.7800       700
    24.8000       612
    24.8200       642
    24.8400       548
    24.8600       548
    24.8800       528
    24.9000       526
    24.9200       452
    24.9400       454
    24.9600       414
    24.9800       454
    25.0000       436
    25.0200       428
    25.0400       450
    25.0600       452
    25.0800       486
    25.1000       476
    25.1200       552
    25.1400       572
    25.1600       616
    25.1800       654
    25.2000       680
    25.2200       754
    25.2400       862
    25.2600       952
    25.2800       984
    25.3000      1082
    25.3200      1144
    25.3400      1202
    25.3600      1276
    25.3800      1210
    25.4000      1194
    25.4200      1134
    25.4400      1010
    25.4600      1022
    25.4800       946
    25.5000       924
    25.5200      1046
    25.5400      1018
    25.5600       980
    25.5800      1058
    25.6000      1104
    25.6200      1030
    25.6400       982
    25.6600       850
    25.6800       772
    25.7000       740
    25.7200       626
    25.7400       562
    25.7600       540
    25.7800       448
    25.8000       442
    25.8200       394
    25.8400       456
    25.8600       406
    25.8800       394
    25.9000       402
    25.9200       362
    25.9400       330
    25.9600       324
    25.9800       298
    26.0000       314
    26.0200       346
    26.0400       312
    26.0600       286
    26.0800       288
    26.1000       336
    26.1200       274
    26.1400       276
    26.1600       312
    26.1800       288
    26.2000       312
    26.2200       326
    26.2400       308
    26.2600       326
    26.2800       314
    26.3000       338
    26.3200       336
    26.3400       324
    26.3600       386
    26.3800       352
    26.4000       392
    26.4200       408
    26.4400       380
    26.4600       384
    26.4800       416
    26.5000       390
    26.5200       416
    26.5400       392
    26.5600       424
    26.5800       444
    26.6000       460
    26.6200       460
    26.6400       416
    26.6600       420
    26.6800       416
    26.7000       402
    26.7200       418
    26.7400       384
    26.7600       400
    26.7800       368
    26.8000       348
    26.8200       310
    26.8400       314
    26.8600       320
    26.8800       326
    26.9000       316
    26.9200       278
    26.9400       314
    26.9600       310
    26.9800       280
    27.0000       270
    27.0200       300
    27.0400       282
    27.0600       306
    27.0800       314
    27.1000       318
    27.1200       342
    27.1400       342
    27.1600       364
    27.1800       348
    27.2000       376
    27.2200       392
    27.2400       388
    27.2600       462
    27.2800       488
    27.3000       526
    27.3200       494
    27.3400       550
    27.3600       600
    27.3800       666
    27.4000       712
    27.4200       740
    27.4400       776
    27.4600       864
    27.4800       798
    27.5000       876
    27.5200       784
    27.5400       778
    27.5600       774
    27.5800       774
    27.6000       700
    27.6200       680
    27.6400       626
    27.6600       572
    27.6800       524
    27.7000       500
    27.7200       452
    27.7400       420
    27.7600       396
    27.7800       360
    27.8000       368
    27.8200       352
    27.8400       346
    27.8600       320
    27.8800       296
    27.9000       280
    27.9200       334
    27.9400       316
    27.9600       302
    27.9800       340
    28.0000       282
    28.0200       308
    28.0400       274
    28.0600       228
    28.0800       252
    28.1000       260
    28.1200       280
    28.1400       270
    28.1600       250
    28.1800       292
    28.2000       258
    28.2200       284
    28.2400       274
    28.2600       238
    28.2800       276
    28.3000       278
    28.3200       270
    28.3400       282
    28.3600       260
    28.3800       292
    28.4000       300
    28.4200       314
    28.4400       314
    28.4600       324
    28.4800       324
    28.5000       358
    28.5200       300
    28.5400       328
    28.5600       334
    28.5800       326
    28.6000       342
    28.6200       364
    28.6400       416
    28.6600       416
    28.6800       412
    28.7000       418
    28.7200       452
    28.7400       428
    28.7600       354
    28.7800       434
    28.8000       376
    28.8200       334
    28.8400       344
    28.8600       302
    28.8800       314
    28.9000       314
    28.9200       300
    28.9400       288
    28.9600       314
    28.9800       330
    29.0000       298
    29.0200       276
    29.0400       336
    29.0600       282
    29.0800       300
    29.1000       298
    29.1200       326
    29.1400       322
    29.1600       298
    29.1800       346
    29.2000       334
    29.2200       386
    29.2400       328
    29.2600       348
    29.2800       376
    29.3000       408
    29.3200       414
    29.3400       412
    29.3600       422
    29.3800       490
    29.4000       466
    29.4200       518
    29.4400       536
    29.4600       538
    29.4800       622
    29.5000       630
    29.5200       668
    29.5400       662
    29.5600       798
    29.5800       882
    29.6000       910
    29.6200       976
    29.6400      1038
    29.6600      1112
    29.6800      1200
    29.7000      1188
    29.7200      1218
    29.7400      1160
    29.7600      1122
    29.7800      1012
    29.8000       970
    29.8200       896
    29.8400       808
    29.8600       764
    29.8800       774
    29.9000       788
    29.9200       752
    29.9400       766
    29.9600       810
    29.9800       828
    30.0000       800
    30.0200       906
    30.0400      1016
    30.0600      1060
    30.0800      1170
    30.1000      1292
    30.1200      1312
    30.1400      1398
    30.1600      1490
    30.1800      1588
    30.2000      1644
    30.2200      1648
    30.2400      1664
    30.2600      1700
    30.2800      1716
    30.3000      1786
    30.3200      1800
    30.3400      1716
    30.3600      1782
    30.3800      1824
    30.4000      1776
    30.4200      1824
    30.4400      1956
    30.4600      2074
    30.4800      2282
    30.5000      2410
    30.5200      2606
    30.5400      2888
    30.5600      3096
    30.5800      3562
    30.6000      3914
    30.6200      4326
    30.6400      4978
    30.6600      5242
    30.6800      5728
    30.7000      5916
    30.7200      5888
    30.7400      5646
    30.7600      5266
    30.7800      4952
    30.8000      4110
    30.8200      3650
    30.8400      3164
    30.8600      2622
    30.8800      2332
    30.9000      1902
    30.9200      1636
    30.9400      1524
    30.9600      1266
    30.9800      1144
    31.0000      1078
    31.0200       918
    31.0400       910
    31.0600       806
    31.0800       688
    31.1000       658
    31.1200       646
    31.1400       578
    31.1600       548
    31.1800       500
    31.2000       520
    31.2200       498
    31.2400       512
    31.2600       442
    31.2800       464
    31.3000       404
    31.3200       440
    31.3400       442
    31.3600       436
    31.3800       386
    31.4000       400
    31.4200       384
    31.4400       366
    31.4600       388
    31.4800       384
    31.5000       444
    31.5200       420
    31.5400       442
    31.5600       460
    31.5800       428
    31.6000       456
    31.6200       482
    31.6400       506
    31.6600       528
    31.6800       604
    31.7000       590
    31.7200       634
    31.7400       660
    31.7600       708
    31.7800       784
    31.8000       838
    31.8200       964
    31.8400      1042
    31.8600      1174
    31.8800      1350
    31.9000      1590
    31.9200      1612
    31.9400      1852
    31.9600      2070
    31.9800      2118
    32.0000      2092
    32.0200      2112
    32.0400      2016
    32.0600      1886
    32.0800      1782
    32.1000      1574
    32.1200      1594
    32.1400      1402
    32.1600      1372
    32.1800      1274
    32.2000      1296
    32.2200      1326
    32.2400      1368
    32.2600      1522
    32.2800      1634
    32.3000      1796
    32.3200      2012
    32.3400      2150
    32.3600      2530
    32.3800      2886
    32.4000      3238
    32.4200      3688
    32.4400      4312
    32.4600      4726
    32.4800      5428
    32.5000      5938
    32.5200      6480
    32.5400      6712
    32.5600      6776
    32.5800      6658
    32.6000      6304
    32.6200      5790
    32.6400      5190
    32.6600      4566
    32.6800      3964
    32.7000      3436
    32.7200      2916
    32.7400      2544
    32.7600      2164
    32.7800      1892
    32.8000      1754
    32.8200      1536
    32.8400      1466
    32.8600      1346
    32.8800      1274
    32.9000      1294
    32.9200      1298
    32.9400      1266
    32.9600      1206
    32.9800      1282
    33.0000      1320
    33.0200      1442
    33.0400      1450
    33.0600      1522
    33.0800      1482
    33.1000      1458
    33.1200      1404
    33.1400      1334
    33.1600      1230
    33.1800      1128
    33.2000       948
    33.2200       932
    33.2400       786
    33.2600       714
    33.2800       616
    33.3000       558
    33.3200       462
    33.3400       492
    33.3600       402
    33.3800       380
    33.4000       382
    33.4200       416
    33.4400       368
    33.4600       322
    33.4800       338
    33.5000       332
    33.5200       304
    33.5400       296
    33.5600       300
    33.5800       278
    33.6000       272
    33.6200       298
    33.6400       254
    33.6600       286
    33.6800       260
    33.7000       262
    33.7200       268
    33.7400       270
    33.7600       268
    33.7800       250
    33.8000       286
    33.8200       224
    33.8400       270
    33.8600       272
    33.8800       256
    33.9000       268
    33.9200       266
    33.9400       268
    33.9600       256
    33.9800       250
    34.0000       272
    34.0200       280
    34.0400       252
    34.0600       292
    34.0800       292
    34.1000       302
    34.1200       304
    34.1400       268
    34.1600       280
    34.1800       338
    34.2000       300
    34.2200       304
    34.2400       320
    34.2600       328
    34.2800       348
    34.3000       390
    34.3200       414
    34.3400       412
    34.3600       482
    34.3800       470
    34.4000       538
    34.4200       536
    34.4400       606
    34.4600       652
    34.4800       614
    34.5000       648
    34.5200       616
    34.5400       584
    34.5600       558
    34.5800       474
    34.6000       486
    34.6200       450
    34.6400       428
    34.6600       378
    34.6800       392
    34.7000       376
    34.7200       390
    34.7400       364
    34.7600       348
    34.7800       348
    34.8000       336
    34.8200       344
    34.8400       366
    34.8600       324
    34.8800       324
    34.9000       366
    34.9200       294
    34.9400       324
    34.9600       336
    34.9800       298
    35.0000       286
    35.0200       284
    35.0400       294
    35.0600       324
    35.0800       284
    35.1000       282
    35.1200       264
    35.1400       290
    35.1600       298
    35.1800       238
    35.2000       258
    35.2200       240
    35.2400       272
    35.2600       284
    35.2800       282
    35.3000       260
    35.3200       272
    35.3400       280
    35.3600       294
    35.3800       250
    35.4000       262
    35.4200       286
    35.4400       274
    35.4600       236
    35.4800       288
    35.5000       268
    35.5200       330
    35.5400       264
    35.5600       294
    35.5800       304
    35.6000       318
    35.6200       290
    35.6400       314
    35.6600       318
    35.6800       320
    35.7000       332
    35.7200       364
    35.7400       370
    35.7600       354
    35.7800       350
    35.8000       390
    35.8200       368
    35.8400       414
    35.8600       380
    35.8800       408
    35.9000       488
    35.9200       476
    35.9400       538
    35.9600       536
    35.9800       622
    36.0000       630
    36.0200       640
    36.0400       710
    36.0600       770
    36.0800       820
    36.1000       946
    36.1200       978
    36.1400      1006
    36.1600       992
    36.1800       948
    36.2000       992
    36.2200       888
    36.2400       812
    36.2600       836
    36.2800       688
    36.3000       690
    36.3200       594
    36.3400       546
    36.3600       516
    36.3800       530
    36.4000       516
    36.4200       516
    36.4400       474
    36.4600       494
    36.4800       506
    36.5000       492
    36.5200       436
    36.5400       546
    36.5600       494
    36.5800       544
    36.6000       568
    36.6200       568
    36.6400       638
    36.6600       672
    36.6800       714
    36.7000       810
    36.7200       890
    36.7400       992
    36.7600      1116
    36.7800      1198
    36.8000      1324
    36.8200      1468
    36.8400      1618
    36.8600      1756
    36.8800      1774
    36.9000      1796
    36.9200      1806
    36.9400      1596
    36.9600      1566
    36.9800      1408
    37.0000      1422
    37.0200      1226
    37.0400      1144
    37.0600      1104
    37.0800       984
    37.1000       968
    37.1200       892
    37.1400       852
    37.1600       784
    37.1800       820
    37.2000       772
    37.2200       738
    37.2400       726
    37.2600       694
    37.2800       652
    37.3000       626
    37.3200       612
    37.3400       594
    37.3600       586
    37.3800       556
    37.4000       602
    37.4200       536
    37.4400       488
    37.4600       532
    37.4800       510
    37.5000       530
    37.5200       524
    37.5400       488
    37.5600       480
    37.5800       522
    37.6000       560
    37.6200       510
    37.6400       560
    37.6600       566
    37.6800       600
    37.7000       604
    37.7200       568
    37.7400       650
    37.7600       656
    37.7800       738
    37.8000       792
    37.8200       876
    37.8400       914
    37.8600       948
    37.8800      1118
    37.9000      1200
    37.9200      1354
    37.9400      1518
    37.9600      1616
    37.9800      1838
    38.0000      1838
    38.0200      1860
    38.0400      1938
    38.0600      1960
    38.0800      1822
    38.1000      1796
    38.1200      1712
    38.1400      1684
    38.1600      1636
    38.1800      1618
    38.2000      1564
    38.2200      1684
    38.2400      1678
    38.2600      1754
    38.2800      1798
    38.3000      1990
    38.3200      2160
    38.3400      2356
    38.3600      2640
    38.3800      2846
    38.4000      3306
    38.4200      3662
    38.4400      3960
    38.4600      4116
    38.4800      4414
    38.5000      4558
    38.5200      4632
    38.5400      4782
    38.5600      5062
    38.5800      5058
    38.6000      5266
    38.6200      5430
    38.6400      5416
    38.6600      5416
    38.6800      5530
    38.7000      5492
    38.7200      5304
    38.7400      4956
    38.7600      4810
    38.7800      4518
    38.8000      4020
    38.8200      3628
    38.8400      3234
    38.8600      2950
    38.8800      2682
    38.9000      2412
    38.9200      2106
    38.9400      1972
    38.9600      1696
    38.9800      1592
    39.0000      1546
    39.0200      1472
    39.0400      1378
    39.0600      1378
    39.0800      1314
    39.1000      1168
    39.1200      1222
    39.1400      1166
    39.1600      1086
    39.1800      1112
    39.2000      1106
    39.2200      1098
    39.2400      1156
    39.2600      1072
    39.2800      1012
    39.3000      1122
    39.3200      1108
    39.3400      1172
    39.3600      1174
    39.3800      1218
    39.4000      1270
    39.4200      1314
    39.4400      1348
    39.4600      1410
    39.4800      1288
    39.5000      1364
    39.5200      1464
    39.5400      1494
    39.5600      1648
    39.5800      1644
    39.6000      1842
    39.6200      1920
    39.6400      1920
    39.6600      2120
    39.6800      2134
    39.7000      2154
    39.7200      2152
    39.7400      2042
    39.7600      1904
    39.7800      1768
    39.8000      1616
    39.8200      1498
    39.8400      1310
    39.8600      1282
    39.8800      1112
    39.9000      1000
    39.9200       994
    39.9400       880
    39.9600       816
    39.9800       814
    40.0000       780
    40.0200       736
    40.0400       768
    40.0600       766
    40.0800       754
    40.1000       772
    40.1200       784
    40.1400       822
    40.1600       806
    40.1800       858
    40.2000       860
    40.2200       876
    40.2400       888
    40.2600       922
    40.2800       922
    40.3000       930
    40.3200      1000
    40.3400       938
    40.3600      1008
    40.3800      1086
    40.4000      1088
    40.4200      1126
    40.4400      1242
    40.4600      1280
    40.4800      1420
    40.5000      1480
    40.5200      1590
    40.5400      1706
    40.5600      1778
    40.5800      1796
    40.6000      1712
    40.6200      1806
    40.6400      1824
    40.6600      1656
    40.6800      1632
    40.7000      1512
    40.7200      1416
    40.7400      1332
    40.7600      1252
    40.7800      1124
    40.8000      1044
    40.8200       956
    40.8400       910
    40.8600       818
    40.8800       794
    40.9000       824
    40.9200       714
    40.9400       734
    40.9600       742
    40.9800       736
    41.0000       718
    41.0200       764
    41.0400       716
    41.0600       770
    41.0800       792
    41.1000       880
    41.1200       926
    41.1400       924
    41.1600       998
    41.1800       984
    41.2000      1058
    41.2200      1114
    41.2400      1152
    41.2600      1294
    41.2800      1274
    41.3000      1344
    41.3200      1338
    41.3400      1364
    41.3600      1392
    41.3800      1454
    41.4000      1410
    41.4200      1560
    41.4400      1540
    41.4600      1590
    41.4800      1604
    41.5000      1684
    41.5200      1728
    41.5400      1752
    41.5600      1782
    41.5800      1762
    41.6000      1758
    41.6200      1774
    41.6400      1688
    41.6600      1646
    41.6800      1624
    41.7000      1600
    41.7200      1562
    41.7400      1544
    41.7600      1552
    41.7800      1552
    41.8000      1596
    41.8200      1612
    41.8400      1724
    41.8600      1704
    41.8800      1678
    41.9000      1802
    41.9200      1758
    41.9400      1682
    41.9600      1666
    41.9800      1492
    42.0000      1432
    42.0200      1254
    42.0400      1252
    42.0600      1070
    42.0800       986
    42.1000       928
    42.1200       848
    42.1400       756
    42.1600       704
    42.1800       692
    42.2000       668
    42.2200       656
    42.2400       598
    42.2600       616
    42.2800       572
    42.3000       542
    42.3200       534
    42.3400       490
    42.3600       506
    42.3800       490
    42.4000       528
    42.4200       526
    42.4400       440
    42.4600       454
    42.4800       496
    42.5000       478
    42.5200       490
    42.5400       438
    42.5600       458
    42.5800       476
    42.6000       440
    42.6200       448
    42.6400       472
    42.6600       418
    42.6800       408
    42.7000       428
    42.7200       468
    42.7400       490
    42.7600       426
    42.7800       458
    42.8000       520
    42.8200       546
    42.8400       506
    42.8600       520
    42.8800       536
    42.9000       576
    42.9200       642
    42.9400       658
    42.9600       646
    42.9800       692
    43.0000       828
    43.0200       876
    43.0400       966
    43.0600      1056
    43.0800      1114
    43.1000      1174
    43.1200      1344
    43.1400      1454
    43.1600      1420
    43.1800      1532
    43.2000      1586
    43.2200      1552
    43.2400      1526
    43.2600      1468
    43.2800      1428
    43.3000      1296
    43.3200      1198
    43.3400      1066
    43.3600      1126
    43.3800       972
    43.4000       884
    43.4200       822
    43.4400       780
    43.4600       710
    43.4800       626
    43.5000       626
    43.5200       638
    43.5400       558
    43.5600       574
    43.5800       580
    43.6000       526
    43.6200       562
    43.6400       546
    43.6600       586
    43.6800       584
    43.7000       614
    43.7200       652
    43.7400       626
    43.7600       650
    43.7800       632
    43.8000       662
    43.8200       674
    43.8400       656
    43.8600       688
    43.8800       680
    43.9000       688
    43.9200       636
    43.9400       592
    43.9600       592
    43.9800       546
    44.0000       606
    44.0200       564
    44.0400       486
    44.0600       500
    44.0800       500
    44.1000       494
    44.1200       434
    44.1400       534
    44.1600       460
    44.1800       492
    44.2000       474
    44.2200       510
    44.2400       546
    44.2600       484
    44.2800       530
    44.3000       526
    44.3200       474
    44.3400       498
    44.3600       534
    44.3800       498
    44.4000       514
    44.4200       522
    44.4400       500
    44.4600       504
    44.4800       506
    44.5000       480
    44.5200       510
    44.5400       486
    44.5600       514
    44.5800       498
    44.6000       474
    44.6200       446
    44.6400       580
    44.6600       532
    44.6800       522
    44.7000       570
    44.7200       558
    44.7400       584
    44.7600       630
    44.7800       686
    44.8000       682
    44.8200       722
    44.8400       752
    44.8600       792
    44.8800       914
    44.9000       926
    44.9200       980
    44.9400      1028
    44.9600      1152
    44.9800      1198
    45.0000      1216
    45.0200      1318
    45.0400      1434
    45.0600      1444
    45.0800      1476
    45.1000      1644
    45.1200      1654
    45.1400      1760
    45.1600      1732
    45.1800      1906
    45.2000      1860
    45.2200      1882
    45.2400      1910
    45.2600      1968
    45.2800      2006
    45.3000      1922
    45.3200      1918
    45.3400      1826
    45.3600      1768
    45.3800      1772
    45.4000      1728
    45.4200      1594
    45.4400      1616
    45.4600      1522
    45.4800      1460
    45.5000      1336
    45.5200      1364
    45.5400      1210
    45.5600      1228
    45.5800      1090
    45.6000      1002
    45.6200       970
    45.6400       892
    45.6600       912
    45.6800       810
    45.7000       816
    45.7200       758
    45.7400       688
    45.7600       744
    45.7800       672
    45.8000       652
    45.8200       662
    45.8400       682
    45.8600       628
    45.8800       664
    45.9000       678
    45.9200       664
    45.9400       664
    45.9600       660
    45.9800       666
    46.0000       648
    46.0200       608
    46.0400       620
    46.0600       742
    46.0800       726
    46.1000       712
    46.1200       800
    46.1400       724
    46.1600       804
    46.1800       786
    46.2000       868
    46.2200       840
    46.2400       876
    46.2600       950
    46.2800      1042
    46.3000      1104
    46.3200      1146
    46.3400      1232
    46.3600      1370
    46.3800      1476
    46.4000      1656
    46.4200      1824
    46.4400      1988
    46.4600      2220
    46.4800      2398
    46.5000      2726
    46.5200      3044
    46.5400      3378
    46.5600      3916
    46.5800      4436
    46.6000      4882
    46.6200      5400
    46.6400      5970
    46.6600      6356
    46.6800      6742
    46.7000      6776
    46.7200      6824
    46.7400      6778
    46.7600      6588
    46.7800      5978
    46.8000      5684
    46.8200      5262
    46.8400      4952
    46.8600      4576
    46.8800      4046
    46.9000      3474
    46.9200      3040
    46.9400      2718
    46.9600      2328
    46.9800      2102
    47.0000      1908
    47.0200      1666
    47.0400      1558
    47.0600      1362
    47.0800      1176
    47.1000      1144
    47.1200      1142
    47.1400       976
    47.1600       904
    47.1800       884
    47.2000       852
    47.2200       812
    47.2400       774
    47.2600       722
    47.2800       704
    47.3000       680
    47.3200       640
    47.3400       648
    47.3600       672
    47.3800       634
    47.4000       594
    47.4200       602
    47.4400       566
    47.4600       574
    47.4800       584
    47.5000       536
    47.5200       586
    47.5400       534
    47.5600       542
    47.5800       534
    47.6000       522
    47.6200       594
    47.6400       548
    47.6600       620
    47.6800       604
    47.7000       644
    47.7200       656
    47.7400       690
    47.7600       728
    47.7800       730
    47.8000       746
    47.8200       810
    47.8400       834
    47.8600       766
    47.8800       810
    47.9000       782
    47.9200       792
    47.9400       802
    47.9600       798
    47.9800       754
    48.0000       666
    48.0200       760
    48.0400       712
    48.0600       734
    48.0800       722
    48.1000       770
    48.1200       774
    48.1400       832
    48.1600       862
    48.1800       910
    48.2000       852
    48.2200       914
    48.2400       838
    48.2600       872
    48.2800       848
    48.3000       900
    48.3200       866
    48.3400       786
    48.3600       824
    48.3800       794
    48.4000       830
    48.4200       820
    48.4400       774
    48.4600       812
    48.4800       830
    48.5000       776
    48.5200       824
    48.5400       886
    48.5600       920
    48.5800       868
    48.6000       844
    48.6200       880
    48.6400       882
    48.6600       878
    48.6800       834
    48.7000       812
    48.7200       768
    48.7400       734
    48.7600       776
    48.7800       736
    48.8000       690
    48.8200       718
    48.8400       670
    48.8600       632
    48.8800       640
    48.9000       570
    48.9200       556
    48.9400       558
    48.9600       512
    48.9800       540
    49.0000       510
    49.0200       482
    49.0400       466
    49.0600       442
    49.0800       402
    49.1000       432
    49.1200       450
    49.1400       420
    49.1600       398
    49.1800       376
    49.2000       376
    49.2200       376
    49.2400       350
    49.2600       382
    49.2800       372
    49.3000       352
    49.3200       362
    49.3400       376
    49.3600       378
    49.3800       392
    49.4000       342
    49.4200       322
    49.4400       370
    49.4600       360
    49.4800       354
    49.5000       362
    49.5200       334
    49.5400       352
    49.5600       378
    49.5800       352
    49.6000       374
    49.6200       378
    49.6400       374
    49.6600       408
    49.6800       398
    49.7000       402
    49.7200       396
    49.7400       368
    49.7600       372
    49.7800       392
    49.8000       398
    49.8200       422
    49.8400       418
    49.8600       414
    49.8800       442
    49.9000       454
    49.9200       452
    49.9400       508
    49.9600       536
    49.9800       500
    50.0000       536
    50.0200       576
    50.0400       612
    50.0600       654
    50.0800       680
    50.1000       754
    50.1200       740
    50.1400       692
    50.1600       854
    50.1800       818
    50.2000       904
    50.2200       912
    50.2400      1056
    50.2600       972
    50.2800      1024
    50.3000      1060
    50.3200      1058
    50.3400      1084
    50.3600      1120
    50.3800      1072
    50.4000      1080
    50.4200      1178
    50.4400      1156
    50.4600      1138
    50.4800      1114
    50.5000      1130
    50.5200      1220
    50.5400      1218
    50.5600      1190
    50.5800      1232
    50.6000      1294
    50.6200      1198
    50.6400      1214
    50.6600      1340
    50.6800      1414
    50.7000      1406
    50.7200      1552
    50.7400      1592
    50.7600      1714
    50.7800      1828
    50.8000      2016
    50.8200      1932
    50.8400      1904
    50.8600      1980
    50.8800      1976
    50.9000      1812
    50.9200      1882
    50.9400      1792
    50.9600      1750
    50.9800      1568
    51.0000      1560
    51.0200      1458
    51.0400      1438
    51.0600      1358
    51.0800      1224
    51.1000      1148
    51.1200      1070
    51.1400      1070
    51.1600      1026
    51.1800       974
    51.2000       942
    51.2200       936
    51.2400       834
    51.2600       872
    51.2800       836
    51.3000       870
    51.3200       854
    51.3400       912
    51.3600       854
    51.3800       898
    51.4000       822
    51.4200       866
    51.4400       878
    51.4600       924
    51.4800       900
    51.5000       854
    51.5200       882
    51.5400       854
    51.5600       858
    51.5800       840
    51.6000       836
    51.6200       886
    51.6400       912
    51.6600       916
    51.6800       924
    51.7000       904
    51.7200       972
    51.7400      1046
    51.7600      1156
    51.7800      1142
    51.8000      1272
    51.8200      1318
    51.8400      1338
    51.8600      1454
    51.8800      1444
    51.9000      1426
    51.9200      1528
    51.9400      1532
    51.9600      1588
    51.9800      1726
    52.0000      1792
    52.0200      1908
    52.0400      1920
    52.0600      2000
    52.0800      1898
    52.1000      1872
    52.1200      1834
    52.1400      1812
    52.1600      1602
    52.1800      1588
    52.2000      1606
    52.2200      1450
    52.2400      1402
    52.2600      1330
    52.2800      1272
    52.3000      1140
    52.3200      1106
    52.3400      1118
    52.3600      1082
    52.3800      1052
    52.4000      1042
    52.4200      1136
    52.4400      1138
    52.4600      1090
    52.4800      1170
    52.5000      1188
    52.5200      1232
    52.5400      1390
    52.5600      1320
    52.5800      1428
    52.6000      1468
    52.6200      1370
    52.6400      1460
    52.6600      1462
    52.6800      1442
    52.7000      1442
    52.7200      1376
    52.7400      1402
    52.7600      1292
    52.7800      1306
    52.8000      1214
    52.8200      1164
    52.8400      1196
    52.8600      1030
    52.8800      1046
    52.9000       980
    52.9200       916
    52.9400       946
    52.9600       844
    52.9800       926
    53.0000       940
    53.0200       938
    53.0400       940
    53.0600       928
    53.0800      1018
    53.1000      1020
    53.1200      1110
    53.1400      1098
    53.1600      1236
    53.1800      1306
    53.2000      1390
    53.2200      1490
    53.2400      1478
    53.2600      1398
    53.2800      1476
    53.3000      1486
    53.3200      1474
    53.3400      1378
    53.3600      1322
    53.3800      1234
    53.4000      1184
    53.4200      1178
    53.4400      1130
    53.4600      1066
    53.4800       966
    53.5000       856
    53.5200       862
    53.5400       752
    53.5600       730
    53.5800       666
    53.6000       702
    53.6200       650
    53.6400       664
    53.6600       600
    53.6800       580
    53.7000       628
    53.7200       604
    53.7400       554
    53.7600       582
    53.7800       592
    53.8000       554
    53.8200       590
    53.8400       554
    53.8600       504
    53.8800       554
    53.9000       530
    53.9200       540
    53.9400       504
    53.9600       558
    53.9800       580
    54.0000       522
    54.0200       454
    54.0400       494
    54.0600       512
    54.0800       466
    54.1000       536
    54.1200       502
    54.1400       530
    54.1600       546
    54.1800       556
    54.2000       572
    54.2200       564
    54.2400       602
    54.2600       602
    54.2800       628
    54.3000       630
    54.3200       672
    54.3400       672
    54.3600       666
    54.3800       690
    54.4000       724
    54.4200       720
    54.4400       736
    54.4600       752
    54.4800       770
    54.5000       848
    54.5200       862
    54.5400       908
    54.5600       896
    54.5800       960
    54.6000       926
    54.6200       950
    54.6400       994
    54.6600      1050
    54.6800       966
    54.7000       990
    54.7200       958
    54.7400      1052
    54.7600       940
    54.7800       992
    54.8000       992
    54.8200       910
    54.8400       926
    54.8600       886
    54.8800       836
    54.9000       776
    54.9200       820
    54.9400       818
    54.9600       794
    54.9800       744
    55.0000       754
    55.0200       802
    55.0400       736
    55.0600       764
    55.0800       766
    55.1000       740
    55.1200       770
    55.1400       740
    55.1600       806
    55.1800       798
    55.2000       756
    55.2200       772
    55.2400       750
    55.2600       778
    55.2800       752
    55.3000       738
    55.3200       720
    55.3400       716
    55.3600       722
    55.3800       714
    55.4000       676
    55.4200       670
    55.4400       670
    55.4600       668
    55.4800       616
    55.5000       608
    55.5200       620
    55.5400       604
    55.5600       572
    55.5800       534
    55.6000       552
    55.6200       508
    55.6400       478
    55.6600       462
    55.6800       458
    55.7000       450
    55.7200       448
    55.7400       434
    55.7600       424
    55.7800       424
    55.8000       452
    55.8200       394
    55.8400       380
    55.8600       374
    55.8800       360
    55.9000       370
    55.9200       356
    55.9400       344
    55.9600       352
    55.9800       372
    56.0000       354
    56.0200       378
    56.0400       354
    56.0600       350
    56.0800       354
    56.1000       384
    56.1200       356
    56.1400       384
    56.1600       382
    56.1800       358
    56.2000       342
    56.2200       384
    56.2400       344
    56.2600       338
    56.2800       340
    56.3000       344
    56.3200       350
    56.3400       304
    56.3600       414
    56.3800       354
    56.4000       344
    56.4200       378
    56.4400       396
    56.4600       374
    56.4800       384
    56.5000       390
    56.5200       412
    56.5400       408
    56.5600       412
    56.5800       424
    56.6000       466
    56.6200       460
    56.6400       406
    56.6600       474
    56.6800       456
    56.7000       496
    56.7200       516
    56.7400       540
    56.7600       560
    56.7800       576
    56.8000       620
    56.8200       600
    56.8400       652
    56.8600       640
    56.8800       684
    56.9000       712
    56.9200       738
    56.9400       694
    56.9600       642
    56.9800       726
    57.0000       716
    57.0200       720
    57.0400       702
    57.0600       750
    57.0800       724
    57.1000       726
    57.1200       748
    57.1400       792
    57.1600       852
    57.1800       846
    57.2000       910
    57.2200       986
    57.2400      1016
    57.2600      1098
    57.2800      1198
    57.3000      1282
    57.3200      1368
    57.3400      1364
    57.3600      1444
    57.3800      1466
    57.4000      1464
    57.4200      1346
    57.4400      1406
    57.4600      1462
    57.4800      1382
    57.5000      1384
    57.5200      1328
    57.5400      1332
    57.5600      1268
    57.5800      1350
    57.6000      1288
    57.6200      1358
    57.6400      1334
    57.6600      1400
    57.6800      1452
    57.7000      1432
    57.7200      1482
    57.7400      1462
    57.7600      1446
    57.7800      1442
    57.8000      1324
    57.8200      1324
    57.8400      1234
    57.8600      1210
    57.8800      1230
    57.9000      1152
    57.9200      1152
    57.9400      1112
    57.9600      1068
    57.9800      1028
    58.0000       960
    58.0200       880
    58.0400       916
    58.0600       866
    58.0800       800
    58.1000       832
    58.1200       830
    58.1400       828
    58.1600       910
    58.1800       872
    58.2000       908
    58.2200       930
    58.2400       950
    58.2600      1002
    58.2800      1002
    58.3000      1092
    58.3200      1166
    58.3400      1206
    58.3600      1302
    58.3800      1348
    58.4000      1462
    58.4200      1520
    58.4400      1498
    58.4600      1710
    58.4800      1776
    58.5000      1878
    58.5200      1966
    58.5400      2066
    58.5600      2080
    58.5800      2206
    58.6000      2256
    58.6200      2442
    58.6400      2486
    58.6600      2540
    58.6800      2574
    58.7000      2594
    58.7200      2690
    58.7400      2556
    58.7600      2654
    58.7800      2590
    58.8000      2538
    58.8200      2494
    58.8400      2378
    58.8600      2356
    58.8800      2230
    58.9000      2160
    58.9200      2056
    58.9400      1876
    58.9600      1744
    58.9800      1684
    59.0000      1570
    59.0200      1514
    59.0400      1424
    59.0600      1318
    59.0800      1344
    59.1000      1160
    59.1200      1186
    59.1400      1176
    59.1600      1152
    59.1800      1156
    59.2000      1114
    59.2200      1172
    59.2400      1178
    59.2600      1168
    59.2800      1180
    59.3000      1188
    59.3200      1308
    59.3400      1430
    59.3600      1408
    59.3800      1488
    59.4000      1510
    59.4200      1554
    59.4400      1554
    59.4600      1566
    59.4800      1524
    59.5000      1554
    59.5200      1504
    59.5400      1472
    59.5600      1396
    59.5800      1284
    59.6000      1310
    59.6200      1332
    59.6400      1238
    59.6600      1136
    59.6800      1116
    59.7000      1058
    59.7200      1022
    59.7400      1012
    59.7600       952
    59.7800       980
    59.8000       952
    59.8200       858
    59.8400       858
    59.8600       862
    59.8800       838
    59.9000       780
    59.9200       732
    59.9400       774
    59.9600       714
    59.9800       686
    60.0000       690
    60.0200       640
    60.0400       670
    60.0600       640
    60.0800       610
    60.1000       580
    60.1200       600
    60.1400       516
    60.1600       544
    60.1800       516
    60.2000       524
    60.2200       522
    60.2400       508
    60.2600       458
    60.2800       526
    60.3000       458
    60.3200       504
    60.3400       474
    60.3600       464
    60.3800       480
    60.4000       458
    60.4200       448
    60.4400       462
    60.4600       470
    60.4800       440
    60.5000       474
    60.5200       428
    60.5400       384
    60.5600       432
    60.5800       402
    60.6000       432
    60.6200       434
    60.6400       404
    60.6600       416
    60.6800       438
    60.7000       436
    60.7200       424
    60.7400       438
    60.7600       450
    60.7800       424
    60.8000       442
    60.8200       440
    60.8400       472
    60.8600       492
    60.8800       516
    60.9000       488
    60.9200       470
    60.9400       512
    60.9600       532
    60.9800       512
    61.0000       542
    61.0200       566
    61.0400       590
    61.0600       616
    61.0800       672
    61.1000       662
    61.1200       672
    61.1400       678
    61.1600       658
    61.1800       732
    61.2000       692
    61.2200       638
    61.2400       728
    61.2600       686
    61.2800       754
    61.3000       766
    61.3200       758
    61.3400       776
    61.3600       802
    61.3800       766
    61.4000       836
    61.4200       882
    61.4400       884
    61.4600       952
    61.4800       988
    61.5000      1028
    61.5200      1098
    61.5400      1138
    61.5600      1098
    61.5800      1144
    61.6000      1182
    61.6200      1210
    61.6400      1270
    61.6600      1346
    61.6800      1334
    61.7000      1312
    61.7200      1286
    61.7400      1240
    61.7600      1324
    61.7800      1244
    61.8000      1178
    61.8200      1134
    61.8400      1092
    61.8600      1002
    61.8800       998
    61.9000       974
    61.9200       944
    61.9400       916
    61.9600       882
    61.9800       834
    62.0000       786
    62.0200       756
    62.0400       790
    62.0600       778
    62.0800       740
    62.1000       698
    62.1200       664
    62.1400       680
    62.1600       670
    62.1800       648
    62.2000       628
    62.2200       596
    62.2400       616
    62.2600       580
    62.2800       562
    62.3000       566
    62.3200       562
    62.3400       542
    62.3600       522
    62.3800       574
    62.4000       530
    62.4200       518
    62.4400       504
    62.4600       440
    62.4800       464
    62.5000       476
    62.5200       436
    62.5400       432
    62.5600       456
    62.5800       422
    62.6000       390
    62.6200       448
    62.6400       424
    62.6600       402
    62.6800       414
    62.7000       414
    62.7200       398
    62.7400       390
    62.7600       400
    62.7800       366
    62.8000       368
    62.8200       398
    62.8400       340
    62.8600       390
    62.8800       364
    62.9000       330
    62.9200       370
    62.9400       326
    62.9600       332
    62.9800       348
    63.0000       306
    63.0200       290
    63.0400       328
    63.0600       342
    63.0800       328
    63.1000       310
    63.1200       290
    63.1400       314
    63.1600       312
    63.1800       326
    63.2000       332
    63.2200       292
    63.2400       264
    63.2600       290
    63.2800       314
    63.3000       290
    63.3200       292
    63.3400       294
    63.3600       324
    63.3800       344
    63.4000       318
    63.4200       316
    63.4400       334
    63.4600       340
    63.4800       366
    63.5000       352
    63.5200       350
    63.5400       376
    63.5600       368
    63.5800       372
    63.6000       376
    63.6200       414
    63.6400       424
    63.6600       464
    63.6800       474
    63.7000       424
    63.7200       482
    63.7400       556
    63.7600       588
    63.7800       582
    63.8000       600
    63.8200       648
    63.8400       720
    63.8600       736
    63.8800       700
    63.9000       722
    63.9200       748
    63.9400       774
    63.9600       756
    63.9800       772
    64.0000       696
    64.0200       690
    64.0400       658
    64.0600       622
    64.0800       660
    64.1000       598
    64.1200       572
    64.1400       576
    64.1600       550
    64.1800       500
    64.2000       480
    64.2200       484
    64.2400       488
    64.2600       430
    64.2800       414
    64.3000       400
    64.3200       348
    64.3400       396
    64.3600       336
    64.3800       356
    64.4000       304
    64.4200       342
    64.4400       322
    64.4600       326
    64.4800       310
    64.5000       340
    64.5200       298
    64.5400       312
    64.5600       296
    64.5800       278
    64.6000       294
    64.6200       256
    64.6400       264
    64.6600       276
    64.6800       272
    64.7000       274
    64.7200       266
    64.7400       252
    64.7600       298
    64.7800       296
    64.8000       268
    64.8200       272
    64.8400       258
    64.8600       286
    64.8800       326
    64.9000       278
    64.9200       290
    64.9400       298
    64.9600       336
    64.9800       290
    65.0000       310
    65.0200       290
    65.0400       374
    65.0600       324
    65.0800       338
    65.1000       366
    65.1200       384
    65.1400       398
    65.1600       384
    65.1800       406
    65.2000       438
    65.2200       404
    65.2400       440
    65.2600       416
    65.2800       440
    65.3000       440
    65.3200       442
    65.3400       442
    65.3600       456
    65.3800       502
    65.4000       426
    65.4200       456
    65.4400       436
    65.4600       418
    65.4800       382
    65.5000       408
    65.5200       400
    65.5400       400
    65.5600       414
    65.5800       410
    65.6000       380
    65.6200       414
    65.6400       360
    65.6600       354
    65.6800       360
    65.7000       366
    65.7200       352
    65.7400       318
    65.7600       350
    65.7800       306
    65.8000       342
    65.8200       312
    65.8400       298
    65.8600       286
    65.8800       318
    65.9000       296
    65.9200       316
    65.9400       308
    65.9600       280
    65.9800       314
    66.0000       308
    66.0200       292
    66.0400       290
    66.0600       308
    66.0800       268
    66.1000       312
    66.1200       316
    66.1400       278
    66.1600       302
    66.1800       270
    66.2000       296
    66.2200       308
    66.2400       286
    66.2600       288
    66.2800       280
    66.3000       296
    66.3200       284
    66.3400       312
    66.3600       296
    66.3800       324
    66.4000       326
    66.4200       352
    66.4400       302
    66.4600       322
    66.4800       328
    66.5000       350
    66.5200       316
    66.5400       370
    66.5600       352
    66.5800       362
    66.6000       422
    66.6200       406
    66.6400       384
    66.6600       450
    66.6800       412
    66.7000       408
    66.7200       510
    66.7400       480
    66.7600       536
    66.7800       548
    66.8000       516
    66.8200       610
    66.8400       646
    66.8600       652
    66.8800       670
    66.9000       630
    66.9200       680
    66.9400       690
    66.9600       646
    66.9800       720
    67.0000       624
    67.0200       666
    67.0400       650
    67.0600       710
    67.0800       608
    67.1000       634
    67.1200       570
    67.1400       608
    67.1600       562
    67.1800       576
    67.2000       524
    67.2200       516
    67.2400       492
    67.2600       428
    67.2800       512
    67.3000       452
    67.3200       464
    67.3400       440
    67.3600       392
    67.3800       398
    67.4000       406
    67.4200       368
    67.4400       406
    67.4600       344
    67.4800       354
    67.5000       372
    67.5200       312
    67.5400       384
    67.5600       370
    67.5800       364
    67.6000       318
    67.6200       346
    67.6400       358
    67.6600       386
    67.6800       404
    67.7000       390
    67.7200       378
    67.7400       414
    67.7600       418
    67.7800       460
    67.8000       470
    67.8200       488
    67.8400       454
    67.8600       492
    67.8800       484
    67.9000       532
    67.9200       534
    67.9400       606
    67.9600       624
    67.9800       660
    68.0000       776
    68.0200       740
    68.0400       814
    68.0600       860
    68.0800       862
    68.1000       890
    68.1200       954
    68.1400       962
    68.1600      1014
    68.1800       994
    68.2000      1012
    68.2200       984
    68.2400      1004
    68.2600       972
    68.2800       970
    68.3000       974
    68.3200       860
    68.3400       908
    68.3600       850
    68.3800       870
    68.4000       776
    68.4200       792
    68.4400       768
    68.4600       712
    68.4800       660
    68.5000       616
    68.5200       640
    68.5400       616
    68.5600       550
    68.5800       534
    68.6000       496
    68.6200       508
    68.6400       440
    68.6600       474
    68.6800       460
    68.7000       464
    68.7200       450
    68.7400       456
    68.7600       438
    68.7800       424
    68.8000       442
    68.8200       398
    68.8400       384
    68.8600       396
    68.8800       406
    68.9000       366
    68.9200       404
    68.9400       380
    68.9600       386
    68.9800       360
    69.0000       380
    69.0200       364
    69.0400       388
    69.0600       394
    69.0800       404
    69.1000       388
    69.1200       394
    69.1400       422
    69.1600       422
    69.1800       424
    69.2000       452
    69.2200       452
    69.2400       468
    69.2600       440
    69.2800       534
    69.3000       528
    69.3200       496
    69.3400       528
    69.3600       574
    69.3800       552
    69.4000       570
    69.4200       570
    69.4400       586
    69.4600       544
    69.4800       496
    69.5000       546
    69.5200       544
    69.5400       510
    69.5600       498
    69.5800       488
    69.6000       506
    69.6200       478
    69.6400       496
    69.6600       496
    69.6800       452
    69.7000       430
    69.7200       382
    69.7400       414
    69.7600       402
    69.7800       388
    69.8000       376
    69.8200       376
    69.8400       390
    69.8600       382
    69.8800       406
    69.9000       408
    69.9200       380
    69.9400       410
    69.9600       386
    69.9800       394
    70.0000       370
    70.0200       382
    70.0400       378
    70.0600       376
    70.0800       364
    70.1000       364
    70.1200       374
    70.1400       390
    70.1600       336
    70.1800       340
    70.2000       322
    70.2200       338
    70.2400       302
    70.2600       312
    70.2800       296
    70.3000       278
    70.3200       320
    70.3400       264
    70.3600       286
    70.3800       290
    70.4000       262
    70.4200       280
    70.4400       278
    70.4600       272
    70.4800       300
    70.5000       264
    70.5200       240
    70.5400       276
    70.5600       254
    70.5800       290
    70.6000       258
    70.6200       292
    70.6400       296
    70.6600       262
    70.6800       278
    70.7000       270
    70.7200       282
    70.7400       266
    70.7600       264
    70.7800       258
    70.8000       268
    70.8200       280
    70.8400       260
    70.8600       288
    70.8800       288
    70.9000       296
    70.9200       264
    70.9400       266
    70.9600       278
    70.9800       256
    71.0000       246
    71.0200       224
    71.0400       254
    71.0600       266
    71.0800       280
    71.1000       272
    71.1200       256
    71.1400       300
    71.1600       322
    71.1800       314
    71.2000       296
    71.2200       328
    71.2400       380
    71.2600       336
    71.2800       332
    71.3000       378
    71.3200       410
    71.3400       426
    71.3600       400
    71.3800       426
    71.4000       478
    71.4200       470
    71.4400       498
    71.4600       516
    71.4800       534
    71.5000       566
    71.5200       560
    71.5400       594
    71.5600       554
    71.5800       638
    71.6000       596
    71.6200       600
    71.6400       552
    71.6600       594
    71.6800       624
    71.7000       612
    71.7200       562
    71.7400       530
    71.7600       546
    71.7800       524
    71.8000       526
    71.8200       514
    71.8400       544
    71.8600       458
    71.8800       490
    71.9000       484
    71.9200       484
    71.9400       476
    71.9600       450
    71.9800       474
    72.0000       486
    72.0200       456
    72.0400       494
    72.0600       466
    72.0800       468
    72.1000       442
    72.1200       458
    72.1400       412
    72.1600       490
    72.1800       490
    72.2000       458
    72.2200       502
    72.2400       474
    72.2600       492
    72.2800       518
    72.3000       484
    72.3200       462
    72.3400       486
    72.3600       476
    72.3800       538
    72.4000       546
    72.4200       522
    72.4400       522
    72.4600       510
    72.4800       548
    72.5000       532
    72.5200       490
    72.5400       528
    72.5600       464
    72.5800       530
    72.6000       554
    72.6200       550
    72.6400       604
    72.6600       524
    72.6800       566
    72.7000       532
    72.7200       586
    72.7400       528
    72.7600       508
    72.7800       558
    72.8000       522
    72.8200       522
    72.8400       546
    72.8600       522
    72.8800       488
    72.9000       526
    72.9200       494
    72.9400       468
    72.9600       458
    72.9800       446
    73.0000       462
    73.0200       424
    73.0400       434
    73.0600       456
    73.0800       420
    73.1000       376
    73.1200       412
    73.1400       420
    73.1600       406
    73.1800       344
    73.2000       366
    73.2200       378
    73.2400       336
    73.2600       326
    73.2800       340
    73.3000       368
    73.3200       358
    73.3400       326
    73.3600       336
    73.3800       312
    73.4000       318
    73.4200       294
    73.4400       306
    73.4600       314
    73.4800       280
    73.5000       304
    73.5200       302
    73.5400       314
    73.5600       260
    73.5800       294
    73.6000       262
    73.6200       268
    73.6400       274
    73.6600       254
    73.6800       238
    73.7000       256
    73.7200       284
    73.7400       262
    73.7600       296
    73.7800       266
    73.8000       276
    73.8200       244
    73.8400       274
    73.8600       266
    73.8800       250
    73.9000       236
    73.9200       298
    73.9400       292
    73.9600       278
    73.9800       292
    74.0000       300
    74.0200       280
    74.0400       268
    74.0600       296
    74.0800       316
    74.1000       276
    74.1200       292
    74.1400       298
    74.1600       306
    74.1800       302
    74.2000       300
    74.2200       288
    74.2400       278
    74.2600       294
    74.2800       296
    74.3000       294
    74.3200       274
    74.3400       272
    74.3600       258
    74.3800       288
    74.4000       252
    74.4200       274
    74.4400       250
    74.4600       248
    74.4800       226
    74.5000       228
    74.5200       232
    74.5400       234
    74.5600       246
    74.5800       220
    74.6000       208
    74.6200       224
    74.6400       220
    74.6600       210
    74.6800       228
    74.7000       218
    74.7200       210
    74.7400       216
    74.7600       188
    74.7800       206
    74.8000       206
    74.8200       238
    74.8400       222
    74.8600       214
    74.8800       210
    74.9000       226
    74.9200       194
    74.9400       226
    74.9600       218
    74.9800       228
    75.0000       208
    75.0200       232
    75.0400       206
    75.0600       236
    75.0800       202
    75.1000       240
    75.1200       232
    75.1400       202
    75.1600       246
    75.1800       250
    75.2000       220
    75.2200       234
    75.2400       226
    75.2600       222
    75.2800       234
    75.3000       240
    75.3200       236
    75.3400       232
    75.3600       238
    75.3800       252
    75.4000       260
    75.4200       262
    75.4400       240
    75.4600       236
    75.4800       262
    75.5000       264
    75.5200       250
    75.5400       256
    75.5600       264
    75.5800       246
    75.6000       262
    75.6200       266
    75.6400       276
    75.6600       268
    75.6800       250
    75.7000       254
    75.7200       232
    75.7400       256
    75.7600       282
    75.7800       256
    75.8000       228
    75.8200       246
    75.8400       308
    75.8600       266
    75.8800       276
    75.9000       262
    75.9200       256
    75.9400       258
    75.9600       282
    75.9800       266
    76.0000       262
    76.0200       258
    76.0400       280
    76.0600       272
    76.0800       290
    76.1000       278
    76.1200       310
    76.1400       286
    76.1600       260
    76.1800       262
    76.2000       286
    76.2200       304
    76.2400       306
    76.2600       290
    76.2800       320
    76.3000       298
    76.3200       338
    76.3400       370
    76.3600       352
    76.3800       350
    76.4000       332
    76.4200       330
    76.4400       348
    76.4600       368
    76.4800       334
    76.5000       354
    76.5200       330
    76.5400       348
    76.5600       362
    76.5800       400
    76.6000       386
    76.6200       416
    76.6400       410
    76.6600       398
    76.6800       436
    76.7000       396
    76.7200       456
    76.7400       368
    76.7600       420
    76.7800       398
    76.8000       432
    76.8200       424
    76.8400       404
    76.8600       362
    76.8800       418
    76.9000       392
    76.9200       398
    76.9400       378
    76.9600       350
    76.9800       374
    77.0000       410
    77.0200       336
    77.0400       358
    77.0600       386
    77.0800       376
    77.1000       348
    77.1200       376
    77.1400       378
    77.1600       400
    77.1800       410
    77.2000       394
    77.2200       438
    77.2400       404
    77.2600       432
    77.2800       422
    77.3000       458
    77.3200       428
    77.3400       462
    77.3600       484
    77.3800       512
    77.4000       484
    77.4200       562
    77.4400       562
    77.4600       568
    77.4800       574
    77.5000       664
    77.5200       646
    77.5400       678
    77.5600       736
    77.5800       726
    77.6000       702
    77.6200       772
    77.6400       736
    77.6600       728
    77.6800       722
    77.7000       800
    77.7200       700
    77.7400       726
    77.7600       686
    77.7800       626
    77.8000       686
    77.8200       656
    77.8400       700
    77.8600       670
    77.8800       636
    77.9000       590
    77.9200       610
    77.9400       542
    77.9600       536
    77.9800       512
    78.0000       508
    78.0200       500
    78.0400       490
    78.0600       432
    78.0800       434
    78.1000       402
    78.1200       406
    78.1400       412
    78.1600       384
    78.1800       354
    78.2000       402
    78.2200       376
    78.2400       390
    78.2600       404
    78.2800       374
    78.3000       372
    78.3200       384
    78.3400       400
    78.3600       398
    78.3800       350
    78.4000       416
    78.4200       426
    78.4400       394
    78.4600       382
    78.4800       390
    78.5000       402
    78.5200       432
    78.5400       394
    78.5600       386
    78.5800       376
    78.6000       434
    78.6200       416
    78.6400       440
    78.6600       436
    78.6800       454
    78.7000       450
    78.7200       420
    78.7400       414
    78.7600       462
    78.7800       456
    78.8000       428
    78.8200       406
    78.8400       416
    78.8600       420
    78.8800       364
    78.9000       366
    78.9200       402
    78.9400       380
    78.9600       344
    78.9800       370
    79.0000       348
    79.0200       336
    79.0400       330
    79.0600       344
    79.0800       304
    79.1000       342
    79.1200       306
    79.1400       294
    79.1600       290
    79.1800       278
    79.2000       282
    79.2200       280
    79.2400       288
    79.2600       286
    79.2800       266
    79.3000       308
    79.3200       272
    79.3400       254
    79.3600       280
    79.3800       274
    79.4000       268
    79.4200       244
    79.4400       262
    79.4600       278
    79.4800       268
    79.5000       268
    79.5200       282
    79.5400       276
    79.5600       290
    79.5800       254
    79.6000       284
    79.6200       274
    79.6400       314
    79.6600       284
    79.6800       292
    79.7000       246
    79.7200       298
    79.7400       280
    79.7600       308
    79.7800       274
    79.8000       280
    79.8200       258
    79.8400       264
    79.8600       280
    79.8800       284
    79.9000       288
    79.9200       266
    79.9400       286
    79.9600       282
    79.9800       258
    80.0000       216
    80.0200       272
    80.0400       260
    80.0600       274
    80.0800       280
    80.1000       248
    80.1200       276
    80.1400       264
    80.1600       258
    80.1800       252
    80.2000       302
    80.2200       282
    80.2400       260
    80.2600       270
    80.2800       272
    80.3000       278
    80.3200       280
    80.3400       294
    80.3600       288
    80.3800       264
    80.4000       280
    80.4200       290
    80.4400       250
    80.4600       282
    80.4800       266
    80.5000       268
    80.5200       288
    80.5400       284
    80.5600       256
    80.5800       272
    80.6000       284
    80.6200       294
    80.6400       244
    80.6600       248
    80.6800       258
    80.7000       222
    80.7200       248
    80.7400       244
    80.7600       258
    80.7800       260
    80.8000       256
    80.8200       248
    80.8400       256
    80.8600       262
    80.8800       242
    80.9000       264
    80.9200       246
    80.9400       216
    80.9600       244
    80.9800       252
    81.0000       228
    81.0200       250
    81.0400       236
    81.0600       242
    81.0800       252
    81.1000       258
    81.1200       268
    81.1400       252
    81.1600       224
    81.1800       238
    81.2000       236
    81.2200       270
    81.2400       276
    81.2600       284
    81.2800       304
    81.3000       290
    81.3200       282
    81.3400       294
    81.3600       264
    81.3800       292
    81.4000       314
    81.4200       272
    81.4400       274
    81.4600       314
    81.4800       282
    81.5000       308
    81.5200       246
    81.5400       282
    81.5600       310
    81.5800       274
    81.6000       258
    81.6200       256
    81.6400       286
    81.6600       270
    81.6800       290
    81.7000       276
    81.7200       300
    81.7400       312
    81.7600       302
    81.7800       312
    81.8000       316
    81.8200       312
    81.8400       316
    81.8600       322
    81.8800       306
    81.9000       346
    81.9200       320
    81.9400       326
    81.9600       286
    81.9800       344
    82.0000       308
    82.0200       314
    82.0400       334
    82.0600       322
    82.0800       332
    82.1000       342
    82.1200       330
    82.1400       366
    82.1600       400
    82.1800       422
    82.2000       358
    82.2200       376
    82.2400       408
    82.2600       394
    82.2800       380
    82.3000       400
    82.3200       362
    82.3400       428
    82.3600       440
    82.3800       452
    82.4000       416
    82.4200       430
    82.4400       460
    82.4600       414
    82.4800       442
    82.5000       426
    82.5200       442
    82.5400       470
    82.5600       470
    82.5800       512
    82.6000       512
    82.6200       502
    82.6400       472
    82.6600       548
    82.6800       578
    82.7000       574
    82.7200       580
    82.7400       550
    82.7600       646
    82.7800       610
    82.8000       654
    82.8200       668
    82.8400       658
    82.8600       692
    82.8800       684
    82.9000       692
    82.9200       688
    82.9400       690
    82.9600       750
    82.9800       738
    83.0000       670
    83.0200       714
    83.0400       722
    83.0600       682
    83.0800       686
    83.1000       686
    83.1200       664
    83.1400       654
    83.1600       632
    83.1800       638
    83.2000       618
    83.2200       586
    83.2400       590
    83.2600       566
    83.2800       556
    83.3000       534
    83.3200       558
    83.3400       540
    83.3600       512
    83.3800       506
    83.4000       508
    83.4200       464
    83.4400       424
    83.4600       448
    83.4800       456
    83.5000       422
    83.5200       418
    83.5400       464
    83.5600       358
    83.5800       400
    83.6000       380
    83.6200       386
    83.6400       328
    83.6600       378
    83.6800       352
    83.7000       342
    83.7200       376
    83.7400       324
    83.7600       350
    83.7800       336
    83.8000       354
    83.8200       324
    83.8400       374
    83.8600       326
    83.8800       332
    83.9000       324
    83.9200       316
    83.9400       306
    83.9600       356
    83.9800       330
    84.0000       324
    84.0200       336
    84.0400       334
    84.0600       276
    84.0800       334
    84.1000       356
    84.1200       308
    84.1400       322
    84.1600       316
    84.1800       302
    84.2000       336
    84.2200       322
    84.2400       314
    84.2600       284
    84.2800       300
    84.3000       290
    84.3200       306
    84.3400       300
    84.3600       286
    84.3800       302
    84.4000       304
    84.4200       302
    84.4400       300
    84.4600       276
    84.4800       330
    84.5000       332
    84.5200       294
    84.5400       282
    84.5600       272
    84.5800       330
    84.6000       256
    84.6200       276
    84.6400       296
    84.6600       280
    84.6800       294
    84.7000       280
    84.7200       284
    84.7400       292
    84.7600       298
    84.7800       270
    84.8000       310
    84.8200       288
    84.8400       280
    84.8600       264
    84.8800       282
    84.9000       322
    84.9200       300
    84.9400       282
    84.9600       246
    84.9800       258
    85.0000       266
    85.0200       280
    85.0400       260
    85.0600       262
    85.0800       272
    85.1000       260
    85.1200       278
    85.1400       256
    85.1600       260
    85.1800       284
    85.2000       294
    85.2200       274
    85.2400       304
    85.2600       316
    85.2800       280
    85.3000       284
    85.3200       292
    85.3400       296
    85.3600       296
    85.3800       276
    85.4000       298
    85.4200       268
    85.4400       292
    85.4600       296
    85.4800       302
    85.5000       310
    85.5200       310
    85.5400       298
    85.5600       282
    85.5800       338
    85.6000       300
    85.6200       286
    85.6400       300
    85.6600       266
    85.6800       286
    85.7000       270
    85.7200       300
    85.7400       290
    85.7600       284
    85.7800       262
    85.8000       258
    85.8200       306
    85.8400       280
    85.8600       290
    85.8800       262
    85.9000       258
    85.9200       252
    85.9400       270
    85.9600       268
    85.9800       240
    86.0000       266
    86.0200       234
    86.0400       206
    86.0600       260
    86.0800       238
    86.1000       264
    86.1200       256
    86.1400       244
    86.1600       272
    86.1800       210
    86.2000       234
    86.2200       228
    86.2400       244
    86.2600       224
    86.2800       228
    86.3000       246
    86.3200       244
    86.3400       258
    86.3600       252
    86.3800       246
    86.4000       216
    86.4200       250
    86.4400       236
    86.4600       232
    86.4800       240
    86.5000       268
    86.5200       292
    86.5400       266
    86.5600       266
    86.5800       282
    86.6000       328
    86.6200       272
    86.6400       286
    86.6600       290
    86.6800       298
    86.7000       298
    86.7200       310
    86.7400       320
    86.7600       324
    86.7800       344
    86.8000       326
    86.8200       322
    86.8400       368
    86.8600       348
    86.8800       348
    86.9000       352
    86.9200       354
    86.9400       384
    86.9600       360
    86.9800       382
    87.0000       366
    87.0200       382
    87.0400       376
    87.0600       376
    87.0800       388
    87.1000       350
    87.1200       358
    87.1400       362
    87.1600       378
    87.1800       338
    87.2000       354
    87.2200       354
    87.2400       364
    87.2600       362
    87.2800       346
    87.3000       336
    87.3200       322
    87.3400       348
    87.3600       334
    87.3800       306
    87.4000       336
    87.4200       320
    87.4400       318
    87.4600       354
    87.4800       322
    87.5000       328
    87.5200       286
    87.5400       348
    87.5600       322
    87.5800       350
    87.6000       358
    87.6200       328
    87.6400       372
    87.6600       366
    87.6800       416
    87.7000       384
    87.7200       388
    87.7400       376
    87.7600       388
    87.7800       404
    87.8000       410
    87.8200       414
    87.8400       396
    87.8600       400
    87.8800       414
    87.9000       428
    87.9200       410
    87.9400       418
    87.9600       408
    87.9800       442
    88.0000       430
    88.0200       418
    88.0400       402
    88.0600       432
    88.0800       430
    88.1000       416
    88.1200       388
    88.1400       382
    88.1600       458
    88.1800       422
    88.2000       406
    88.2200       418
    88.2400       390
    88.2600       356
    88.2800       378
    88.3000       422
    88.3200       352
    88.3400       400
    88.3600       382
    88.3800       380
    88.4000       380
    88.4200       376
    88.4400       360
    88.4600       348
    88.4800       358
    88.5000       348
    88.5200       346
    88.5400       356
    88.5600       352
    88.5800       328
    88.6000       358
    88.6200       352
    88.6400       320
    88.6600       332
    88.6800       310
    88.7000       308
    88.7200       330
    88.7400       334
    88.7600       324
    88.7800       310
    88.8000       294
    88.8200       308
    88.8400       294
    88.8600       286
    88.8800       310
    88.9000       282
    88.9200       294
    88.9400       264
    88.9600       288
    88.9800       306
    89.0000       288
    89.0200       250
    89.0400       280
    89.0600       282
    89.0800       264
    89.1000       288
    89.1200       268
    89.1400       268
    89.1600       262
    89.1800       270
    89.2000       274
    89.2200       276
    89.2400       250
    89.2600       270
    89.2800       264
    89.3000       276
    89.3200       302
    89.3400       284
    89.3600       282
    89.3800       268
    89.4000       262
    89.4200       288
    89.4400       282
    89.4600       242
    89.4800       300
    89.5000       318
    89.5200       280
    89.5400       306
    89.5600       294
    89.5800       292
    89.6000       326
    89.6200       304
    89.6400       298
    89.6600       290
    89.6800       282
    89.7000       292
    89.7200       294
    89.7400       320
    89.7600       298
    89.7800       302
    89.8000       298
    89.8200       286
    89.8400       312
    89.8600       346
    89.8800       308
    89.9000       302
    89.9200       320
    89.9400       340
    89.9600       278
    89.9800       290
    90.0000       312
