    10.0000       362
    10.0200       402
    10.0400       394
    10.0600       416
    10.0800       422
    10.1000       410
    10.1200       372
    10.1400       380
    10.1600       414
    10.1800       396
    10.2000       368
    10.2200       384
    10.2400       350
    10.2600       352
    10.2800       388
    10.3000       346
    10.3200       344
    10.3400       382
    10.3600       380
    10.3800       364
    10.4000       318
    10.4200       352
    10.4400       374
    10.4600       352
    10.4800       340
    10.5000       356
    10.5200       328
    10.5400       382
    10.5600       346
    10.5800       358
    10.6000       308
    10.6200       338
    10.6400       314
    10.6600       322
    10.6800       346
    10.7000       368
    10.7200       354
    10.7400       330
    10.7600       372
    10.7800       308
    10.8000       332
    10.8200       400
    10.8400       320
    10.8600       342
    10.8800       350
    10.9000       356
    10.9200       358
    10.9400       344
    10.9600       362
    10.9800       328
    11.0000       348
    11.0200       368
    11.0400       314
    11.0600       362
    11.0800       356
    11.1000       374
    11.1200       332
    11.1400       356
    11.1600       340
    11.1800       352
    11.2000       346
    11.2200       352
    11.2400       338
    11.2600       334
    11.2800       338
    11.3000       306
    11.3200       338
    11.3400       324
    11.3600       334
    11.3800       336
    11.4000       318
    11.4200       308
    11.4400       344
    11.4600       332
    11.4800       326
    11.5000       348
    11.5200       322
    11.5400       340
    11.5600       302
    11.5800       334
    11.6000       332
    11.6200       336
    11.6400       344
    11.6600       344
    11.6800       328
    11.7000       340
    11.7200       338
    11.7400       336
    11.7600       342
    11.7800       334
    11.8000       330
    11.8200       312
    11.8400       350
    11.8600       376
    11.8800       376
    11.9000       382
    11.9200       354
    11.9400       356
    11.9600       404
    11.9800       402
    12.0000       416
    12.0200       442
    12.0400       412
    12.0600       420
    12.0800       440
    12.1000       440
    12.1200       492
    12.1400       472
    12.1600       526
    12.1800       534
    12.2000       532
    12.2200       572
    12.2400       502
    12.2600       488
    12.2800       444
    12.3000       458
    12.3200       432
    12.3400       346
    12.3600       336
    12.3800       356
    12.4000       318
    12.4200       336
    12.4400       354
    12.4600       288
    12.4800       328
    12.5000       318
    12.5200       270
    12.5400       320
    12.5600       302
    12.5800       332
    12.6000       302
    12.6200       312
    12.6400       320
    12.6600       308
    12.6800       300
    12.7000       318
    12.7200       304
    12.7400       314
    12.7600       296
    12.7800       292
    12.8000       284
    12.8200       314
    12.8400       270
    12.8600       260
    12.8800       288
    12.9000       294
    12.9200       296
    12.9400       302
    12.9600       270
    12.9800       252
    13.0000       288
    13.0200       296
    13.0400       306
    13.0600       314
    13.0800       274
    13.1000       302
    13.1200       298
    13.1400       276
    13.1600       300
    13.1800       276
    13.2000       282
    13.2200       282
    13.2400       276
    13.2600       280
    13.2800       266
    13.3000       286
    13.3200       280
    13.3400       290
    13.3600       252
    13.3800       274
    13.4000       302
    13.4200       306
    13.4400       266
    13.4600       270
    13.4800       284
    13.5000       286
    13.5200       266
    13.5400       280
    13.5600       290
    13.5800       270
    13.6000       270
    13.6200       316
    13.6400       284
    13.6600       288
    13.6800       288
    13.7000       326
    13.7200       300
    13.7400       250
    13.7600       260
    13.7800       266
    13.8000       308
    13.8200       260
    13.8400       276
    13.8600       262
    13.8800       278
    13.9000       266
    13.9200       284
    13.9400       264
    13.9600       292
    13.9800       272
    14.0000       290
    14.0200       276
    14.0400       292
    14.0600       246
    14.0800       266
    14.1000       272
    14.1200       272
    14.1400       274
    14.1600       240
    14.1800       272
    14.2000       242
    14.2200       290
    14.2400       306
    14.2600       258
    14.2800       276
    14.3000       280
    14.3200       256
    14.3400       260
    14.3600       268
    14.3800       294
    14.4000       292
    14.4200       264
    14.4400       290
    14.4600       290
    14.4800       260
    14.5000       280
    14.5200       274
    14.5400       322
    14.5600       310
    14.5800       270
    14.6000       274
    14.6200       272
    14.6400       306
    14.6600       286
    14.6800       300
    14.7000       276
    14.7200       310
    14.7400       326
    14.7600       322
    14.7800       362
    14.8000       354
    14.8200       388
    14.8400       340
    14.8600       418
    14.8800       384
    14.9000       380
    14.9200       422
    14.9400       446
    14.9600       484
    14.9800       482
    15.0000       516
    15.0200       574
    15.0400       610
    15.0600       612
    15.0800       668
    15.1000       652
    15.1200       738
    15.1400       834
    15.1600       848
    15.1800       860
    15.2000       936
    15.2200       878
    15.2400       848
    15.2600       772
    15.2800       642
    15.3000       540
    15.3200       542
    15.3400       472
    15.3600       416
    15.3800       424
    15.4000       394
    15.4200       352
    15.4400       332
    15.4600       328
    15.4800       300
    15.5000       322
    15.5200       300
    15.5400       314
    15.5600       314
    15.5800       254
    15.6000       262
    15.6200       282
    15.6400       290
    15.6600       262
    15.6800       264
    15.7000       270
    15.7200       256
    15.7400       250
    15.7600       252
    15.7800       278
    15.8000       312
    15.8200       272
    15.8400       302
    15.8600       276
    15.8800       282
    15.9000       240
    15.9200       256
    15.9400       286
    15.9600       280
    15.9800       286
    16.0000       296
    16.0200       278
    16.0400       272
    16.0600       308
    16.0800       276
    16.1000       272
    16.1200       292
    16.1400       302
    16.1600       302
    16.1800       274
    16.2000       316
    16.2200       312
    16.2400       292
    16.2600       296
    16.2800       316
    16.3000       282
    16.3200       338
    16.3400       306
    16.3600       292
    16.3800       324
    16.4000       290
    16.4200       332
    16.4400       326
    16.4600       308
    16.4800       292
    16.5000       284
    16.5200       318
    16.5400       322
    16.5600       338
    16.5800       334
    16.6000       340
    16.6200       314
    16.6400       340
    16.6600       342
    16.6800       394
    16.7000       392
    16.7200       398
    16.7400       426
    16.7600       452
    16.7800       476
    16.8000       540
    16.8200       580
    16.8400       608
    16.8600       664
    16.8800       714
    16.9000       716
    16.9200       794
    16.9400       918
    16.9600      1056
    16.9800      1106
    17.0000      1312
    17.0200      1296
    17.0400      1330
    17.0600      1270
    17.0800      1224
    17.1000      1082
    17.1200       960
    17.1400       854
    17.1600       742
    17.1800       764
    17.2000       678
    17.2200       648
    17.2400       670
    17.2600       590
    17.2800       568
    17.3000       590
    17.3200       596
    17.3400       520
    17.3600       492
    17.3800       524
    17.4000       446
    17.4200       478
    17.4400       426
    17.4600       424
    17.4800       364
    17.5000       366
    17.5200       388
    17.5400       346
    17.5600       370
    17.5800       392
    17.6000       374
    17.6200       358
    17.6400       348
    17.6600       384
    17.6800       444
    17.7000       432
    17.7200       476
    17.7400       444
    17.7600       464
    17.7800       486
    17.8000       514
    17.8200       506
    17.8400       494
    17.8600       562
    17.8800       484
    17.9000       452
    17.9200       462
    17.9400       376
    17.9600       350
    17.9800       318
    18.0000       322
    18.0200       272
    18.0400       296
    18.0600       246
    18.0800       286
    18.1000       230
    18.1200       282
    18.1400       252
    18.1600       248
    18.1800       252
    18.2000       232
    18.2200       250
    18.2400       260
    18.2600       230
    18.2800       246
    18.3000       254
    18.3200       228
    18.3400       256
    18.3600       260
    18.3800       244
    18.4000       258
    18.4200       220
    18.4400       238
    18.4600       232
    18.4800       214
    18.5000       232
    18.5200       244
    18.5400       230
    18.5600       232
    18.5800       230
    18.6000       236
    18.6200       254
    18.6400       236
    18.6600       232
    18.6800       252
    18.7000       238
    18.7200       238
    18.7400       244
    18.7600       256
    18.7800       222
    18.8000       248
    18.8200       254
    18.8400       226
    18.8600       280
    18.8800       262
    18.9000       300
    18.9200       256
    18.9400       296
    18.9600       286
    18.9800       278
    19.0000       308
    19.0200       308
    19.0400       360
    19.0600       340
    19.0800       366
    19.1000       358
    19.1200       394
    19.1400       378
    19.1600       474
    19.1800       516
    19.2000       558
    19.2200       600
    19.2400       652
    19.2600       738
    19.2800       802
    19.3000       882
    19.3200       978
    19.3400      1094
    19.3600      1232
    19.3800      1470
    19.4000      1610
    19.4200      1728
    19.4400      2156
    19.4600      2332
    19.4800      2712
    19.5000      3050
    19.5200      3338
    19.5400      3466
    19.5600      3340
    19.5800      2892
    19.6000      2622
    19.6200      2162
    19.6400      1784
    19.6600      1458
    19.6800      1330
    19.7000      1214
    19.7200      1190
    19.7400      1168
    19.7600      1224
    19.7800      1228
    19.8000      1314
    19.8200      1382
    19.8400      1470
    19.8600      1650
    19.8800      1844
    19.9000      2056
    19.9200      2264
    19.9400      2430
    19.9600      2556
    19.9800      2482
    20.0000      2514
    20.0200      2298
    20.0400      2024
    20.0600      1860
    20.0800      1458
    20.1000      1190
    20.1200      1014
    20.1400       858
    20.1600       696
    20.1800       650
    20.2000       622
    20.2200       576
    20.2400       544
    20.2600       522
    20.2800       546
    20.3000       492
    20.3200       490
    20.3400       472
    20.3600       458
    20.3800       408
    20.4000       362
    20.4200       376
    20.4400       340
    20.4600       334
    20.4800       328
    20.5000       328
    20.5200       304
    20.5400       292
    20.5600       278
    20.5800       266
    20.6000       330
    20.6200       268
    20.6400       278
    20.6600       270
    20.6800       270
    20.7000       300
    20.7200       284
    20.7400       302
    20.7600       328
    20.7800       304
    20.8000       312
    20.8200       364
    20.8400       312
    20.8600       338
    20.8800       298
    20.9000       344
    20.9200       390
    20.9400       446
    20.9600       468
    20.9800       534
    21.0000       516
    21.0200       612
    21.0400       588
    21.0600       666
    21.0800       772
    21.1000       826
    21.1200       912
    21.1400      1004
    21.1600       996
    21.1800      1092
    21.2000      1130
    21.2200      1118
    21.2400      1130
    21.2600      1070
    21.2800      1028
    21.3000       918
    21.3200       864
    21.3400       738
    21.3600       640
    21.3800       564
    21.4000       502
    21.4200       464
    21.4400       410
    21.4600       374
    21.4800       334
    21.5000       316
    21.5200       296
    21.5400       324
    21.5600       296
    21.5800       254
    21.6000       272
    21.6200       258
    21.6400       264
    21.6600       248
    21.6800       272
    21.7000       252
    21.7200       254
    21.7400       244
    21.7600       260
    21.7800       252
    21.8000       234
    21.8200       216
    21.8400       210
    21.8600       240
    21.8800       234
    21.9000       236
    21.9200       196
    21.9400       242
    21.9600       236
    21.9800       216
    22.0000       258
    22.0200       254
    22.0400       232
    22.0600       266
    22.0800       250
    22.1000       250
    22.1200       248
    22.1400       246
    22.1600       274
    22.1800       264
    22.2000       270
    22.2200       294
    22.2400       254
    22.2600       304
    22.2800       272
    22.3000       332
    22.3200       340
    22.3400       318
    22.3600       336
    22.3800       406
    22.4000       386
    22.4200       422
    22.4400       444
    22.4600       466
    22.4800       522
    22.5000       544
    22.5200       656
    22.5400       712
    22.5600       770
    22.5800       854
    22.6000      1056
    22.6200      1080
    22.6400      1236
    22.6600      1520
    22.6800      1654
    22.7000      1932
    22.7200      2326
    22.7400      2618
    22.7600      3094
    22.7800      3406
    22.8000      3920
    22.8200      4434
    22.8400      4626
    22.8600      4670
    22.8800      4564
    22.9000      4076
    22.9200      3424
    22.9400      3088
    22.9600      2444
    22.9800      1998
    23.0000      1600
    23.0200      1356
    23.0400      1076
    23.0600      1016
    23.0800       886
    23.1000       854
    23.1200       744
    23.1400       678
    23.1600       666
    23.1800       584
    23.2000       536
    23.2200       538
    23.2400       514
    23.2600       454
    23.2800       440
    23.3000       378
    23.3200       394
    23.3400       342
    23.3600       346
    23.3800       350
    23.4000       306
    23.4200       316
    23.4400       302
    23.4600       270
    23.4800       308
    23.5000       298
    23.5200       320
    23.5400       298
    23.5600       272
    23.5800       262
    23.6000       272
    23.6200       274
    23.6400       282
    23.6600       298
    23.6800       252
    23.7000       262
    23.7200       244
    23.7400       296
    23.7600       304
    23.7800       246
    23.8000       252
    23.8200       244
    23.8400       306
    23.8600       296
    23.8800       310
    23.9000       296
    23.9200       260
    23.9400       314
    23.9600       276
    23.9800       314
    24.0000       290
    24.0200       314
    24.0400       322
    24.0600       306
    24.0800       314
    24.1000       314
    24.1200       368
    24.1400       332
    24.1600       316
    24.1800       364
    24.2000       380
    24.2200       394
    24.2400       392
    24.2600       484
    24.2800       486
    24.3000       522
    24.3200       608
    24.3400       632
    24.3600       674
    24.3800       760
    24.4000       844
    24.4200       840
    24.4400       936
    24.4600       948
    24.4800      1028
    24.5000      1038
    24.5200      1040
    24.5400      1044
    24.5600      1020
    24.5800       880
    24.6000       910
    24.6200       836
    24.6400       832
    24.6600       752
    24.6800       738
    24.7000       688
    24.7200       622
    24.7400       638
    24.7600       592
    24.7800       572
    24.8000       518
    24.8200       516
    24.8400       442
    24.8600       484
    24.8800       428
    24.9000       462
    24.9200       394
    24.9400       416
    24.9600       380
    24.9800       402
    25.0000       400
    25.0200       418
    25.0400       398
    25.0600       416
    25.0800       416
    25.1000       400
    25.1200       444
    25.1400       464
    25.1600       450
    25.1800       480
    25.2000       526
    25.2200       596
    25.2400       602
    25.2600       714
    25.2800       740
    25.3000       778
    25.3200       928
    25.3400       876
    25.3600       886
    25.3800       932
    25.4000       920
    25.4200       864
    25.4400       844
    25.4600       878
    25.4800       942
    25.5000       948
    25.5200       936
    25.5400       986
    25.5600      1094
    25.5800      1118
    25.6000      1106
    25.6200      1110
    25.6400      1034
    25.6600       940
    25.6800       808
    25.7000       742
    25.7200       614
    25.7400       576
    25.7600       500
    25.7800       508
    25.8000       456
    25.8200       424
    25.8400       430
    25.8600       406
    25.8800       356
    25.9000       340
    25.9200       322
    25.9400       336
    25.9600       282
    25.9800       314
    26.0000       318
    26.0200       338
    26.0400       308
    26.0600       302
    26.0800       306
    26.1000       294
    26.1200       320
    26.1400       320
    26.1600       324
    26.1800       338
    26.2000       314
    26.2200       336
    26.2400       382
    26.2600       420
    26.2800       418
    26.3000       448
    26.3200       418
    26.3400       470
    26.3600       474
    26.3800       546
    26.4000       526
    26.4200       526
    26.4400       476
    26.4600       516
    26.4800       528
    26.5000       542
    26.5200       556
    26.5400       538
    26.5600       550
    26.5800       590
    26.6000       592
    26.6200       610
    26.6400       604
    26.6600       536
    26.6800       566
    26.7000       564
    26.7200       554
    26.7400       546
    26.7600       490
    26.7800       414
    26.8000       446
    26.8200       392
    26.8400       414
    26.8600       380
    26.8800       368
    26.9000       364
    26.9200       322
    26.9400       328
    26.9600       326
    26.9800       294
    27.0000       344
    27.0200       342
    27.0400       352
    27.0600       318
    27.0800       348
    27.1000       366
    27.1200       376
    27.1400       358
    27.1600       382
    27.1800       368
    27.2000       410
    27.2200       386
    27.2400       418
    27.2600       434
    27.2800       464
    27.3000       476
    27.3200       516
    27.3400       586
    27.3600       572
    27.3800       642
    27.4000       632
    27.4200       726
    27.4400       700
    27.4600       746
    27.4800       778
    27.5000       706
    27.5200       714
    27.5400       776
    27.5600       686
    27.5800       648
    27.6000       612
    27.6200       548
    27.6400       576
    27.6600       538
    27.6800       508
    27.7000       460
    27.7200       450
    27.7400       402
    27.7600       400
    27.7800       350
    27.8000       372
    27.8200       342
    27.8400       324
    27.8600       318
    27.8800       330
    27.9000       294
    27.9200       310
    27.9400       308
    27.9600       314
    27.9800       304
    28.0000       296
    28.0200       270
    28.0400       270
    28.0600       284
    28.0800       290
    28.1000       260
    28.1200       276
    28.1400       262
    28.1600       272
    28.1800       282
    28.2000       236
    28.2200       260
    28.2400       282
    28.2600       280
    28.2800       230
    28.3000       244
    28.3200       256
    28.3400       238
    28.3600       274
    28.3800       276
    28.4000       284
    28.4200       282
    28.4400       288
    28.4600       250
    28.4800       290
    28.5000       288
    28.5200       304
    28.5400       266
    28.5600       292
    28.5800       324
    28.6000       300
    28.6200       288
    28.6400       342
    28.6600       318
    28.6800       314
    28.7000       344
    28.7200       374
    28.7400       360
    28.7600       344
    28.7800       290
    28.8000       278
    28.8200       322
    28.8400       300
    28.8600       286
    28.8800       310
    28.9000       276
    28.9200       260
    28.9400       276
    28.9600       282
    28.9800       264
    29.0000       290
    29.0200       258
    29.0400       304
    29.0600       288
    29.0800       290
    29.1000       290
    29.1200       288
    29.1400       304
    29.1600       266
    29.1800       282
    29.2000       290
    29.2200       324
    29.2400       324
    29.2600       380
    29.2800       336
    29.3000       346
    29.3200       358
    29.3400       390
    29.3600       384
    29.3800       372
    29.4000       380
    29.4200       396
    29.4400       458
    29.4600       448
    29.4800       490
    29.5000       522
    29.5200       504
    29.5400       556
    29.5600       606
    29.5800       652
    29.6000       632
    29.6200       702
    29.6400       724
    29.6600       786
    29.6800       736
    29.7000       848
    29.7200       830
    29.7400       764
    29.7600       762
    29.7800       712
    29.8000       678
    29.8200       694
    29.8400       634
    29.8600       598
    29.8800       552
    29.9000       590
    29.9200       612
    29.9400       622
    29.9600       688
    29.9800       694
    30.0000       710
    30.0200       770
    30.0400       878
    30.0600       940
    30.0800      1014
    30.1000      1030
    30.1200      1122
    30.1400      1234
    30.1600      1330
    30.1800      1350
    30.2000      1416
    30.2200      1400
    30.2400      1450
    30.2600      1500
    30.2800      1440
    30.3000      1506
    30.3200      1430
    30.3400      1450
    30.3600      1360
    30.3800      1414
    30.4000      1364
    30.4200      1402
    30.4400      1434
    30.4600      1508
    30.4800      1654
    30.5000      1658
    30.5200      1878
    30.5400      1980
    30.5600      2120
    30.5800      2348
    30.6000      2610
    30.6200      2850
    30.6400      2970
    30.6600      3204
    30.6800      3310
    30.7000      3520
    30.7200      3468
    30.7400      3268
    30.7600      3038
    30.7800      2752
    30.8000      2478
    30.8200      2194
    30.8400      1894
    30.8600      1672
    30.8800      1430
    30.9000      1262
    30.9200      1154
    30.9400       944
    30.9600       880
    30.9800       820
    31.0000       782
    31.0200       644
    31.0400       616
    31.0600       646
    31.0800       562
    31.1000       542
    31.1200       518
    31.1400       498
    31.1600       494
    31.1800       448
    31.2000       428
    31.2200       416
    31.2400       410
    31.2600       420
    31.2800       406
    31.3000       364
    31.3200       450
    31.3400       412
    31.3600       390
    31.3800       410
    31.4000       396
    31.4200       390
    31.4400       442
    31.4600       430
    31.4800       386
    31.5000       450
    31.5200       474
    31.5400       418
    31.5600       484
    31.5800       490
    31.6000       486
    31.6200       518
    31.6400       588
    31.6600       632
    31.6800       592
    31.7000       682
    31.7200       756
    31.7400       818
    31.7600       864
    31.7800       950
    31.8000      1040
    31.8200      1172
    31.8400      1300
    31.8600      1414
    31.8800      1570
    31.9000      1864
    31.9200      1982
    31.9400      2236
    31.9600      2342
    31.9800      2478
    32.0000      2478
    32.0200      2428
    32.0400      2352
    32.0600      2160
    32.0800      1996
    32.1000      1912
    32.1200      1792
    32.1400      1606
    32.1600      1542
    32.1800      1534
    32.2000      1586
    32.2200      1618
    32.2400      1716
    32.2600      1886
    32.2800      1986
    32.3000      2152
    32.3200      2400
    32.3400      2720
    32.3600      3034
    32.3800      3536
    32.4000      3846
    32.4200      4468
    32.4400      5082
    32.4600      5800
    32.4800      6496
    32.5000      6770
    32.5200      7374
    32.5400      7738
    32.5600      7714
    32.5800      7792
    32.6000      7214
    32.6200      6526
    32.6400      5926
    32.6600      5140
    32.6800      4488
    32.7000      3850
    32.7200      3400
    32.7400      2854
    32.7600      2546
    32.7800      2286
    32.8000      2042
    32.8200      1812
    32.8400      1676
    32.8600      1532
    32.8800      1512
    32.9000      1414
    32.9200      1456
    32.9400      1410
    32.9600      1438
    32.9800      1496
    33.0000      1510
    33.0200      1578
    33.0400      1586
    33.0600      1762
    33.0800      1626
    33.1000      1638
    33.1200      1626
    33.1400      1574
    33.1600      1320
    33.1800      1228
    33.2000      1118
    33.2200      1024
    33.2400       848
    33.2600       732
    33.2800       686
    33.3000       610
    33.3200       586
    33.3400       532
    33.3600       526
    33.3800       466
    33.4000       408
    33.4200       434
    33.4400       360
    33.4600       374
    33.4800       364
    33.5000       338
    33.5200       348
    33.5400       330
    33.5600       312
    33.5800       292
    33.6000       316
    33.6200       286
    33.6400       294
    33.6600       284
    33.6800       278
    33.7000       304
    33.7200       282
    33.7400       286
    33.7600       286
    33.7800       282
    33.8000       254
    33.8200       302
    33.8400       258
    33.8600       284
    33.8800       282
    33.9000       294
    33.9200       276
    33.9400       288
    33.9600       248
    33.9800       286
    34.0000       304
    34.0200       282
    34.0400       264
    34.0600       280
    34.0800       266
    34.1000       298
    34.1200       280
    34.1400       278
    34.1600       266
    34.1800       278
    34.2000       258
    34.2200       290
    34.2400       294
    34.2600       308
    34.2800       324
    34.3000       326
    34.3200       308
    34.3400       362
    34.3600       332
    34.3800       362
    34.4000       442
    34.4200       460
    34.4400       424
    34.4600       430
    34.4800       470
    34.5000       448
    34.5200       420
    34.5400       398
    34.5600       420
    34.5800       410
    34.6000       380
    34.6200       384
    34.6400       344
    34.6600       330
    34.6800       332
    34.7000       350
    34.7200       350
    34.7400       314
    34.7600       326
    34.7800       282
    34.8000       310
    34.8200       304
    34.8400       316
    34.8600       304
    34.8800       290
    34.9000       318
    34.9200       312
    34.9400       290
    34.9600       300
    34.9800       300
    35.0000       288
    35.0200       268
    35.0400       262
    35.0600       286
    35.0800       318
    35.1000       318
    35.1200       278
    35.1400       272
    35.1600       252
    35.1800       274
    35.2000       268
    35.2200       302
    35.2400       250
    35.2600       272
    35.2800       282
    35.3000       290
    35.3200       268
    35.3400       312
    35.3600       296
    35.3800       266
    35.4000       300
    35.4200       264
    35.4400       330
    35.4600       304
    35.4800       302
    35.5000       272
    35.5200       290
    35.5400       314
    35.5600       298
    35.5800       312
    35.6000       304
    35.6200       324
    35.6400       306
    35.6600       334
    35.6800       304
    35.7000       350
    35.7200       330
    35.7400       372
    35.7600       400
    35.7800       362
    35.8000       402
    35.8200       404
    35.8400       424
    35.8600       400
    35.8800       458
    35.9000       448
    35.9200       506
    35.9400       470
    35.9600       536
    35.9800       584
    36.0000       616
    36.0200       646
    36.0400       722
    36.0600       760
    36.0800       752
    36.1000       820
    36.1200       944
    36.1400       894
    36.1600       910
    36.1800       888
    36.2000       874
    36.2200       760
    36.2400       754
    36.2600       714
    36.2800       694
    36.3000       576
    36.3200       576
    36.3400       588
    36.3600       518
    36.3800       544
    36.4000       486
    36.4200       504
    36.4400       476
    36.4600       504
    36.4800       492
    36.5000       502
    36.5200       514
    36.5400       548
    36.5600       536
    36.5800       610
    36.6000       618
    36.6200       616
    36.6400       724
    36.6600       818
    36.6800       810
    36.7000       946
    36.7200       982
    36.7400      1134
    36.7600      1218
    36.7800      1422
    36.8000      1580
    36.8200      1750
    36.8400      1864
    36.8600      1898
    36.8800      1940
    36.9000      2066
    36.9200      1904
    36.9400      1828
    36.9600      1794
    36.9800      1634
    37.0000      1478
    37.0200      1378
    37.0400      1298
    37.0600      1136
    37.0800       994
    37.1000      1002
    37.1200       930
    37.1400       886
    37.1600       884
    37.1800       860
    37.2000       826
    37.2200       780
    37.2400       668
    37.2600       714
    37.2800       696
    37.3000       690
    37.3200       668
    37.3400       608
    37.3600       604
    37.3800       604
    37.4000       582
    37.4200       592
    37.4400       546
    37.4600       558
    37.4800       538
    37.5000       600
    37.5200       590
    37.5400       564
    37.5600       534
    37.5800       570
    37.6000       570
    37.6200       618
    37.6400       606
    37.6600       646
    37.6800       634
    37.7000       688
    37.7200       686
    37.7400       706
    37.7600       764
    37.7800       856
    37.8000       910
    37.8200       960
    37.8400       996
    37.8600      1102
    37.8800      1274
    37.9000      1340
    37.9200      1604
    37.9400      1790
    37.9600      1882
    37.9800      2054
    38.0000      2160
    38.0200      2218
    38.0400      2128
    38.0600      2144
    38.0800      2056
    38.1000      2108
    38.1200      1914
    38.1400      1818
    38.1600      1794
    38.1800      1824
    38.2000      1730
    38.2200      1730
    38.2400      1774
    38.2600      1872
    38.2800      2072
    38.3000      2172
    38.3200      2410
    38.3400      2538
    38.3600      2906
    38.3800      3302
    38.4000      3440
    38.4200      3620
    38.4400      4122
    38.4600      4328
    38.4800      4658
    38.5000      4606
    38.5200      4874
    38.5400      4930
    38.5600      4836
    38.5800      5000
    38.6000      4906
    38.6200      4926
    38.6400      4806
    38.6600      4956
    38.6800      4936
    38.7000      4736
    38.7200      4770
    38.7400      4588
    38.7600      4406
    38.7800      4104
    38.8000      3726
    38.8200      3416
    38.8400      3146
    38.8600      2860
    38.8800      2474
    38.9000      2208
    38.9200      2024
    38.9400      1818
    38.9600      1576
    38.9800      1456
    39.0000      1390
    39.0200      1348
    39.0400      1260
    39.0600      1204
    39.0800      1154
    39.1000      1068
    39.1200      1112
    39.1400      1050
    39.1600      1002
    39.1800      1020
    39.2000       954
    39.2200      1004
    39.2400       984
    39.2600      1016
    39.2800       970
    39.3000       982
    39.3200      1046
    39.3400      1060
    39.3600      1038
    39.3800      1092
    39.4000      1182
    39.4200      1136
    39.4400      1282
    39.4600      1274
    39.4800      1270
    39.5000      1354
    39.5200      1462
    39.5400      1540
    39.5600      1624
    39.5800      1794
    39.6000      1860
    39.6200      2104
    39.6400      2162
    39.6600      2272
    39.6800      2360
    39.7000      2390
    39.7200      2240
    39.7400      2116
    39.7600      2112
    39.7800      1888
    39.8000      1820
    39.8200      1602
    39.8400      1468
    39.8600      1252
    39.8800      1134
    39.9000      1136
    39.9200      1008
    39.9400       958
    39.9600       914
    39.9800       856
    40.0000       806
    40.0200       788
    40.0400       776
    40.0600       762
    40.0800       784
    40.1000       752
    40.1200       740
    40.1400       762
    40.1600       780
    40.1800       758
    40.2000       778
    40.2200       796
    40.2400       804
    40.2600       822
    40.2800       878
    40.3000       862
    40.3200       854
    40.3400       970
    40.3600       986
    40.3800       968
    40.4000       984
    40.4200      1064
    40.4400      1148
    40.4600      1198
    40.4800      1320
    40.5000      1468
    40.5200      1470
    40.5400      1568
    40.5600      1602
    40.5800      1606
    40.6000      1676
    40.6200      1722
    40.6400      1580
    40.6600      1666
    40.6800      1576
    40.7000      1392
    40.7200      1320
    40.7400      1264
    40.7600      1118
    40.7800      1060
    40.8000       968
    40.8200       928
    40.8400       850
    40.8600       784
    40.8800       784
    40.9000       744
    40.9200       748
    40.9400       734
    40.9600       714
    40.9800       708
    41.0000       726
    41.0200       740
    41.0400       762
    41.0600       790
    41.0800       798
    41.1000       816
    41.1200       912
    41.1400       864
    41.1600       924
    41.1800       898
    41.2000       990
    41.2200      1090
    41.2400      1078
    41.2600      1156
    41.2800      1126
    41.3000      1186
    41.3200      1176
    41.3400      1176
    41.3600      1160
    41.3800      1212
    41.4000      1266
    41.4200      1250
    41.4400      1274
    41.4600      1286
    41.4800      1260
    41.5000      1298
    41.5200      1346
    41.5400      1366
    41.5600      1380
    41.5800      1312
    41.6000      1380
    41.6200      1388
    41.6400      1350
    41.6600      1360
    41.6800      1366
    41.7000      1372
    41.7200      1404
    41.7400      1446
    41.7600      1452
    41.7800      1488
    41.8000      1646
    41.8200      1712
    41.8400      1790
    41.8600      1820
    41.8800      1860
    41.9000      1904
    41.9200      1824
    41.9400      1898
    41.9600      1724
    41.9800      1634
    42.0000      1562
    42.0200      1432
    42.0400      1312
    42.0600      1200
    42.0800      1124
    42.1000      1052
    42.1200       924
    42.1400       842
    42.1600       802
    42.1800       698
    42.2000       690
    42.2200       682
    42.2400       594
    42.2600       624
    42.2800       582
    42.3000       572
    42.3200       570
    42.3400       572
    42.3600       532
    42.3800       574
    42.4000       506
    42.4200       470
    42.4400       488
    42.4600       464
    42.4800       460
    42.5000       474
    42.5200       484
    42.5400       426
    42.5600       486
    42.5800       486
    42.6000       492
    42.6200       468
    42.6400       496
    42.6600       446
    42.6800       454
    42.7000       516
    42.7200       474
    42.7400       530
    42.7600       506
    42.7800       528
    42.8000       552
    42.8200       558
    42.8400       534
    42.8600       568
    42.8800       594
    42.9000       656
    42.9200       710
    42.9400       742
    42.9600       758
    42.9800       902
    43.0000       900
    43.0200       946
    43.0400      1122
    43.0600      1170
    43.0800      1250
    43.1000      1470
    43.1200      1532
    43.1400      1646
    43.1600      1654
    43.1800      1720
    43.2000      1794
    43.2200      1766
    43.2400      1692
    43.2600      1596
    43.2800      1562
    43.3000      1452
    43.3200      1336
    43.3400      1320
    43.3600      1132
    43.3800       974
    43.4000       956
    43.4200       852
    43.4400       786
    43.4600       762
    43.4800       728
    43.5000       686
    43.5200       610
    43.5400       664
    43.5600       642
    43.5800       622
    43.6000       618
    43.6200       624
    43.6400       638
    43.6600       618
    43.6800       624
    43.7000       656
    43.7200       626
    43.7400       710
    43.7600       748
    43.7800       778
    43.8000       736
    43.8200       786
    43.8400       770
    43.8600       774
    43.8800       736
    43.9000       746
    43.9200       686
    43.9400       672
    43.9600       618
    43.9800       636
    44.0000       588
    44.0200       522
    44.0400       548
    44.0600       504
    44.0800       506
    44.1000       526
    44.1200       506
    44.1400       520
    44.1600       476
    44.1800       500
    44.2000       516
    44.2200       480
    44.2400       490
    44.2600       504
    44.2800       556
    44.3000       502
    44.3200       506
    44.3400       508
    44.3600       526
    44.3800       534
    44.4000       504
    44.4200       522
    44.4400       518
    44.4600       508
    44.4800       480
    44.5000       480
    44.5200       538
    44.5400       524
    44.5600       506
    44.5800       552
    44.6000       508
    44.6200       524
    44.6400       508
    44.6600       474
    44.6800       542
    44.7000       548
    44.7200       548
    44.7400       580
    44.7600       568
    44.7800       586
    44.8000       638
    44.8200       626
    44.8400       718
    44.8600       762
    44.8800       802
    44.9000       870
    44.9200       906
    44.9400       906
    44.9600       948
    44.9800      1052
    45.0000      1142
    45.0200      1084
    45.0400      1172
    45.0600      1142
    45.0800      1326
    45.1000      1254
    45.1200      1264
    45.1400      1348
    45.1600      1394
    45.1800      1316
    45.2000      1436
    45.2200      1430
    45.2400      1484
    45.2600      1472
    45.2800      1446
    45.3000      1386
    45.3200      1346
    45.3400      1322
    45.3600      1302
    45.3800      1350
    45.4000      1288
    45.4200      1150
    45.4400      1110
    45.4600      1114
    45.4800      1046
    45.5000      1018
    45.5200       914
    45.5400       944
    45.5600       906
    45.5800       830
    45.6000       860
    45.6200       818
    45.6400       800
    45.6600       760
    45.6800       774
    45.7000       728
    45.7200       704
    45.7400       660
    45.7600       690
    45.7800       662
    45.8000       716
    45.8200       678
    45.8400       698
    45.8600       678
    45.8800       662
    45.9000       728
    45.9200       680
    45.9400       676
    45.9600       722
    45.9800       700
    46.0000       738
    46.0200       698
    46.0400       750
    46.0600       734
    46.0800       764
    46.1000       784
    46.1200       828
    46.1400       838
    46.1600       848
    46.1800       920
    46.2000       944
    46.2200       990
    46.2400      1014
    46.2600      1072
    46.2800      1162
    46.3000      1270
    46.3200      1346
    46.3400      1424
    46.3600      1596
    46.3800      1692
    46.4000      1858
    46.4200      2066
    46.4400      2294
    46.4600      2430
    46.4800      2730
    46.5000      3076
    46.5200      3514
    46.5400      3974
    46.5600      4408
    46.5800      4902
    46.6000      5540
    46.6200      6214
    46.6400      6666
    46.6600      7108
    46.6800      7612
    46.7000      7618
    46.7200      7792
    46.7400      7656
    46.7600      7296
    46.7800      6926
    46.8000      6574
    46.8200      6078
    46.8400      5540
    46.8600      4970
    46.8800      4422
    46.9000      3982
    46.9200      3474
    46.9400      2988
    46.9600      2732
    46.9800      2324
    47.0000      2064
    47.0200      1918
    47.0400      1768
    47.0600      1512
    47.0800      1464
    47.1000      1358
    47.1200      1234
    47.1400      1138
    47.1600      1002
    47.1800      1096
    47.2000      1000
    47.2200       930
    47.2400       894
    47.2600       836
    47.2800       790
    47.3000       808
    47.3200       776
    47.3400       744
    47.3600       700
    47.3800       636
    47.4000       648
    47.4200       646
    47.4400       640
    47.4600       636
    47.4800       630
    47.5000       646
    47.5200       614
    47.5400       616
    47.5600       630
    47.5800       630
    47.6000       614
    47.6200       588
    47.6400       674
    47.6600       666
    47.6800       668
    47.7000       748
    47.7200       766
    47.7400       778
    47.7600       834
    47.7800       846
    47.8000       874
    47.8200       898
    47.8400       952
    47.8600       956
    47.8800       840
    47.9000       876
    47.9200       878
    47.9400       852
    47.9600       826
    47.9800       878
    48.0000       860
    48.0200       884
    48.0400       840
    48.0600       882
    48.0800       812
    48.1000       860
    48.1200       858
    48.1400       874
    48.1600       946
    48.1800       894
    48.2000      1000
    48.2200       912
    48.2400       916
    48.2600       994
    48.2800       934
    48.3000       896
    48.3200       886
    48.3400       910
    48.3600       864
    48.3800       924
    48.4000       804
    48.4200       854
    48.4400       800
    48.4600       796
    48.4800       826
    48.5000       822
    48.5200       774
    48.5400       812
    48.5600       780
    48.5800       814
    48.6000       774
    48.6200       800
    48.6400       780
    48.6600       796
    48.6800       752
    48.7000       746
    48.7200       792
    48.7400       756
    48.7600       700
    48.7800       722
    48.8000       658
    48.8200       650
    48.8400       652
    48.8600       590
    48.8800       600
    48.9000       564
    48.9200       526
    48.9400       498
    48.9600       526
    48.9800       498
    49.0000       492
    49.0200       460
    49.0400       486
    49.0600       454
    49.0800       428
    49.1000       450
    49.1200       426
    49.1400       434
    49.1600       414
    49.1800       418
    49.2000       382
    49.2200       376
    49.2400       372
    49.2600       390
    49.2800       370
    49.3000       382
    49.3200       350
    49.3400       320
    49.3600       394
    49.3800       340
    49.4000       392
    49.4200       370
    49.4400       364
    49.4600       410
    49.4800       378
    49.5000       358
    49.5200       368
    49.5400       352
    49.5600       396
    49.5800       394
    49.6000       378
    49.6200       376
    49.6400       368
    49.6600       392
    49.6800       416
    49.7000       382
    49.7200       416
    49.7400       390
    49.7600       388
    49.7800       410
    49.8000       412
    49.8200       396
    49.8400       452
    49.8600       442
    49.8800       440
    49.9000       464
    49.9200       500
    49.9400       492
    49.9600       558
    49.9800       544
    50.0000       580
    50.0200       610
    50.0400       630
    50.0600       670
    50.0800       704
    50.1000       704
    50.1200       752
    50.1400       754
    50.1600       780
    50.1800       842
    50.2000       854
    50.2200       908
    50.2400       948
    50.2600       958
    50.2800       990
    50.3000      1012
    50.3200       978
    50.3400      1006
    50.3600       994
    50.3800      1008
    50.4000      1004
    50.4200       986
    50.4400      1106
    50.4600      1008
    50.4800      1042
    50.5000       986
    50.5200      1050
    50.5400       974
    50.5600       984
    50.5800       972
    50.6000      1012
    50.6200      1002
    50.6400       972
    50.6600      1060
    50.6800      1098
    50.7000      1152
    50.7200      1138
    50.7400      1188
    50.7600      1316
    50.7800      1332
    50.8000      1416
    50.8200      1456
    50.8400      1414
    50.8600      1480
    50.8800      1506
    50.9000      1470
    50.9200      1454
    50.9400      1412
    50.9600      1372
    50.9800      1348
    51.0000      1242
    51.0200      1182
    51.0400      1134
    51.0600      1086
    51.0800      1086
    51.1000      1020
    51.1200       984
    51.1400       928
    51.1600       918
    51.1800       906
    51.2000       860
    51.2200       808
    51.2400       852
    51.2600       884
    51.2800       828
    51.3000       854
    51.3200       826
    51.3400       848
    51.3600       896
    51.3800       894
    51.4000       920
    51.4200       898
    51.4400       860
    51.4600       808
    51.4800       894
    51.5000       838
    51.5200       782
    51.5400       850
    51.5600       874
    51.5800       864
    51.6000       862
    51.6200       826
    51.6400       872
    51.6600       888
    51.6800       960
    51.7000       924
    51.7200       980
    51.7400       978
    51.7600      1070
    51.7800      1126
    51.8000      1172
    51.8200      1264
    51.8400      1306
    51.8600      1318
    51.8800      1368
    51.9000      1356
    51.9200      1422
    51.9400      1424
    51.9600      1464
    51.9800      1502
    52.0000      1480
    52.0200      1426
    52.0400      1530
    52.0600      1490
    52.0800      1610
    52.1000      1454
    52.1200      1448
    52.1400      1412
    52.1600      1336
    52.1800      1254
    52.2000      1242
    52.2200      1196
    52.2400      1096
    52.2600      1142
    52.2800      1108
    52.3000       984
    52.3200      1006
    52.3400       970
    52.3600       996
    52.3800       976
    52.4000      1044
    52.4200      1078
    52.4400      1158
    52.4600      1168
    52.4800      1236
    52.5000      1380
    52.5200      1306
    52.5400      1432
    52.5600      1458
    52.5800      1506
    52.6000      1456
    52.6200      1506
    52.6400      1482
    52.6600      1494
    52.6800      1494
    52.7000      1466
    52.7200      1462
    52.7400      1332
    52.7600      1330
    52.7800      1336
    52.8000      1204
    52.8200      1128
    52.8400      1112
    52.8600      1070
    52.8800      1054
    52.9000      1026
    52.9200      1008
    52.9400      1028
    52.9600       962
    52.9800       884
    53.0000       982
    53.0200       990
    53.0400      1004
    53.0600      1060
    53.0800      1140
    53.1000      1132
    53.1200      1270
    53.1400      1298
    53.1600      1320
    53.1800      1404
    53.2000      1542
    53.2200      1600
    53.2400      1604
    53.2600      1666
    53.2800      1716
    53.3000      1618
    53.3200      1576
    53.3400      1600
    53.3600      1468
    53.3800      1408
    53.4000      1376
    53.4200      1290
    53.4400      1132
    53.4600      1092
    53.4800       970
    53.5000       948
    53.5200       866
    53.5400       794
    53.5600       772
    53.5800       766
    53.6000       706
    53.6200       658
    53.6400       644
    53.6600       642
    53.6800       558
    53.7000       576
    53.7200       542
    53.7400       552
    53.7600       506
    53.7800       568
    53.8000       544
    53.8200       484
    53.8400       490
    53.8600       504
    53.8800       528
    53.9000       514
    53.9200       490
    53.9400       424
    53.9600       494
    53.9800       428
    54.0000       464
    54.0200       508
    54.0400       498
    54.0600       468
    54.0800       446
    54.1000       452
    54.1200       456
    54.1400       502
    54.1600       492
    54.1800       474
    54.2000       504
    54.2200       536
    54.2400       504
    54.2600       526
    54.2800       552
    54.3000       604
    54.3200       566
    54.3400       590
    54.3600       640
    54.3800       596
    54.4000       638
    54.4200       666
    54.4400       688
    54.4600       676
    54.4800       646
    54.5000       736
    54.5200       726
    54.5400       782
    54.5600       806
    54.5800       898
    54.6000       868
    54.6200       894
    54.6400       846
    54.6600       954
    54.6800       936
    54.7000       968
    54.7200       952
    54.7400      1008
    54.7600      1006
    54.7800       976
    54.8000       992
    54.8200       944
    54.8400       882
    54.8600       854
    54.8800       836
    54.9000       828
    54.9200       780
    54.9400       802
    54.9600       768
    54.9800       708
    55.0000       710
    55.0200       780
    55.0400       724
    55.0600       642
    55.0800       684
    55.1000       702
    55.1200       752
    55.1400       716
    55.1600       770
    55.1800       710
    55.2000       754
    55.2200       720
    55.2400       648
    55.2600       696
    55.2800       722
    55.3000       686
    55.3200       648
    55.3400       602
    55.3600       632
    55.3800       592
    55.4000       678
    55.4200       564
    55.4400       580
    55.4600       626
    55.4800       594
    55.5000       548
    55.5200       532
    55.5400       546
    55.5600       474
    55.5800       516
    55.6000       506
    55.6200       474
    55.6400       490
    55.6600       442
    55.6800       408
    55.7000       414
    55.7200       434
    55.7400       410
    55.7600       430
    55.7800       404
    55.8000       412
    55.8200       360
    55.8400       374
    55.8600       400
    55.8800       382
    55.9000       362
    55.9200       388
    55.9400       382
    55.9600       382
    55.9800       366
    56.0000       376
    56.0200       356
    56.0400       354
    56.0600       350
    56.0800       366
    56.1000       342
    56.1200       362
    56.1400       354
    56.1600       332
    56.1800       354
    56.2000       346
    56.2200       368
    56.2400       346
    56.2600       356
    56.2800       382
    56.3000       370
    56.3200       348
    56.3400       358
    56.3600       386
    56.3800       346
    56.4000       350
    56.4200       392
    56.4400       378
    56.4600       382
    56.4800       360
    56.5000       362
    56.5200       396
    56.5400       370
    56.5600       392
    56.5800       402
    56.6000       402
    56.6200       426
    56.6400       428
    56.6600       412
    56.6800       422
    56.7000       458
    56.7200       448
    56.7400       484
    56.7600       510
    56.7800       540
    56.8000       538
    56.8200       546
    56.8400       578
    56.8600       558
    56.8800       602
    56.9000       620
    56.9200       568
    56.9400       626
    56.9600       640
    56.9800       612
    57.0000       668
    57.0200       670
    57.0400       682
    57.0600       694
    57.0800       758
    57.1000       800
    57.1200       802
    57.1400       822
    57.1600       904
    57.1800      1010
    57.2000      1006
    57.2200      1066
    57.2400      1122
    57.2600      1260
    57.2800      1378
    57.3000      1382
    57.3200      1490
    57.3400      1506
    57.3600      1556
    57.3800      1538
    57.4000      1664
    57.4200      1546
    57.4400      1568
    57.4600      1564
    57.4800      1556
    57.5000      1492
    57.5200      1508
    57.5400      1522
    57.5600      1606
    57.5800      1480
    57.6000      1576
    57.6200      1556
    57.6400      1602
    57.6600      1536
    57.6800      1616
    57.7000      1626
    57.7200      1682
    57.7400      1634
    57.7600      1654
    57.7800      1672
    57.8000      1596
    57.8200      1550
    57.8400      1458
    57.8600      1404
    57.8800      1410
    57.9000      1356
    57.9200      1306
    57.9400      1192
    57.9600      1226
    57.9800      1112
    58.0000      1058
    58.0200      1050
    58.0400       974
    58.0600       978
    58.0800       972
    58.1000       896
    58.1200      1012
    58.1400       958
    58.1600       966
    58.1800       968
    58.2000       980
    58.2200      1062
    58.2400      1098
    58.2600      1076
    58.2800      1228
    58.3000      1200
    58.3200      1300
    58.3400      1404
    58.3600      1450
    58.3800      1606
    58.4000      1640
    58.4200      1702
    58.4400      1830
    58.4600      1956
    58.4800      2050
    58.5000      2168
    58.5200      2164
    58.5400      2356
    58.5600      2420
    58.5800      2588
    58.6000      2656
    58.6200      2634
    58.6400      2780
    58.6600      2830
    58.6800      2922
    58.7000      3050
    58.7200      3062
    58.7400      3022
    58.7600      2936
    58.7800      2924
    58.8000      2932
    58.8200      2784
    58.8400      2694
    58.8600      2546
    58.8800      2408
    58.9000      2274
    58.9200      2212
    58.9400      2148
    58.9600      1908
    58.9800      1768
    59.0000      1710
    59.0200      1666
    59.0400      1516
    59.0600      1402
    59.0800      1348
    59.1000      1206
    59.1200      1228
    59.1400      1122
    59.1600      1060
    59.1800      1012
    59.2000      1086
    59.2200      1010
    59.2400      1002
    59.2600      1016
    59.2800      1000
    59.3000      1024
    59.3200      1018
    59.3400      1052
    59.3600      1020
    59.3800      1080
    59.4000      1134
    59.4200      1074
    59.4400      1118
    59.4600      1106
    59.4800      1072
    59.5000      1108
    59.5200      1138
    59.5400      1012
    59.5600      1016
    59.5800       986
    59.6000       918
    59.6200       920
    59.6400       916
    59.6600       900
    59.6800       880
    59.7000       848
    59.7200       840
    59.7400       822
    59.7600       758
    59.7800       740
    59.8000       760
    59.8200       718
    59.8400       730
    59.8600       706
    59.8800       686
    59.9000       704
    59.9200       640
    59.9400       612
    59.9600       636
    59.9800       574
    60.0000       638
    60.0200       570
    60.0400       616
    60.0600       596
    60.0800       546
    60.1000       558
    60.1200       526
    60.1400       550
    60.1600       510
    60.1800       514
    60.2000       518
    60.2200       514
    60.2400       486
    60.2600       472
    60.2800       474
    60.3000       460
    60.3200       442
    60.3400       460
    60.3600       496
    60.3800       454
    60.4000       406
    60.4200       490
    60.4400       430
    60.4600       412
    60.4800       444
    60.5000       402
    60.5200       480
    60.5400       436
    60.5600       444
    60.5800       414
    60.6000       440
    60.6200       408
    60.6400       436
    60.6600       412
    60.6800       506
    60.7000       446
    60.7200       458
    60.7400       416
    60.7600       468
    60.7800       486
    60.8000       452
    60.8200       496
    60.8400       452
    60.8600       464
    60.8800       516
    60.9000       498
    60.9200       494
    60.9400       484
    60.9600       558
    60.9800       592
    61.0000       576
    61.0200       568
    61.0400       596
    61.0600       592
    61.0800       642
    61.1000       642
    61.1200       666
    61.1400       678
    61.1600       664
    61.1800       700
    61.2000       670
    61.2200       722
    61.2400       640
    61.2600       720
    61.2800       690
    61.3000       654
    61.3200       672
    61.3400       726
    61.3600       716
    61.3800       758
    61.4000       712
    61.4200       790
    61.4400       806
    61.4600       766
    61.4800       834
    61.5000       882
    61.5200       818
    61.5400       910
    61.5600       898
    61.5800       884
    61.6000       960
    61.6200      1050
    61.6400       970
    61.6600       986
    61.6800      1036
    61.7000       976
    61.7200       962
    61.7400       996
    61.7600       896
    61.7800       952
    61.8000       942
    61.8200       924
    61.8400       890
    61.8600       854
    61.8800       870
    61.9000       814
    61.9200       822
    61.9400       840
    61.9600       760
    61.9800       774
    62.0000       704
    62.0200       692
    62.0400       660
    62.0600       718
    62.0800       688
    62.1000       678
    62.1200       698
    62.1400       676
    62.1600       634
    62.1800       622
    62.2000       608
    62.2200       618
    62.2400       584
    62.2600       590
    62.2800       586
    62.3000       542
    62.3200       552
    62.3400       582
    62.3600       534
    62.3800       546
    62.4000       566
    62.4200       520
    62.4400       510
    62.4600       454
    62.4800       484
    62.5000       480
    62.5200       442
    62.5400       452
    62.5600       440
    62.5800       452
    62.6000       436
    62.6200       418
    62.6400       378
    62.6600       408
    62.6800       414
    62.7000       392
    62.7200       432
    62.7400       356
    62.7600       352
    62.7800       358
    62.8000       342
    62.8200       368
    62.8400       396
    62.8600       328
    62.8800       336
    62.9000       340
    62.9200       358
    62.9400       344
    62.9600       346
    62.9800       324
    63.0000       352
    63.0200       338
    63.0400       320
    63.0600       298
    63.0800       284
    63.1000       290
    63.1200       328
    63.1400       324
    63.1600       298
    63.1800       298
    63.2000       270
    63.2200       270
    63.2400       322
    63.2600       336
    63.2800       306
    63.3000       258
    63.3200       300
    63.3400       328
    63.3600       284
    63.3800       302
    63.4000       302
    63.4200       336
    63.4400       320
    63.4600       356
    63.4800       314
    63.5000       330
    63.5200       344
    63.5400       330
    63.5600       346
    63.5800       364
    63.6000       376
    63.6200       380
    63.6400       380
    63.6600       414
    63.6800       450
    63.7000       448
    63.7200       470
    63.7400       472
    63.7600       512
    63.7800       532
    63.8000       580
    63.8200       582
    63.8400       564
    63.8600       596
    63.8800       576
    63.9000       650
    63.9200       628
    63.9400       592
    63.9600       650
    63.9800       618
    64.0000       602
    64.0200       556
    64.0400       554
    64.0600       560
    64.0800       560
    64.1000       506
    64.1200       522
    64.1400       488
    64.1600       440
    64.1800       412
    64.2000       402
    64.2200       404
    64.2400       410
    64.2600       376
    64.2800       360
    64.3000       378
    64.3200       344
    64.3400       326
    64.3600       346
    64.3800       372
    64.4000       324
    64.4200       290
    64.4400       310
    64.4600       302
    64.4800       288
    64.5000       294
    64.5200       244
    64.5400       294
    64.5600       318
    64.5800       286
    64.6000       266
    64.6200       274
    64.6400       272
    64.6600       258
    64.6800       242
    64.7000       266
    64.7200       288
    64.7400       284
    64.7600       268
    64.7800       280
    64.8000       248
    64.8200       278
    64.8400       268
    64.8600       328
    64.8800       302
    64.9000       294
    64.9200       288
    64.9400       280
    64.9600       266
    64.9800       312
    65.0000       300
    65.0200       298
    65.0400       300
    65.0600       322
    65.0800       340
    65.1000       346
    65.1200       362
    65.1400       380
    65.1600       420
    65.1800       412
    65.2000       426
    65.2200       416
    65.2400       462
    65.2600       442
    65.2800       410
    65.3000       480
    65.3200       454
    65.3400       462
    65.3600       450
    65.3800       446
    65.4000       454
    65.4200       474
    65.4400       422
    65.4600       448
    65.4800       454
    65.5000       404
    65.5200       378
    65.5400       384
    65.5600       422
    65.5800       398
    65.6000       384
    65.6200       386
    65.6400       352
    65.6600       356
    65.6800       338
    65.7000       304
    65.7200       350
    65.7400       320
    65.7600       378
    65.7800       288
    65.8000       332
    65.8200       294
    65.8400       308
    65.8600       288
    65.8800       302
    65.9000       322
    65.9200       312
    65.9400       268
    65.9600       282
    65.9800       280
    66.0000       292
    66.0200       272
    66.0400       296
    66.0600       258
    66.0800       280
    66.1000       282
    66.1200       284
    66.1400       308
    66.1600       286
    66.1800       274
    66.2000       286
    66.2200       282
    66.2400       274
    66.2600       302
    66.2800       284
    66.3000       302
    66.3200       286
    66.3400       314
    66.3600       338
    66.3800       294
    66.4000       316
    66.4200       332
    66.4400       320
    66.4600       324
    66.4800       312
    66.5000       330
    66.5200       344
    66.5400       352
    66.5600       406
    66.5800       428
    66.6000       416
    66.6200       426
    66.6400       418
    66.6600       460
    66.6800       454
    66.7000       530
    66.7200       500
    66.7400       518
    66.7600       566
    66.7800       548
    66.8000       594
    66.8200       598
    66.8400       612
    66.8600       678
    66.8800       674
    66.9000       690
    66.9200       706
    66.9400       646
    66.9600       654
    66.9800       664
    67.0000       664
    67.0200       658
    67.0400       630
    67.0600       664
    67.0800       642
    67.1000       612
    67.1200       592
    67.1400       564
    67.1600       548
    67.1800       568
    67.2000       528
    67.2200       480
    67.2400       504
    67.2600       490
    67.2800       434
    67.3000       426
    67.3200       420
    67.3400       392
    67.3600       376
    67.3800       418
    67.4000       382
    67.4200       410
    67.4400       414
    67.4600       380
    67.4800       350
    67.5000       370
    67.5200       412
    67.5400       382
    67.5600       402
    67.5800       358
    67.6000       412
    67.6200       428
    67.6400       394
    67.6600       366
    67.6800       422
    67.7000       408
    67.7200       374
    67.7400       438
    67.7600       442
    67.7800       448
    67.8000       464
    67.8200       490
    67.8400       474
    67.8600       542
    67.8800       544
    67.9000       594
    67.9200       588
    67.9400       672
    67.9600       672
    67.9800       688
    68.0000       782
    68.0200       828
    68.0400       852
    68.0600       858
    68.0800       956
    68.1000      1022
    68.1200      1012
    68.1400      1088
    68.1600      1096
    68.1800      1082
    68.2000      1056
    68.2200      1114
    68.2400      1064
    68.2600      1136
    68.2800      1072
    68.3000      1004
    68.3200      1024
    68.3400      1020
    68.3600       998
    68.3800       904
    68.4000       872
    68.4200       814
    68.4400       796
    68.4600       728
    68.4800       720
    68.5000       680
    68.5200       662
    68.5400       656
    68.5600       600
    68.5800       568
    68.6000       546
    68.6200       490
    68.6400       484
    68.6600       460
    68.6800       500
    68.7000       472
    68.7200       468
    68.7400       422
    68.7600       442
    68.7800       428
    68.8000       410
    68.8200       398
    68.8400       396
    68.8600       436
    68.8800       402
    68.9000       392
    68.9200       392
    68.9400       386
    68.9600       376
    68.9800       390
    69.0000       400
    69.0200       402
    69.0400       402
    69.0600       386
    69.0800       392
    69.1000       402
    69.1200       400
    69.1400       406
    69.1600       380
    69.1800       426
    69.2000       434
    69.2200       474
    69.2400       448
    69.2600       492
    69.2800       482
    69.3000       520
    69.3200       512
    69.3400       546
    69.3600       558
    69.3800       570
    69.4000       556
    69.4200       544
    69.4400       538
    69.4600       586
    69.4800       576
    69.5000       560
    69.5200       536
    69.5400       554
    69.5600       498
    69.5800       526
    69.6000       474
    69.6200       454
    69.6400       492
    69.6600       438
    69.6800       468
    69.7000       430
    69.7200       424
    69.7400       378
    69.7600       382
    69.7800       376
    69.8000       360
    69.8200       366
    69.8400       380
    69.8600       348
    69.8800       348
    69.9000       366
    69.9200       336
    69.9400       380
    69.9600       370
    69.9800       360
    70.0000       390
    70.0200       340
    70.0400       334
    70.0600       320
    70.0800       312
    70.1000       304
    70.1200       296
    70.1400       296
    70.1600       328
    70.1800       300
    70.2000       292
    70.2200       288
    70.2400       300
    70.2600       292
    70.2800       272
    70.3000       268
    70.3200       266
    70.3400       258
    70.3600       266
    70.3800       268
    70.4000       272
    70.4200       240
    70.4400       274
    70.4600       282
    70.4800       256
    70.5000       270
    70.5200       304
    70.5400       282
    70.5600       312
    70.5800       264
    70.6000       300
    70.6200       278
    70.6400       256
    70.6600       282
    70.6800       292
    70.7000       298
    70.7200       290
    70.7400       234
    70.7600       266
    70.7800       272
    70.8000       228
    70.8200       276
    70.8400       290
    70.8600       246
    70.8800       266
    70.9000       292
    70.9200       254
    70.9400       284
    70.9600       258
    70.9800       256
    71.0000       268
    71.0200       282
    71.0400       282
    71.0600       264
    71.0800       314
    71.1000       276
    71.1200       322
    71.1400       324
    71.1600       316
    71.1800       334
    71.2000       348
    71.2200       362
    71.2400       382
    71.2600       354
    71.2800       424
    71.3000       426
    71.3200       418
    71.3400       434
    71.3600       450
    71.3800       524
    71.4000       526
    71.4200       542
    71.4400       546
    71.4600       614
    71.4800       614
    71.5000       604
    71.5200       644
    71.5400       596
    71.5600       600
    71.5800       664
    71.6000       596
    71.6200       600
    71.6400       624
    71.6600       590
    71.6800       564
    71.7000       612
    71.7200       568
    71.7400       604
    71.7600       610
    71.7800       568
    71.8000       554
    71.8200       542
    71.8400       558
    71.8600       556
    71.8800       500
    71.9000       520
    71.9200       494
    71.9400       510
    71.9600       498
    71.9800       512
    72.0000       506
    72.0200       502
    72.0400       472
    72.0600       466
    72.0800       502
    72.1000       484
    72.1200       486
    72.1400       520
    72.1600       494
    72.1800       494
    72.2000       490
    72.2200       534
    72.2400       540
    72.2600       536
    72.2800       560
    72.3000       546
    72.3200       520
    72.3400       528
    72.3600       534
    72.3800       528
    72.4000       518
    72.4200       514
    72.4400       522
    72.4600       522
    72.4800       492
    72.5000       492
    72.5200       514
    72.5400       516
    72.5600       474
    72.5800       526
    72.6000       466
    72.6200       520
    72.6400       476
    72.6600       466
    72.6800       500
    72.7000       500
    72.7200       482
    72.7400       460
    72.7600       516
    72.7800       512
    72.8000       450
    72.8200       426
    72.8400       434
    72.8600       454
    72.8800       446
    72.9000       450
    72.9200       420
    72.9400       446
    72.9600       392
    72.9800       408
    73.0000       380
    73.0200       390
    73.0400       366
    73.0600       376
    73.0800       416
    73.1000       370
    73.1200       358
    73.1400       340
    73.1600       346
    73.1800       336
    73.2000       338
    73.2200       324
    73.2400       310
    73.2600       346
    73.2800       322
    73.3000       288
    73.3200       296
    73.3400       306
    73.3600       288
    73.3800       266
    73.4000       280
    73.4200       266
    73.4400       266
    73.4600       248
    73.4800       292
    73.5000       262
    73.5200       262
    73.5400       270
    73.5600       246
    73.5800       252
    73.6000       244
    73.6200       274
    73.6400       250
    73.6600       244
    73.6800       248
    73.7000       246
    73.7200       238
    73.7400       248
    73.7600       268
    73.7800       288
    73.8000       266
    73.8200       274
    73.8400       266
    73.8600       264
    73.8800       250
    73.9000       292
    73.9200       274
    73.9400       276
    73.9600       306
    73.9800       294
    74.0000       304
    74.0200       280
    74.0400       304
    74.0600       286
    74.0800       310
    74.1000       314
    74.1200       308
    74.1400       258
    74.1600       300
    74.1800       306
    74.2000       296
    74.2200       298
    74.2400       268
    74.2600       284
    74.2800       260
    74.3000       282
    74.3200       266
    74.3400       274
    74.3600       268
    74.3800       282
    74.4000       262
    74.4200       256
    74.4400       250
    74.4600       268
    74.4800       248
    74.5000       240
    74.5200       240
    74.5400       250
    74.5600       230
    74.5800       234
    74.6000       230
    74.6200       208
    74.6400       226
    74.6600       204
    74.6800       220
    74.7000       236
    74.7200       202
    74.7400       198
    74.7600       212
    74.7800       212
    74.8000       232
    74.8200       210
    74.8400       210
    74.8600       226
    74.8800       202
    74.9000       208
    74.9200       214
    74.9400       214
    74.9600       240
    74.9800       208
    75.0000       240
    75.0200       214
    75.0400       234
    75.0600       228
    75.0800       218
    75.1000       222
    75.1200       226
    75.1400       226
    75.1600       196
    75.1800       238
    75.2000       212
    75.2200       212
    75.2400       258
    75.2600       218
    75.2800       244
    75.3000       240
    75.3200       248
    75.3400       226
    75.3600       244
    75.3800       246
    75.4000       216
    75.4200       224
    75.4400       276
    75.4600       260
    75.4800       254
    75.5000       248
    75.5200       222
    75.5400       262
    75.5600       214
    75.5800       256
    75.6000       222
    75.6200       236
    75.6400       262
    75.6600       256
    75.6800       238
    75.7000       260
    75.7200       238
    75.7400       236
    75.7600       204
    75.7800       246
    75.8000       256
    75.8200       248
    75.8400       292
    75.8600       282
    75.8800       260
    75.9000       276
    75.9200       264
    75.9400       242
    75.9600       272
    75.9800       240
    76.0000       296
    76.0200       234
    76.0400       260
    76.0600       300
    76.0800       242
    76.1000       228
    76.1200       252
    76.1400       270
    76.1600       270
    76.1800       288
    76.2000       294
    76.2200       302
    76.2400       278
    76.2600       324
    76.2800       296
    76.3000       338
    76.3200       330
    76.3400       328
    76.3600       326
    76.3800       376
    76.4000       304
    76.4200       380
    76.4400       368
    76.4600       352
    76.4800       346
    76.5000       368
    76.5200       368
    76.5400       388
    76.5600       360
    76.5800       390
    76.6000       380
    76.6200       366
    76.6400       428
    76.6600       398
    76.6800       400
    76.7000       414
    76.7200       384
    76.7400       414
    76.7600       378
    76.7800       392
    76.8000       378
    76.8200       390
    76.8400       438
    76.8600       412
    76.8800       376
    76.9000       382
    76.9200       362
    76.9400       384
    76.9600       424
    76.9800       338
    77.0000       414
    77.0200       358
    77.0400       404
    77.0600       352
    77.0800       316
    77.1000       376
    77.1200       394
    77.1400       404
    77.1600       396
    77.1800       384
    77.2000       424
    77.2200       424
    77.2400       416
    77.2600       432
    77.2800       482
    77.3000       476
    77.3200       480
    77.3400       492
    77.3600       502
    77.3800       542
    77.4000       552
    77.4200       538
    77.4400       590
    77.4600       622
    77.4800       648
    77.5000       676
    77.5200       702
    77.5400       670
    77.5600       754
    77.5800       806
    77.6000       774
    77.6200       846
    77.6400       796
    77.6600       802
    77.6800       804
    77.7000       876
    77.7200       816
    77.7400       788
    77.7600       800
    77.7800       758
    77.8000       780
    77.8200       748
    77.8400       730
    77.8600       690
    77.8800       626
    77.9000       646
    77.9200       668
    77.9400       586
    77.9600       628
    77.9800       602
    78.0000       532
    78.0200       490
    78.0400       534
    78.0600       494
    78.0800       500
    78.1000       416
    78.1200       500
    78.1400       468
    78.1600       454
    78.1800       426
    78.2000       418
    78.2200       426
    78.2400       420
    78.2600       402
    78.2800       380
    78.3000       428
    78.3200       376
    78.3400       418
    78.3600       418
    78.3800       440
    78.4000       386
    78.4200       444
    78.4400       446
    78.4600       392
    78.4800       442
    78.5000       432
    78.5200       430
    78.5400       398
    78.5600       478
    78.5800       446
    78.6000       452
    78.6200       438
    78.6400       440
    78.6600       446
    78.6800       474
    78.7000       478
    78.7200       440
    78.7400       452
    78.7600       408
    78.7800       402
    78.8000       364
    78.8200       460
    78.8400       448
    78.8600       378
    78.8800       410
    78.9000       370
    78.9200       366
    78.9400       356
    78.9600       336
    78.9800       366
    79.0000       356
    79.0200       356
    79.0400       346
    79.0600       338
    79.0800       318
    79.1000       288
    79.1200       304
    79.1400       308
    79.1600       286
    79.1800       282
    79.2000       304
    79.2200       308
    79.2400       290
    79.2600       294
    79.2800       276
    79.3000       242
    79.3200       272
    79.3400       284
    79.3600       244
    79.3800       244
    79.4000       304
    79.4200       272
    79.4400       252
    79.4600       270
    79.4800       244
    79.5000       280
    79.5200       286
    79.5400       314
    79.5600       274
    79.5800       266
    79.6000       278
    79.6200       268
    79.6400       282
    79.6600       318
    79.6800       286
    79.7000       284
    79.7200       294
    79.7400       278
    79.7600       258
    79.7800       284
    79.8000       284
    79.8200       302
    79.8400       286
    79.8600       276
    79.8800       254
    79.9000       284
    79.9200       272
    79.9400       308
    79.9600       254
    79.9800       278
    80.0000       258
    80.0200       240
    80.0400       276
    80.0600       300
    80.0800       286
    80.1000       280
    80.1200       254
    80.1400       278
    80.1600       250
    80.1800       314
    80.2000       240
    80.2200       274
    80.2400       254
    80.2600       272
    80.2800       274
    80.3000       266
    80.3200       262
    80.3400       266
    80.3600       276
    80.3800       268
    80.4000       238
    80.4200       276
    80.4400       256
    80.4600       280
    80.4800       268
    80.5000       260
    80.5200       242
    80.5400       248
    80.5600       280
    80.5800       282
    80.6000       250
    80.6200       268
    80.6400       228
    80.6600       260
    80.6800       254
    80.7000       248
    80.7200       230
    80.7400       222
    80.7600       256
    80.7800       236
    80.8000       228
    80.8200       238
    80.8400       246
    80.8600       226
    80.8800       250
    80.9000       232
    80.9200       250
    80.9400       248
    80.9600       256
    80.9800       254
    81.0000       248
    81.0200       252
    81.0400       268
    81.0600       230
    81.0800       226
    81.1000       272
    81.1200       250
    81.1400       250
    81.1600       254
    81.1800       254
    81.2000       236
    81.2200       280
    81.2400       288
    81.2600       286
    81.2800       294
    81.3000       280
    81.3200       292
    81.3400       302
    81.3600       286
    81.3800       302
    81.4000       316
    81.4200       280
    81.4400       278
    81.4600       290
    81.4800       308
    81.5000       280
    81.5200       292
    81.5400       272
    81.5600       276
    81.5800       288
    81.6000       298
    81.6200       290
    81.6400       296
    81.6600       280
    81.6800       274
    81.7000       302
    81.7200       310
    81.7400       258
    81.7600       284
    81.7800       294
    81.8000       296
    81.8200       280
    81.8400       304
    81.8600       318
    81.8800       312
    81.9000       312
    81.9200       312
    81.9400       292
    81.9600       326
    81.9800       290
    82.0000       326
    82.0200       322
    82.0400       320
    82.0600       344
    82.0800       350
    82.1000       352
    82.1200       378
    82.1400       374
    82.1600       386
    82.1800       372
    82.2000       358
    82.2200       412
    82.2400       354
    82.2600       380
    82.2800       396
    82.3000       404
    82.3200       400
    82.3400       410
    82.3600       390
    82.3800       408
    82.4000       386
    82.4200       374
    82.4400       388
    82.4600       438
    82.4800       414
    82.5000       434
    82.5200       424
    82.5400       428
    82.5600       450
    82.5800       460
    82.6000       446
    82.6200       458
    82.6400       462
    82.6600       472
    82.6800       460
    82.7000       470
    82.7200       562
    82.7400       506
    82.7600       530
    82.7800       576
    82.8000       520
    82.8200       550
    82.8400       580
    82.8600       552
    82.8800       622
    82.9000       604
    82.9200       582
    82.9400       584
    82.9600       598
    82.9800       588
    83.0000       608
    83.0200       580
    83.0400       560
    83.0600       594
    83.0800       588
    83.1000       536
    83.1200       580
    83.1400       520
    83.1600       536
    83.1800       520
    83.2000       518
    83.2200       490
    83.2400       528
    83.2600       510
    83.2800       518
    83.3000       530
    83.3200       496
    83.3400       500
    83.3600       476
    83.3800       440
    83.4000       482
    83.4200       478
    83.4400       438
    83.4600       408
    83.4800       440
    83.5000       440
    83.5200       396
    83.5400       372
    83.5600       406
    83.5800       378
    83.6000       342
    83.6200       382
    83.6400       344
    83.6600       364
    83.6800       316
    83.7000       366
    83.7200       342
    83.7400       320
    83.7600       342
    83.7800       324
    83.8000       324
    83.8200       330
    83.8400       342
    83.8600       350
    83.8800       328
    83.9000       330
    83.9200       342
    83.9400       320
    83.9600       324
    83.9800       306
    84.0000       356
    84.0200       314
    84.0400       336
    84.0600       324
    84.0800       300
    84.1000       310
    84.1200       336
    84.1400       312
    84.1600       342
    84.1800       298
    84.2000       316
    84.2200       312
    84.2400       324
    84.2600       304
    84.2800       268
    84.3000       302
    84.3200       298
    84.3400       322
    84.3600       324
    84.3800       308
    84.4000       278
    84.4200       300
    84.4400       260
    84.4600       274
    84.4800       294
    84.5000       296
    84.5200       286
    84.5400       278
    84.5600       258
    84.5800       272
    84.6000       248
    84.6200       298
    84.6400       250
    84.6600       262
    84.6800       266
    84.7000       262
    84.7200       272
    84.7400       266
    84.7600       256
    84.7800       294
    84.8000       278
    84.8200       270
    84.8400       256
    84.8600       292
    84.8800       254
    84.9000       280
    84.9200       270
    84.9400       296
    84.9600       266
    84.9800       266
    85.0000       274
    85.0200       280
    85.0400       240
    85.0600       244
    85.0800       256
    85.1000       256
    85.1200       264
    85.1400       278
    85.1600       246
    85.1800       248
    85.2000       244
    85.2200       260
    85.2400       256
    85.2600       248
    85.2800       260
    85.3000       290
    85.3200       288
    85.3400       292
    85.3600       266
    85.3800       288
    85.4000       318
    85.4200       286
    85.4400       282
    85.4600       288
    85.4800       318
    85.5000       308
    85.5200       274
    85.5400       310
    85.5600       342
    85.5800       280
    85.6000       252
    85.6200       284
    85.6400       286
    85.6600       332
    85.6800       284
    85.7000       282
    85.7200       248
    85.7400       244
    85.7600       282
    85.7800       270
    85.8000       268
    85.8200       258
    85.8400       234
    85.8600       282
    85.8800       256
    85.9000       280
    85.9200       250
    85.9400       250
    85.9600       250
    85.9800       252
    86.0000       260
    86.0200       228
    86.0400       256
    86.0600       236
    86.0800       236
    86.1000       228
    86.1200       218
    86.1400       238
    86.1600       250
    86.1800       246
    86.2000       254
    86.2200       250
    86.2400       246
    86.2600       248
    86.2800       258
    86.3000       232
    86.3200       252
    86.3400       252
    86.3600       240
    86.3800       234
    86.4000       236
    86.4200       248
    86.4400       274
    86.4600       246
    86.4800       250
    86.5000       254
    86.5200       272
    86.5400       220
    86.5600       254
    86.5800       234
    86.6000       260
    86.6200       274
    86.6400       266
    86.6600       280
    86.6800       288
    86.7000       292
    86.7200       308
    86.7400       300
    86.7600       316
    86.7800       332
    86.8000       318
    86.8200       336
    86.8400       342
    86.8600       310
    86.8800       348
    86.9000       364
    86.9200       334
    86.9400       350
    86.9600       352
    86.9800       374
    87.0000       350
    87.0200       350
    87.0400       344
    87.0600       340
    87.0800       378
    87.1000       314
    87.1200       334
    87.1400       334
    87.1600       362
    87.1800       326
    87.2000       338
    87.2200       302
    87.2400       330
    87.2600       308
    87.2800       312
    87.3000       334
    87.3200       322
    87.3400       302
    87.3600       322
    87.3800       280
    87.4000       278
    87.4200       316
    87.4400       316
    87.4600       354
    87.4800       322
    87.5000       342
    87.5200       286
    87.5400       290
    87.5600       310
    87.5800       312
    87.6000       310
    87.6200       332
    87.6400       338
    87.6600       320
    87.6800       330
    87.7000       326
    87.7200       372
    87.7400       344
    87.7600       326
    87.7800       400
    87.8000       348
    87.8200       366
    87.8400       364
    87.8600       364
    87.8800       404
    87.9000       362
    87.9200       378
    87.9400       428
    87.9600       390
    87.9800       398
    88.0000       426
    88.0200       384
    88.0400       404
    88.0600       420
    88.0800       394
    88.1000       416
    88.1200       396
    88.1400       380
    88.1600       404
    88.1800       364
    88.2000       396
    88.2200       360
    88.2400       380
    88.2600       378
    88.2800       358
    88.3000       362
    88.3200       328
    88.3400       404
    88.3600       360
    88.3800       342
    88.4000       338
    88.4200       368
    88.4400       338
    88.4600       368
    88.4800       362
    88.5000       350
    88.5200       308
    88.5400       308
    88.5600       332
    88.5800       328
    88.6000       312
    88.6200       354
    88.6400       304
    88.6600       328
    88.6800       316
    88.7000       312
    88.7200       310
    88.7400       316
    88.7600       320
    88.7800       314
    88.8000       292
    88.8200       312
    88.8400       338
    88.8600       314
    88.8800       288
    88.9000       314
    88.9200       328
    88.9400       284
    88.9600       298
    88.9800       306
    89.0000       288
    89.0200       260
    89.0400       266
    89.0600       310
    89.0800       288
    89.1000       302
    89.1200       276
    89.1400       282
    89.1600       268
    89.1800       300
    89.2000       296
    89.2200       258
    89.2400       266
    89.2600       292
    89.2800       282
    89.3000       262
    89.3200       302
    89.3400       292
    89.3600       268
    89.3800       284
    89.4000       282
    89.4200       298
    89.4400       312
    89.4600       290
    89.4800       282
    89.5000       272
    89.5200       276
    89.5400       288
    89.5600       324
    89.5800       284
    89.6000       278
    89.6200       288
    89.6400       300
    89.6600       290
    89.6800       276
    89.7000       274
    89.7200       288
    89.7400       308
    89.7600       272
    89.7800       324
    89.8000       286
    89.8200       350
    89.8400       312
    89.8600       300
    89.8800       326
    89.9000       322
    89.9200       354
    89.9400       298
    89.9600       312
    89.9800       338
    90.0000       332
