    10.0000       378
    10.0200       360
    10.0400       338
    10.0600       412
    10.0800       390
    10.1000       370
    10.1200       368
    10.1400       366
    10.1600       350
    10.1800       360
    10.2000       364
    10.2200       320
    10.2400       338
    10.2600       344
    10.2800       368
    10.3000       340
    10.3200       340
    10.3400       330
    10.3600       352
    10.3800       344
    10.4000       334
    10.4200       346
    10.4400       352
    10.4600       316
    10.4800       330
    10.5000       374
    10.5200       338
    10.5400       340
    10.5600       340
    10.5800       310
    10.6000       362
    10.6200       308
    10.6400       332
    10.6600       294
    10.6800       344
    10.7000       330
    10.7200       336
    10.7400       300
    10.7600       298
    10.7800       320
    10.8000       346
    10.8200       298
    10.8400       324
    10.8600       332
    10.8800       332
    10.9000       324
    10.9200       314
    10.9400       320
    10.9600       320
    10.9800       324
    11.0000       356
    11.0200       336
    11.0400       306
    11.0600       298
    11.0800       344
    11.1000       348
    11.1200       286
    11.1400       338
    11.1600       306
    11.1800       290
    11.2000       318
    11.2200       334
    11.2400       356
    11.2600       314
    11.2800       334
    11.3000       318
    11.3200       322
    11.3400       334
    11.3600       322
    11.3800       302
    11.4000       324
    11.4200       284
    11.4400       300
    11.4600       342
    11.4800       296
    11.5000       324
    11.5200       330
    11.5400       288
    11.5600       332
    11.5800       308
    11.6000       342
    11.6200       368
    11.6400       308
    11.6600       310
    11.6800       304
    11.7000       326
    11.7200       318
    11.7400       336
    11.7600       346
    11.7800       346
    11.8000       316
    11.8200       348
    11.8400       320
    11.8600       348
    11.8800       370
    11.9000       388
    11.9200       440
    11.9400       394
    11.9600       400
    11.9800       436
    12.0000       414
    12.0200       446
    12.0400       494
    12.0600       516
    12.0800       532
    12.1000       570
    12.1200       640
    12.1400       620
    12.1600       744
    12.1800       786
    12.2000       768
    12.2200       768
    12.2400       724
    12.2600       632
    12.2800       562
    12.3000       464
    12.3200       444
    12.3400       400
    12.3600       354
    12.3800       326
    12.4000       336
    12.4200       302
    12.4400       314
    12.4600       294
    12.4800       306
    12.5000       300
    12.5200       272
    12.5400       274
    12.5600       260
    12.5800       286
    12.6000       304
    12.6200       288
    12.6400       276
    12.6600       284
    12.6800       256
    12.7000       248
    12.7200       260
    12.7400       278
    12.7600       238
    12.7800       260
    12.8000       284
    12.8200       260
    12.8400       288
    12.8600       244
    12.8800       286
    12.9000       252
    12.9200       294
    12.9400       286
    12.9600       272
    12.9800       274
    13.0000       284
    13.0200       276
    13.0400       256
    13.0600       282
    13.0800       248
    13.1000       270
    13.1200       224
    13.1400       282
    13.1600       272
    13.1800       252
    13.2000       238
    13.2200       230
    13.2400       264
    13.2600       266
    13.2800       276
    13.3000       252
    13.3200       268
    13.3400       266
    13.3600       254
    13.3800       246
    13.4000       266
    13.4200       238
    13.4400       256
    13.4600       264
    13.4800       232
    13.5000       236
    13.5200       250
    13.5400       252
    13.5600       254
    13.5800       268
    13.6000       264
    13.6200       242
    13.6400       268
    13.6600       244
    13.6800       256
    13.7000       254
    13.7200       264
    13.7400       230
    13.7600       226
    13.7800       256
    13.8000       268
    13.8200       194
    13.8400       246
    13.8600       244
    13.8800       240
    13.9000       268
    13.9200       274
    13.9400       224
    13.9600       220
    13.9800       252
    14.0000       228
    14.0200       254
    14.0400       252
    14.0600       252
    14.0800       234
    14.1000       248
    14.1200       222
    14.1400       246
    14.1600       208
    14.1800       244
    14.2000       222
    14.2200       224
    14.2400       240
    14.2600       240
    14.2800       246
    14.3000       244
    14.3200       226
    14.3400       214
    14.3600       220
    14.3800       230
    14.4000       214
    14.4200       216
    14.4400       222
    14.4600       210
    14.4800       234
    14.5000       280
    14.5200       238
    14.5400       238
    14.5600       268
    14.5800       238
    14.6000       236
    14.6200       236
    14.6400       258
    14.6600       252
    14.6800       232
    14.7000       306
    14.7200       284
    14.7400       230
    14.7600       292
    14.7800       304
    14.8000       288
    14.8200       290
    14.8400       274
    14.8600       298
    14.8800       368
    14.9000       364
    14.9200       396
    14.9400       388
    14.9600       436
    14.9800       438
    15.0000       508
    15.0200       510
    15.0400       486
    15.0600       520
    15.0800       602
    15.1000       582
    15.1200       600
    15.1400       648
    15.1600       660
    15.1800       698
    15.2000       732
    15.2200       666
    15.2400       580
    15.2600       532
    15.2800       474
    15.3000       418
    15.3200       366
    15.3400       278
    15.3600       292
    15.3800       266
    15.4000       256
    15.4200       264
    15.4400       270
    15.4600       262
    15.4800       246
    15.5000       224
    15.5200       230
    15.5400       234
    15.5600       260
    15.5800       222
    15.6000       214
    15.6200       234
    15.6400       208
    15.6600       214
    15.6800       240
    15.7000       236
    15.7200       222
    15.7400       210
    15.7600       206
    15.7800       194
    15.8000       228
    15.8200       216
    15.8400       202
    15.8600       194
    15.8800       200
    15.9000       214
    15.9200       224
    15.9400       216
    15.9600       212
    15.9800       202
    16.0000       206
    16.0200       228
    16.0400       210
    16.0600       216
    16.0800       244
    16.1000       202
    16.1200       228
    16.1400       216
    16.1600       272
    16.1800       224
    16.2000       224
    16.2200       214
    16.2400       226
    16.2600       262
    16.2800       222
    16.3000       240
    16.3200       212
    16.3400       230
    16.3600       244
    16.3800       238
    16.4000       228
    16.4200       248
    16.4400       214
    16.4600       228
    16.4800       214
    16.5000       254
    16.5200       230
    16.5400       252
    16.5600       240
    16.5800       246
    16.6000       260
    16.6200       246
    16.6400       250
    16.6600       286
    16.6800       270
    16.7000       264
    16.7200       280
    16.7400       308
    16.7600       314
    16.7800       338
    16.8000       342
    16.8200       352
    16.8400       356
    16.8600       406
    16.8800       460
    16.9000       468
    16.9200       522
    16.9400       566
    16.9600       646
    16.9800       720
    17.0000       804
    17.0200       898
    17.0400       958
    17.0600      1008
    17.0800      1046
    17.1000       958
    17.1200       896
    17.1400       924
    17.1600       842
    17.1800       836
    17.2000       856
    17.2200       858
    17.2400       798
    17.2600       844
    17.2800       758
    17.3000       746
    17.3200       632
    17.3400       630
    17.3600       604
    17.3800       548
    17.4000       542
    17.4200       526
    17.4400       484
    17.4600       422
    17.4800       424
    17.5000       442
    17.5200       390
    17.5400       368
    17.5600       368
    17.5800       366
    17.6000       336
    17.6200       334
    17.6400       318
    17.6600       328
    17.6800       356
    17.7000       336
    17.7200       378
    17.7400       404
    17.7600       410
    17.7800       366
    17.8000       412
    17.8200       394
    17.8400       382
    17.8600       352
    17.8800       342
    17.9000       296
    17.9200       298
    17.9400       240
    17.9600       254
    17.9800       200
    18.0000       226
    18.0200       244
    18.0400       224
    18.0600       204
    18.0800       206
    18.1000       184
    18.1200       204
    18.1400       224
    18.1600       226
    18.1800       174
    18.2000       196
    18.2200       200
    18.2400       206
    18.2600       224
    18.2800       178
    18.3000       194
    18.3200       168
    18.3400       210
    18.3600       206
    18.3800       206
    18.4000       200
    18.4200       188
    18.4400       212
    18.4600       190
    18.4800       196
    18.5000       224
    18.5200       206
    18.5400       190
    18.5600       202
    18.5800       186
    18.6000       184
    18.6200       182
    18.6400       190
    18.6600       176
    18.6800       212
    18.7000       206
    18.7200       184
    18.7400       222
    18.7600       192
    18.7800       228
    18.8000       212
    18.8200       218
    18.8400       208
    18.8600       216
    18.8800       238
    18.9000       230
    18.9200       218
    18.9400       226
    18.9600       250
    18.9800       212
    19.0000       228
    19.0200       266
    19.0400       254
    19.0600       288
    19.0800       300
    19.1000       286
    19.1200       336
    19.1400       348
    19.1600       374
    19.1800       414
    19.2000       426
    19.2200       508
    19.2400       554
    19.2600       588
    19.2800       634
    19.3000       728
    19.3200       804
    19.3400       930
    19.3600      1042
    19.3800      1260
    19.4000      1418
    19.4200      1668
    19.4400      1940
    19.4600      2328
    19.4800      2594
    19.5000      3236
    19.5200      3536
    19.5400      3768
    19.5600      3632
    19.5800      3294
    19.6000      2892
    19.6200      2310
    19.6400      1774
    19.6600      1354
    19.6800      1146
    19.7000      1062
    19.7200       920
    19.7400       956
    19.7600       956
    19.7800      1004
    19.8000      1062
    19.8200      1198
    19.8400      1328
    19.8600      1490
    19.8800      1676
    19.9000      1946
    19.9200      2206
    19.9400      2386
    19.9600      2720
    19.9800      2832
    20.0000      2752
    20.0200      2580
    20.0400      2282
    20.0600      1860
    20.0800      1552
    20.1000      1160
    20.1200       906
    20.1400       710
    20.1600       580
    20.1800       506
    20.2000       442
    20.2200       410
    20.2400       428
    20.2600       390
    20.2800       390
    20.3000       404
    20.3200       358
    20.3400       322
    20.3600       354
    20.3800       344
    20.4000       314
    20.4200       266
    20.4400       242
    20.4600       266
    20.4800       248
    20.5000       216
    20.5200       214
    20.5400       210
    20.5600       216
    20.5800       216
    20.6000       258
    20.6200       238
    20.6400       248
    20.6600       234
    20.6800       256
    20.7000       250
    20.7200       246
    20.7400       284
    20.7600       282
    20.7800       264
    20.8000       306
    20.8200       282
    20.8400       304
    20.8600       342
    20.8800       362
    20.9000       414
    20.9200       436
    20.9400       526
    20.9600       550
    20.9800       594
    21.0000       682
    21.0200       752
    21.0400       896
    21.0600       998
    21.0800      1120
    21.1000      1328
    21.1200      1530
    21.1400      1720
    21.1600      1988
    21.1800      2106
    21.2000      2256
    21.2200      2312
    21.2400      2220
    21.2600      2168
    21.2800      1884
    21.3000      1640
    21.3200      1408
    21.3400      1112
    21.3600       896
    21.3800       798
    21.4000       630
    21.4200       564
    21.4400       458
    21.4600       424
    21.4800       330
    21.5000       338
    21.5200       322
    21.5400       278
    21.5600       286
    21.5800       256
    21.6000       282
    21.6200       248
    21.6400       218
    21.6600       252
    21.6800       216
    21.7000       220
    21.7200       210
    21.7400       200
    21.7600       230
    21.7800       208
    21.8000       216
    21.8200       196
    21.8400       216
    21.8600       228
    21.8800       196
    21.9000       192
    21.9200       194
    21.9400       204
    21.9600       206
    21.9800       210
    22.0000       172
    22.0200       190
    22.0400       172
    22.0600       234
    22.0800       208
    22.1000       212
    22.1200       180
    22.1400       232
    22.1600       238
    22.1800       196
    22.2000       234
    22.2200       220
    22.2400       236
    22.2600       224
    22.2800       220
    22.3000       244
    22.3200       226
    22.3400       260
    22.3600       304
    22.3800       294
    22.4000       328
    22.4200       322
    22.4400       314
    22.4600       358
    22.4800       424
    22.5000       430
    22.5200       528
    22.5400       560
    22.5600       574
    22.5800       658
    22.6000       770
    22.6200       866
    22.6400      1006
    22.6600      1098
    22.6800      1352
    22.7000      1614
    22.7200      1854
    22.7400      2164
    22.7600      2728
    22.7800      3056
    22.8000      3692
    22.8200      4334
    22.8400      4746
    22.8600      4896
    22.8800      4840
    22.9000      4508
    22.9200      3820
    22.9400      3066
    22.9600      2308
    22.9800      1812
    23.0000      1380
    23.0200      1104
    23.0400       814
    23.0600       762
    23.0800       672
    23.1000       618
    23.1200       550
    23.1400       486
    23.1600       424
    23.1800       404
    23.2000       388
    23.2200       372
    23.2400       296
    23.2600       292
    23.2800       310
    23.3000       286
    23.3200       272
    23.3400       278
    23.3600       248
    23.3800       254
    23.4000       236
    23.4200       228
    23.4400       234
    23.4600       238
    23.4800       218
    23.5000       238
    23.5200       244
    23.5400       234
    23.5600       194
    23.5800       220
    23.6000       212
    23.6200       240
    23.6400       238
    23.6600       208
    23.6800       198
    23.7000       218
    23.7200       220
    23.7400       244
    23.7600       206
    23.7800       210
    23.8000       230
    23.8200       224
    23.8400       240
    23.8600       218
    23.8800       230
    23.9000       226
    23.9200       210
    23.9400       220
    23.9600       244
    23.9800       256
    24.0000       230
    24.0200       230
    24.0400       238
    24.0600       246
    24.0800       246
    24.1000       218
    24.1200       254
    24.1400       276
    24.1600       278
    24.1800       296
    24.2000       326
    24.2200       300
    24.2400       336
    24.2600       354
    24.2800       444
    24.3000       464
    24.3200       474
    24.3400       538
    24.3600       642
    24.3800       678
    24.4000       756
    24.4200       880
    24.4400       964
    24.4600      1144
    24.4800      1240
    24.5000      1314
    24.5200      1330
    24.5400      1436
    24.5600      1434
    24.5800      1400
    24.6000      1344
    24.6200      1236
    24.6400      1072
    24.6600      1020
    24.6800       852
    24.7000       776
    24.7200       670
    24.7400       626
    24.7600       610
    24.7800       550
    24.8000       492
    24.8200       466
    24.8400       450
    24.8600       414
    24.8800       422
    24.9000       416
    24.9200       418
    24.9400       408
    24.9600       388
    24.9800       394
    25.0000       380
    25.0200       432
    25.0400       396
    25.0600       426
    25.0800       460
    25.1000       430
    25.1200       428
    25.1400       426
    25.1600       456
    25.1800       452
    25.2000       504
    25.2200       510
    25.2400       530
    25.2600       536
    25.2800       556
    25.3000       596
    25.3200       564
    25.3400       612
    25.3600       590
    25.3800       650
    25.4000       644
    25.4200       600
    25.4400       644
    25.4600       626
    25.4800       688
    25.5000       786
    25.5200       852
    25.5400      1002
    25.5600      1080
    25.5800      1196
    25.6000      1160
    25.6200      1132
    25.6400      1074
    25.6600       934
    25.6800       854
    25.7000       704
    25.7200       600
    25.7400       534
    25.7600       458
    25.7800       398
    25.8000       366
    25.8200       312
    25.8400       318
    25.8600       306
    25.8800       260
    25.9000       284
    25.9200       278
    25.9400       246
    25.9600       250
    25.9800       240
    26.0000       240
    26.0200       268
    26.0400       250
    26.0600       224
    26.0800       238
    26.1000       262
    26.1200       214
    26.1400       250
    26.1600       204
    26.1800       226
    26.2000       248
    26.2200       254
    26.2400       248
    26.2600       258
    26.2800       262
    26.3000       302
    26.3200       262
    26.3400       302
    26.3600       296
    26.3800       294
    26.4000       304
    26.4200       336
    26.4400       336
    26.4600       316
    26.4800       352
    26.5000       332
    26.5200       354
    26.5400       306
    26.5600       352
    26.5800       336
    26.6000       386
    26.6200       376
    26.6400       362
    26.6600       386
    26.6800       390
    26.7000       360
    26.7200       338
    26.7400       328
    26.7600       328
    26.7800       296
    26.8000       306
    26.8200       308
    26.8400       284
    26.8600       280
    26.8800       250
    26.9000       246
    26.9200       264
    26.9400       258
    26.9600       258
    26.9800       262
    27.0000       248
    27.0200       266
    27.0400       282
    27.0600       304
    27.0800       276
    27.1000       314
    27.1200       316
    27.1400       328
    27.1600       330
    27.1800       350
    27.2000       390
    27.2200       410
    27.2400       436
    27.2600       480
    27.2800       580
    27.3000       536
    27.3200       644
    27.3400       736
    27.3600       828
    27.3800       932
    27.4000      1048
    27.4200      1108
    27.4400      1294
    27.4600      1300
    27.4800      1326
    27.5000      1386
    27.5200      1344
    27.5400      1284
    27.5600      1234
    27.5800      1142
    27.6000      1072
    27.6200       898
    27.6400       826
    27.6600       738
    27.6800       656
    27.7000       564
    27.7200       542
    27.7400       492
    27.7600       406
    27.7800       376
    27.8000       380
    27.8200       358
    27.8400       304
    27.8600       292
    27.8800       320
    27.9000       288
    27.9200       268
    27.9400       296
    27.9600       258
    27.9800       278
    28.0000       258
    28.0200       256
    28.0400       290
    28.0600       300
    28.0800       254
    28.1000       268
    28.1200       232
    28.1400       270
    28.1600       316
    28.1800       258
    28.2000       318
    28.2200       272
    28.2400       290
    28.2600       294
    28.2800       310
    28.3000       304
    28.3200       308
    28.3400       330
    28.3600       306
    28.3800       304
    28.4000       266
    28.4200       290
    28.4400       262
    28.4600       236
    28.4800       222
    28.5000       250
    28.5200       216
    28.5400       248
    28.5600       230
    28.5800       218
    28.6000       238
    28.6200       240
    28.6400       244
    28.6600       272
    28.6800       252
    28.7000       278
    28.7200       276
    28.7400       268
    28.7600       256
    28.7800       254
    28.8000       252
    28.8200       264
    28.8400       260
    28.8600       246
    28.8800       264
    28.9000       252
    28.9200       254
    28.9400       258
    28.9600       200
    28.9800       256
    29.0000       228
    29.0200       248
    29.0400       218
    29.0600       252
    29.0800       240
    29.1000       224
    29.1200       244
    29.1400       250
    29.1600       238
    29.1800       264
    29.2000       260
    29.2200       284
    29.2400       268
    29.2600       286
    29.2800       324
    29.3000       316
    29.3200       318
    29.3400       370
    29.3600       330
    29.3800       340
    29.4000       364
    29.4200       386
    29.4400       440
    29.4600       436
    29.4800       394
    29.5000       472
    29.5200       462
    29.5400       462
    29.5600       516
    29.5800       522
    29.6000       484
    29.6200       554
    29.6400       602
    29.6600       558
    29.6800       514
    29.7000       532
    29.7200       558
    29.7400       546
    29.7600       506
    29.7800       460
    29.8000       438
    29.8200       426
    29.8400       476
    29.8600       478
    29.8800       494
    29.9000       536
    29.9200       518
    29.9400       556
    29.9600       648
    29.9800       696
    30.0000       788
    30.0200       898
    30.0400      1020
    30.0600      1164
    30.0800      1420
    30.1000      1564
    30.1200      1734
    30.1400      1910
    30.1600      2156
    30.1800      2260
    30.2000      2270
    30.2200      2404
    30.2400      2282
    30.2600      2212
    30.2800      2086
    30.3000      1912
    30.3200      1810
    30.3400      1710
    30.3600      1716
    30.3800      1574
    30.4000      1496
    30.4200      1510
    30.4400      1510
    30.4600      1516
    30.4800      1574
    30.5000      1546
    30.5200      1736
    30.5400      1818
    30.5600      2020
    30.5800      2018
    30.6000      2194
    30.6200      2348
    30.6400      2486
    30.6600      2562
    30.6800      2690
    30.7000      2566
    30.7200      2442
    30.7400      2224
    30.7600      2018
    30.7800      1810
    30.8000      1550
    30.8200      1348
    30.8400      1180
    30.8600       882
    30.8800       820
    30.9000       754
    30.9200       682
    30.9400       648
    30.9600       604
    30.9800       594
    31.0000       592
    31.0200       560
    31.0400       490
    31.0600       522
    31.0800       472
    31.1000       462
    31.1200       416
    31.1400       394
    31.1600       354
    31.1800       330
    31.2000       324
    31.2200       318
    31.2400       326
    31.2600       308
    31.2800       310
    31.3000       274
    31.3200       276
    31.3400       262
    31.3600       274
    31.3800       300
    31.4000       266
    31.4200       284
    31.4400       312
    31.4600       290
    31.4800       324
    31.5000       294
    31.5200       322
    31.5400       330
    31.5600       358
    31.5800       358
    31.6000       370
    31.6200       404
    31.6400       448
    31.6600       456
    31.6800       522
    31.7000       506
    31.7200       504
    31.7400       624
    31.7600       624
    31.7800       758
    31.8000       820
    31.8200       956
    31.8400      1026
    31.8600      1156
    31.8800      1406
    31.9000      1612
    31.9200      1890
    31.9400      2162
    31.9600      2354
    31.9800      2554
    32.0000      2668
    32.0200      2678
    32.0400      2520
    32.0600      2222
    32.0800      2044
    32.1000      1850
    32.1200      1584
    32.1400      1454
    32.1600      1330
    32.1800      1232
    32.2000      1166
    32.2200      1198
    32.2400      1192
    32.2600      1332
    32.2800      1428
    32.3000      1506
    32.3200      1764
    32.3400      2098
    32.3600      2316
    32.3800      2906
    32.4000      3342
    32.4200      3888
    32.4400      4580
    32.4600      5622
    32.4800      6344
    32.5000      7166
    32.5200      8196
    32.5400      8566
    32.5600      8880
    32.5800      8588
    32.6000      8278
    32.6200      7540
    32.6400      6664
    32.6600      5672
    32.6800      5028
    32.7000      4062
    32.7200      3438
    32.7400      2852
    32.7600      2386
    32.7800      2002
    32.8000      1774
    32.8200      1562
    32.8400      1396
    32.8600      1278
    32.8800      1146
    32.9000      1234
    32.9200      1146
    32.9400      1170
    32.9600      1204
    32.9800      1300
    33.0000      1380
    33.0200      1450
    33.0400      1608
    33.0600      1686
    33.0800      1756
    33.1000      1790
    33.1200      1666
    33.1400      1592
    33.1600      1460
    33.1800      1254
    33.2000      1126
    33.2200       940
    33.2400       810
    33.2600       652
    33.2800       576
    33.3000       548
    33.3200       450
    33.3400       436
    33.3600       396
    33.3800       394
    33.4000       390
    33.4200       344
    33.4400       314
    33.4600       280
    33.4800       302
    33.5000       270
    33.5200       256
    33.5400       282
    33.5600       272
    33.5800       262
    33.6000       258
    33.6200       232
    33.6400       228
    33.6600       232
    33.6800       224
    33.7000       242
    33.7200       224
    33.7400       220
    33.7600       218
    33.7800       220
    33.8000       190
    33.8200       230
    33.8400       212
    33.8600       214
    33.8800       226
    33.9000       220
    33.9200       216
    33.9400       230
    33.9600       230
    33.9800       226
    34.0000       212
    34.0200       212
    34.0400       230
    34.0600       218
    34.0800       254
    34.1000       222
    34.1200       266
    34.1400       218
    34.1600       238
    34.1800       214
    34.2000       238
    34.2200       256
    34.2400       240
    34.2600       234
    34.2800       264
    34.3000       212
    34.3200       234
    34.3400       248
    34.3600       264
    34.3800       270
    34.4000       294
    34.4200       292
    34.4400       318
    34.4600       324
    34.4800       326
    34.5000       356
    34.5200       336
    34.5400       338
    34.5600       336
    34.5800       326
    34.6000       296
    34.6200       338
    34.6400       296
    34.6600       302
    34.6800       310
    34.7000       292
    34.7200       300
    34.7400       310
    34.7600       296
    34.7800       278
    34.8000       268
    34.8200       296
    34.8400       290
    34.8600       308
    34.8800       284
    34.9000       270
    34.9200       318
    34.9400       280
    34.9600       284
    34.9800       294
    35.0000       290
    35.0200       292
    35.0400       302
    35.0600       280
    35.0800       302
    35.1000       260
    35.1200       276
    35.1400       260
    35.1600       250
    35.1800       256
    35.2000       238
    35.2200       260
    35.2400       258
    35.2600       254
    35.2800       238
    35.3000       248
    35.3200       232
    35.3400       266
    35.3600       212
    35.3800       244
    35.4000       262
    35.4200       262
    35.4400       250
    35.4600       258
    35.4800       240
    35.5000       258
    35.5200       248
    35.5400       268
    35.5600       274
    35.5800       272
    35.6000       268
    35.6200       290
    35.6400       260
    35.6600       280
    35.6800       282
    35.7000       318
    35.7200       298
    35.7400       302
    35.7600       340
    35.7800       340
    35.8000       328
    35.8200       362
    35.8400       350
    35.8600       362
    35.8800       366
    35.9000       388
    35.9200       398
    35.9400       434
    35.9600       472
    35.9800       478
    36.0000       516
    36.0200       548
    36.0400       578
    36.0600       668
    36.0800       740
    36.1000       774
    36.1200       804
    36.1400       850
    36.1600       834
    36.1800       798
    36.2000       794
    36.2200       794
    36.2400       646
    36.2600       602
    36.2800       528
    36.3000       518
    36.3200       454
    36.3400       436
    36.3600       400
    36.3800       394
    36.4000       370
    36.4200       368
    36.4400       372
    36.4600       358
    36.4800       362
    36.5000       412
    36.5200       412
    36.5400       434
    36.5600       424
    36.5800       430
    36.6000       458
    36.6200       502
    36.6400       542
    36.6600       642
    36.6800       638
    36.7000       696
    36.7200       854
    36.7400       942
    36.7600      1130
    36.7800      1278
    36.8000      1458
    36.8200      1674
    36.8400      1844
    36.8600      2108
    36.8800      2266
    36.9000      2262
    36.9200      2244
    36.9400      2098
    36.9600      1886
    36.9800      1786
    37.0000      1648
    37.0200      1452
    37.0400      1350
    37.0600      1198
    37.0800      1120
    37.1000      1054
    37.1200      1014
    37.1400      1024
    37.1600       968
    37.1800       994
    37.2000       930
    37.2200       914
    37.2400       886
    37.2600       844
    37.2800       852
    37.3000       808
    37.3200       832
    37.3400       726
    37.3600       662
    37.3800       648
    37.4000       612
    37.4200       658
    37.4400       592
    37.4600       624
    37.4800       608
    37.5000       578
    37.5200       634
    37.5400       646
    37.5600       626
    37.5800       608
    37.6000       662
    37.6200       736
    37.6400       692
    37.6600       718
    37.6800       724
    37.7000       728
    37.7200       764
    37.7400       790
    37.7600       766
    37.7800       828
    37.8000       844
    37.8200       872
    37.8400       958
    37.8600      1040
    37.8800      1082
    37.9000      1280
    37.9200      1438
    37.9400      1728
    37.9600      1948
    37.9800      2012
    38.0000      2216
    38.0200      2358
    38.0400      2298
    38.0600      2186
    38.0800      2106
    38.1000      1954
    38.1200      1904
    38.1400      1752
    38.1600      1686
    38.1800      1550
    38.2000      1396
    38.2200      1444
    38.2400      1454
    38.2600      1430
    38.2800      1490
    38.3000      1758
    38.3200      1942
    38.3400      2100
    38.3600      2318
    38.3800      2764
    38.4000      3230
    38.4200      3578
    38.4400      3978
    38.4600      4224
    38.4800      4654
    38.5000      4752
    38.5200      4870
    38.5400      4852
    38.5600      4770
    38.5800      4702
    38.6000      4726
    38.6200      4764
    38.6400      4774
    38.6600      4754
    38.6800      4554
    38.7000      4688
    38.7200      4630
    38.7400      4382
    38.7600      4250
    38.7800      3898
    38.8000      3630
    38.8200      3270
    38.8400      2826
    38.8600      2570
    38.8800      2306
    38.9000      1954
    38.9200      1706
    38.9400      1450
    38.9600      1292
    38.9800      1238
    39.0000      1104
    39.0200      1024
    39.0400      1082
    39.0600       976
    39.0800      1002
    39.1000       984
    39.1200       984
    39.1400       940
    39.1600       964
    39.1800      1002
    39.2000       982
    39.2200      1004
    39.2400       988
    39.2600      1046
    39.2800      1060
    39.3000      1050
    39.3200      1000
    39.3400      1074
    39.3600      1048
    39.3800      1050
    39.4000      1044
    39.4200      1032
    39.4400      1040
    39.4600      1034
    39.4800      1084
    39.5000      1112
    39.5200      1166
    39.5400      1284
    39.5600      1408
    39.5800      1528
    39.6000      1832
    39.6200      2048
    39.6400      2258
    39.6600      2398
    39.6800      2606
    39.7000      2608
    39.7200      2610
    39.7400      2448
    39.7600      2150
    39.7800      2092
    39.8000      1902
    39.8200      1686
    39.8400      1450
    39.8600      1316
    39.8800      1086
    39.9000       988
    39.9200       858
    39.9400       770
    39.9600       750
    39.9800       672
    40.0000       660
    40.0200       654
    40.0400       616
    40.0600       622
    40.0800       676
    40.1000       582
    40.1200       620
    40.1400       626
    40.1600       682
    40.1800       686
    40.2000       668
    40.2200       650
    40.2400       616
    40.2600       678
    40.2800       686
    40.3000       654
    40.3200       762
    40.3400       688
    40.3600       736
    40.3800       780
    40.4000       792
    40.4200       894
    40.4400       936
    40.4600       976
    40.4800      1042
    40.5000      1298
    40.5200      1360
    40.5400      1470
    40.5600      1522
    40.5800      1456
    40.6000      1662
    40.6200      1534
    40.6400      1574
    40.6600      1486
    40.6800      1444
    40.7000      1348
    40.7200      1158
    40.7400      1000
    40.7600       956
    40.7800       886
    40.8000       806
    40.8200       740
    40.8400       734
    40.8600       674
    40.8800       608
    40.9000       588
    40.9200       618
    40.9400       568
    40.9600       616
    40.9800       658
    41.0000       644
    41.0200       670
    41.0400       690
    41.0600       726
    41.0800       800
    41.1000       900
    41.1200       948
    41.1400      1030
    41.1600      1150
    41.1800      1212
    41.2000      1354
    41.2200      1406
    41.2400      1528
    41.2600      1536
    41.2800      1714
    41.3000      1776
    41.3200      1834
    41.3400      1730
    41.3600      1738
    41.3800      1602
    41.4000      1582
    41.4200      1566
    41.4400      1414
    41.4600      1394
    41.4800      1308
    41.5000      1276
    41.5200      1296
    41.5400      1182
    41.5600      1170
    41.5800      1098
    41.6000      1064
    41.6200      1022
    41.6400       960
    41.6600      1016
    41.6800       954
    41.7000       984
    41.7200      1022
    41.7400      1094
    41.7600      1152
    41.7800      1302
    41.8000      1424
    41.8200      1602
    41.8400      1744
    41.8600      1798
    41.8800      1974
    41.9000      1926
    41.9200      1966
    41.9400      1928
    41.9600      1798
    41.9800      1674
    42.0000      1518
    42.0200      1396
    42.0400      1250
    42.0600      1164
    42.0800       984
    42.1000       900
    42.1200       804
    42.1400       708
    42.1600       642
    42.1800       564
    42.2000       586
    42.2200       498
    42.2400       518
    42.2600       470
    42.2800       442
    42.3000       434
    42.3200       438
    42.3400       388
    42.3600       406
    42.3800       370
    42.4000       378
    42.4200       378
    42.4400       360
    42.4600       384
    42.4800       372
    42.5000       372
    42.5200       362
    42.5400       332
    42.5600       356
    42.5800       338
    42.6000       324
    42.6200       338
    42.6400       362
    42.6600       330
    42.6800       376
    42.7000       338
    42.7200       344
    42.7400       350
    42.7600       362
    42.7800       348
    42.8000       448
    42.8200       434
    42.8400       394
    42.8600       384
    42.8800       444
    42.9000       500
    42.9200       484
    42.9400       570
    42.9600       612
    42.9800       616
    43.0000       664
    43.0200       794
    43.0400       852
    43.0600      1008
    43.0800      1128
    43.1000      1344
    43.1200      1554
    43.1400      1648
    43.1600      1838
    43.1800      1924
    43.2000      1974
    43.2200      1888
    43.2400      1888
    43.2600      1746
    43.2800      1706
    43.3000      1636
    43.3200      1404
    43.3400      1298
    43.3600      1166
    43.3800      1014
    43.4000       946
    43.4200       806
    43.4400       708
    43.4600       682
    43.4800       614
    43.5000       632
    43.5200       526
    43.5400       544
    43.5600       508
    43.5800       468
    43.6000       476
    43.6200       460
    43.6400       528
    43.6600       550
    43.6800       560
    43.7000       594
    43.7200       580
    43.7400       608
    43.7600       678
    43.7800       698
    43.8000       722
    43.8200       762
    43.8400       764
    43.8600       724
    43.8800       676
    43.9000       680
    43.9200       676
    43.9400       618
    43.9600       562
    43.9800       600
    44.0000       542
    44.0200       520
    44.0400       474
    44.0600       506
    44.0800       440
    44.1000       420
    44.1200       362
    44.1400       408
    44.1600       362
    44.1800       364
    44.2000       422
    44.2200       392
    44.2400       384
    44.2600       376
    44.2800       390
    44.3000       390
    44.3200       420
    44.3400       394
    44.3600       398
    44.3800       400
    44.4000       422
    44.4200       428
    44.4400       454
    44.4600       402
    44.4800       378
    44.5000       460
    44.5200       414
    44.5400       380
    44.5600       426
    44.5800       412
    44.6000       452
    44.6200       446
    44.6400       410
    44.6600       460
    44.6800       438
    44.7000       464
    44.7200       510
    44.7400       542
    44.7600       512
    44.7800       622
    44.8000       620
    44.8200       744
    44.8400       740
    44.8600       826
    44.8800       892
    44.9000       964
    44.9200      1098
    44.9400      1170
    44.9600      1264
    44.9800      1412
    45.0000      1552
    45.0200      1670
    45.0400      1752
    45.0600      1820
    45.0800      1840
    45.1000      1850
    45.1200      1838
    45.1400      1814
    45.1600      1854
    45.1800      1842
    45.2000      1774
    45.2200      1770
    45.2400      1684
    45.2600      1616
    45.2800      1566
    45.3000      1478
    45.3200      1420
    45.3400      1302
    45.3600      1284
    45.3800      1132
    45.4000      1124
    45.4200      1028
    45.4400      1042
    45.4600      1018
    45.4800       900
    45.5000       844
    45.5200       806
    45.5400       802
    45.5600       820
    45.5800       790
    45.6000       714
    45.6200       750
    45.6400       732
    45.6600       706
    45.6800       694
    45.7000       698
    45.7200       750
    45.7400       778
    45.7600       748
    45.7800       736
    45.8000       794
    45.8200       792
    45.8400       802
    45.8600       780
    45.8800       790
    45.9000       752
    45.9200       714
    45.9400       716
    45.9600       714
    45.9800       644
    46.0000       658
    46.0200       636
    46.0400       626
    46.0600       650
    46.0800       622
    46.1000       672
    46.1200       666
    46.1400       688
    46.1600       696
    46.1800       706
    46.2000       754
    46.2200       784
    46.2400       830
    46.2600       812
    46.2800       840
    46.3000       920
    46.3200       966
    46.3400      1052
    46.3600      1216
    46.3800      1170
    46.4000      1392
    46.4200      1532
    46.4400      1708
    46.4600      1868
    46.4800      2078
    46.5000      2416
    46.5200      2808
    46.5400      3226
    46.5600      3744
    46.5800      4318
    46.6000      4928
    46.6200      5816
    46.6400      6520
    46.6600      7304
    46.6800      7932
    46.7000      8304
    46.7200      8642
    46.7400      8310
    46.7600      7934
    46.7800      7436
    46.8000      6992
    46.8200      6276
    46.8400      5720
    46.8600      5098
    46.8800      4520
    46.9000      3746
    46.9200      3208
    46.9400      2794
    46.9600      2410
    46.9800      2080
    47.0000      1780
    47.0200      1438
    47.0400      1452
    47.0600      1290
    47.0800      1150
    47.1000       996
    47.1200      1032
    47.1400       920
    47.1600       846
    47.1800       722
    47.2000       730
    47.2200       680
    47.2400       608
    47.2600       610
    47.2800       612
    47.3000       564
    47.3200       572
    47.3400       550
    47.3600       534
    47.3800       484
    47.4000       474
    47.4200       476
    47.4400       476
    47.4600       460
    47.4800       460
    47.5000       442
    47.5200       458
    47.5400       450
    47.5600       440
    47.5800       460
    47.6000       486
    47.6200       482
    47.6400       460
    47.6600       490
    47.6800       526
    47.7000       560
    47.7200       576
    47.7400       622
    47.7600       674
    47.7800       790
    47.8000       812
    47.8200       812
    47.8400       850
    47.8600       840
    47.8800       820
    47.9000       814
    47.9200       804
    47.9400       782
    47.9600       742
    47.9800       748
    48.0000       726
    48.0200       708
    48.0400       762
    48.0600       748
    48.0800       706
    48.1000       756
    48.1200       746
    48.1400       866
    48.1600       886
    48.1800       924
    48.2000       922
    48.2200      1020
    48.2400       968
    48.2600       926
    48.2800      1024
    48.3000       930
    48.3200       908
    48.3400       930
    48.3600       956
    48.3800       914
    48.4000       904
    48.4200       876
    48.4400       974
    48.4600       964
    48.4800      1024
    48.5000      1030
    48.5200      1042
    48.5400      1082
    48.5600      1102
    48.5800      1198
    48.6000      1212
    48.6200      1206
    48.6400      1198
    48.6600      1156
    48.6800      1154
    48.7000      1144
    48.7200      1102
    48.7400       982
    48.7600      1004
    48.7800       962
    48.8000       950
    48.8200       840
    48.8400       814
    48.8600       768
    48.8800       762
    48.9000       688
    48.9200       662
    48.9400       636
    48.9600       594
    48.9800       524
    49.0000       482
    49.0200       466
    49.0400       464
    49.0600       416
    49.0800       448
    49.1000       358
    49.1200       380
    49.1400       384
    49.1600       374
    49.1800       364
    49.2000       334
    49.2200       362
    49.2400       336
    49.2600       348
    49.2800       326
    49.3000       316
    49.3200       316
    49.3400       304
    49.3600       320
    49.3800       338
    49.4000       322
    49.4200       316
    49.4400       306
    49.4600       318
    49.4800       312
    49.5000       320
    49.5200       294
    49.5400       312
    49.5600       316
    49.5800       292
    49.6000       300
    49.6200       348
    49.6400       330
    49.6600       322
    49.6800       322
    49.7000       348
    49.7200       304
    49.7400       370
    49.7600       376
    49.7800       350
    49.8000       338
    49.8200       328
    49.8400       358
    49.8600       360
    49.8800       402
    49.9000       436
    49.9200       382
    49.9400       442
    49.9600       428
    49.9800       502
    50.0000       506
    50.0200       544
    50.0400       572
    50.0600       648
    50.0800       688
    50.1000       718
    50.1200       754
    50.1400       850
    50.1600       908
    50.1800       934
    50.2000      1062
    50.2200      1110
    50.2400      1190
    50.2600      1254
    50.2800      1354
    50.3000      1396
    50.3200      1390
    50.3400      1478
    50.3600      1528
    50.3800      1426
    50.4000      1418
    50.4200      1350
    50.4400      1434
    50.4600      1286
    50.4800      1298
    50.5000      1274
    50.5200      1228
    50.5400      1212
    50.5600      1128
    50.5800      1066
    50.6000      1006
    50.6200      1004
    50.6400      1034
    50.6600      1050
    50.6800      1030
    50.7000      1006
    50.7200      1064
    50.7400      1130
    50.7600      1090
    50.7800      1196
    50.8000      1208
    50.8200      1292
    50.8400      1272
    50.8600      1296
    50.8800      1308
    50.9000      1282
    50.9200      1300
    50.9400      1312
    50.9600      1220
    50.9800      1174
    51.0000      1136
    51.0200      1080
    51.0400      1006
    51.0600       984
    51.0800       912
    51.1000       896
    51.1200       772
    51.1400       862
    51.1600       750
    51.1800       794
    51.2000       764
    51.2200       714
    51.2400       742
    51.2600       758
    51.2800       792
    51.3000       846
    51.3200       792
    51.3400       852
    51.3600       876
    51.3800       870
    51.4000       938
    51.4200       900
    51.4400       864
    51.4600       900
    51.4800       894
    51.5000       912
    51.5200       824
    51.5400       934
    51.5600       818
    51.5800       848
    51.6000       782
    51.6200       812
    51.6400       846
    51.6600       802
    51.6800       836
    51.7000       890
    51.7200       940
    51.7400       976
    51.7600      1078
    51.7800      1174
    51.8000      1228
    51.8200      1262
    51.8400      1198
    51.8600      1294
    51.8800      1386
    51.9000      1354
    51.9200      1400
    51.9400      1344
    51.9600      1350
    51.9800      1326
    52.0000      1402
    52.0200      1360
    52.0400      1332
    52.0600      1318
    52.0800      1158
    52.1000      1106
    52.1200      1040
    52.1400       980
    52.1600       928
    52.1800       880
    52.2000       820
    52.2200       812
    52.2400       704
    52.2600       768
    52.2800       738
    52.3000       676
    52.3200       726
    52.3400       694
    52.3600       708
    52.3800       774
    52.4000       814
    52.4200       832
    52.4400       896
    52.4600       980
    52.4800      1068
    52.5000      1144
    52.5200      1284
    52.5400      1330
    52.5600      1420
    52.5800      1468
    52.6000      1482
    52.6200      1496
    52.6400      1530
    52.6600      1530
    52.6800      1504
    52.7000      1418
    52.7200      1442
    52.7400      1330
    52.7600      1226
    52.7800      1154
    52.8000      1072
    52.8200      1066
    52.8400       956
    52.8600       936
    52.8800       846
    52.9000       800
    52.9200       760
    52.9400       790
    52.9600       700
    52.9800       718
    53.0000       768
    53.0200       744
    53.0400       826
    53.0600       846
    53.0800       860
    53.1000       910
    53.1200      1000
    53.1400      1134
    53.1600      1272
    53.1800      1400
    53.2000      1518
    53.2200      1648
    53.2400      1778
    53.2600      1686
    53.2800      1912
    53.3000      1808
    53.3200      1734
    53.3400      1604
    53.3600      1508
    53.3800      1566
    53.4000      1412
    53.4200      1340
    53.4400      1262
    53.4600      1116
    53.4800      1024
    53.5000       952
    53.5200       892
    53.5400       766
    53.5600       686
    53.5800       672
    53.6000       678
    53.6200       624
    53.6400       576
    53.6600       564
    53.6800       550
    53.7000       522
    53.7200       508
    53.7400       506
    53.7600       470
    53.7800       476
    53.8000       462
    53.8200       408
    53.8400       412
    53.8600       460
    53.8800       454
    53.9000       444
    53.9200       454
    53.9400       420
    53.9600       394
    53.9800       402
    54.0000       438
    54.0200       384
    54.0400       394
    54.0600       376
    54.0800       400
    54.1000       432
    54.1200       452
    54.1400       424
    54.1600       370
    54.1800       428
    54.2000       440
    54.2200       430
    54.2400       428
    54.2600       478
    54.2800       486
    54.3000       448
    54.3200       434
    54.3400       468
    54.3600       476
    54.3800       486
    54.4000       492
    54.4200       508
    54.4400       514
    54.4600       518
    54.4800       610
    54.5000       586
    54.5200       638
    54.5400       668
    54.5600       684
    54.5800       718
    54.6000       716
    54.6200       738
    54.6400       800
    54.6600       796
    54.6800       892
    54.7000       856
    54.7200       938
    54.7400       908
    54.7600       996
    54.7800       938
    54.8000       944
    54.8200       928
    54.8400       884
    54.8600       786
    54.8800       848
    54.9000       850
    54.9200       894
    54.9400       854
    54.9600       784
    54.9800       772
    55.0000       856
    55.0200       860
    55.0400       814
    55.0600       868
    55.0800       876
    55.1000       902
    55.1200       872
    55.1400       918
    55.1600       902
    55.1800       942
    55.2000       954
    55.2200       950
    55.2400       926
    55.2600       930
    55.2800       868
    55.3000       908
    55.3200       858
    55.3400       830
    55.3600       816
    55.3800       730
    55.4000       724
    55.4200       666
    55.4400       690
    55.4600       646
    55.4800       592
    55.5000       588
    55.5200       548
    55.5400       564
    55.5600       492
    55.5800       512
    55.6000       456
    55.6200       436
    55.6400       448
    55.6600       452
    55.6800       364
    55.7000       452
    55.7200       380
    55.7400       388
    55.7600       388
    55.7800       346
    55.8000       340
    55.8200       360
    55.8400       334
    55.8600       322
    55.8800       320
    55.9000       320
    55.9200       340
    55.9400       302
    55.9600       340
    55.9800       282
    56.0000       306
    56.0200       302
    56.0400       312
    56.0600       308
    56.0800       284
    56.1000       320
    56.1200       290
    56.1400       300
    56.1600       310
    56.1800       282
    56.2000       308
    56.2200       284
    56.2400       308
    56.2600       316
    56.2800       272
    56.3000       288
    56.3200       298
    56.3400       338
    56.3600       286
    56.3800       312
    56.4000       304
    56.4200       310
    56.4400       314
    56.4600       292
    56.4800       350
    56.5000       334
    56.5200       330
    56.5400       352
    56.5600       340
    56.5800       354
    56.6000       374
    56.6200       350
    56.6400       352
    56.6600       376
    56.6800       432
    56.7000       400
    56.7200       432
    56.7400       416
    56.7600       472
    56.7800       420
    56.8000       428
    56.8200       446
    56.8400       460
    56.8600       472
    56.8800       488
    56.9000       426
    56.9200       442
    56.9400       436
    56.9600       482
    56.9800       510
    57.0000       510
    57.0200       494
    57.0400       510
    57.0600       524
    57.0800       542
    57.1000       606
    57.1200       578
    57.1400       638
    57.1600       678
    57.1800       746
    57.2000       832
    57.2200       926
    57.2400       996
    57.2600      1118
    57.2800      1178
    57.3000      1332
    57.3200      1432
    57.3400      1534
    57.3600      1700
    57.3800      1734
    57.4000      1666
    57.4200      1742
    57.4400      1644
    57.4600      1568
    57.4800      1464
    57.5000      1588
    57.5200      1494
    57.5400      1474
    57.5600      1452
    57.5800      1372
    57.6000      1446
    57.6200      1456
    57.6400      1490
    57.6600      1564
    57.6800      1498
    57.7000      1680
    57.7200      1580
    57.7400      1708
    57.7600      1742
    57.7800      1706
    57.8000      1556
    57.8200      1560
    57.8400      1482
    57.8600      1368
    57.8800      1330
    57.9000      1314
    57.9200      1258
    57.9400      1176
    57.9600      1042
    57.9800      1020
    58.0000       970
    58.0200       932
    58.0400       802
    58.0600       814
    58.0800       726
    58.1000       818
    58.1200       750
    58.1400       748
    58.1600       766
    58.1800       758
    58.2000       844
    58.2200       856
    58.2400       880
    58.2600       920
    58.2800      1018
    58.3000      1056
    58.3200      1082
    58.3400      1324
    58.3600      1358
    58.3800      1440
    58.4000      1436
    58.4200      1680
    58.4400      1750
    58.4600      1858
    58.4800      1886
    58.5000      2074
    58.5200      2128
    58.5400      2348
    58.5600      2376
    58.5800      2596
    58.6000      2516
    58.6200      2670
    58.6400      2860
    58.6600      2952
    58.6800      3164
    58.7000      3232
    58.7200      3392
    58.7400      3350
    58.7600      3378
    58.7800      3302
    58.8000      3134
    58.8200      3054
    58.8400      2858
    58.8600      2800
    58.8800      2626
    58.9000      2480
    58.9200      2360
    58.9400      2106
    58.9600      1922
    58.9800      1790
    59.0000      1576
    59.0200      1466
    59.0400      1388
    59.0600      1232
    59.0800      1164
    59.1000      1100
    59.1200       904
    59.1400       926
    59.1600       850
    59.1800       776
    59.2000       782
    59.2200       758
    59.2400       724
    59.2600       684
    59.2800       704
    59.3000       702
    59.3200       740
    59.3400       750
    59.3600       788
    59.3800       868
    59.4000       836
    59.4200       872
    59.4400       926
    59.4600       834
    59.4800       876
    59.5000       902
    59.5200       874
    59.5400       898
    59.5600       848
    59.5800       876
    59.6000       890
    59.6200       914
    59.6400       862
    59.6600       880
    59.6800       868
    59.7000       904
    59.7200       894
    59.7400       898
    59.7600       864
    59.7800       904
    59.8000       844
    59.8200       884
    59.8400       832
    59.8600       786
    59.8800       840
    59.9000       830
    59.9200       828
    59.9400       752
    59.9600       728
    59.9800       754
    60.0000       688
    60.0200       650
    60.0400       684
    60.0600       690
    60.0800       592
    60.1000       568
    60.1200       570
    60.1400       574
    60.1600       534
    60.1800       544
    60.2000       524
    60.2200       522
    60.2400       488
    60.2600       472
    60.2800       440
    60.3000       460
    60.3200       418
    60.3400       456
    60.3600       402
    60.3800       442
    60.4000       428
    60.4200       414
    60.4400       418
    60.4600       432
    60.4800       448
    60.5000       432
    60.5200       404
    60.5400       390
    60.5600       398
    60.5800       398
    60.6000       404
    60.6200       400
    60.6400       414
    60.6600       442
    60.6800       440
    60.7000       398
    60.7200       476
    60.7400       438
    60.7600       486
    60.7800       480
    60.8000       468
    60.8200       470
    60.8400       470
    60.8600       510
    60.8800       508
    60.9000       522
    60.9200       532
    60.9400       560
    60.9600       564
    60.9800       562
    61.0000       600
    61.0200       658
    61.0400       650
    61.0600       654
    61.0800       656
    61.1000       728
    61.1200       740
    61.1400       732
    61.1600       740
    61.1800       752
    61.2000       716
    61.2200       798
    61.2400       744
    61.2600       744
    61.2800       730
    61.3000       754
    61.3200       758
    61.3400       746
    61.3600       776
    61.3800       726
    61.4000       772
    61.4200       768
    61.4400       792
    61.4600       754
    61.4800       778
    61.5000       832
    61.5200       880
    61.5400       846
    61.5600       874
    61.5800       846
    61.6000       846
    61.6200       848
    61.6400       880
    61.6600       808
    61.6800       778
    61.7000       776
    61.7200       756
    61.7400       766
    61.7600       698
    61.7800       672
    61.8000       646
    61.8200       670
    61.8400       618
    61.8600       606
    61.8800       602
    61.9000       630
    61.9200       622
    61.9400       568
    61.9600       604
    61.9800       560
    62.0000       582
    62.0200       600
    62.0400       574
    62.0600       574
    62.0800       552
    62.1000       552
    62.1200       592
    62.1400       588
    62.1600       556
    62.1800       542
    62.2000       540
    62.2200       556
    62.2400       510
    62.2600       504
    62.2800       534
    62.3000       512
    62.3200       510
    62.3400       486
    62.3600       492
    62.3800       494
    62.4000       496
    62.4200       460
    62.4400       452
    62.4600       478
    62.4800       418
    62.5000       426
    62.5200       430
    62.5400       432
    62.5600       382
    62.5800       398
    62.6000       402
    62.6200       394
    62.6400       374
    62.6600       372
    62.6800       398
    62.7000       358
    62.7200       362
    62.7400       360
    62.7600       388
    62.7800       336
    62.8000       346
    62.8200       392
    62.8400       362
    62.8600       362
    62.8800       352
    62.9000       346
    62.9200       364
    62.9400       338
    62.9600       316
    62.9800       298
    63.0000       296
    63.0200       346
    63.0400       302
    63.0600       288
    63.0800       280
    63.1000       290
    63.1200       286
    63.1400       274
    63.1600       288
    63.1800       260
    63.2000       256
    63.2200       270
    63.2400       270
    63.2600       236
    63.2800       290
    63.3000       258
    63.3200       268
    63.3400       258
    63.3600       252
    63.3800       284
    63.4000       284
    63.4200       242
    63.4400       288
    63.4600       258
    63.4800       278
    63.5000       302
    63.5200       248
    63.5400       278
    63.5600       302
    63.5800       322
    63.6000       324
    63.6200       356
    63.6400       362
    63.6600       400
    63.6800       378
    63.7000       426
    63.7200       396
    63.7400       428
    63.7600       472
    63.7800       506
    63.8000       542
    63.8200       570
    63.8400       558
    63.8600       570
    63.8800       594
    63.9000       568
    63.9200       628
    63.9400       516
    63.9600       582
    63.9800       574
    64.0000       546
    64.0200       530
    64.0400       496
    64.0600       500
    64.0800       494
    64.1000       484
    64.1200       426
    64.1400       432
    64.1600       406
    64.1800       362
    64.2000       346
    64.2200       306
    64.2400       372
    64.2600       344
    64.2800       304
    64.3000       334
    64.3200       334
    64.3400       300
    64.3600       340
    64.3800       290
    64.4000       302
    64.4200       240
    64.4400       262
    64.4600       272
    64.4800       252
    64.5000       280
    64.5200       268
    64.5400       270
    64.5600       258
    64.5800       270
    64.6000       230
    64.6200       246
    64.6400       242
    64.6600       242
    64.6800       240
    64.7000       218
    64.7200       264
    64.7400       242
    64.7600       240
    64.7800       228
    64.8000       246
    64.8200       244
    64.8400       236
    64.8600       246
    64.8800       238
    64.9000       222
    64.9200       244
    64.9400       250
    64.9600       260
    64.9800       266
    65.0000       270
    65.0200       276
    65.0400       296
    65.0600       280
    65.0800       318
    65.1000       292
    65.1200       356
    65.1400       324
    65.1600       366
    65.1800       354
    65.2000       332
    65.2200       396
    65.2400       424
    65.2600       416
    65.2800       418
    65.3000       430
    65.3200       452
    65.3400       422
    65.3600       472
    65.3800       458
    65.4000       498
    65.4200       422
    65.4400       408
    65.4600       422
    65.4800       430
    65.5000       394
    65.5200       438
    65.5400       388
    65.5600       390
    65.5800       362
    65.6000       382
    65.6200       396
    65.6400       328
    65.6600       352
    65.6800       316
    65.7000       310
    65.7200       334
    65.7400       316
    65.7600       332
    65.7800       300
    65.8000       300
    65.8200       272
    65.8400       282
    65.8600       274
    65.8800       306
    65.9000       262
    65.9200       276
    65.9400       256
    65.9600       308
    65.9800       256
    66.0000       252
    66.0200       258
    66.0400       250
    66.0600       272
    66.0800       244
    66.1000       252
    66.1200       280
    66.1400       280
    66.1600       238
    66.1800       260
    66.2000       250
    66.2200       244
    66.2400       268
    66.2600       264
    66.2800       274
    66.3000       254
    66.3200       284
    66.3400       290
    66.3600       260
    66.3800       276
    66.4000       314
    66.4200       320
    66.4400       322
    66.4600       310
    66.4800       306
    66.5000       338
    66.5200       342
    66.5400       404
    66.5600       402
    66.5800       422
    66.6000       462
    66.6200       506
    66.6400       488
    66.6600       538
    66.6800       536
    66.7000       602
    66.7200       580
    66.7400       672
    66.7600       674
    66.7800       712
    66.8000       736
    66.8200       750
    66.8400       814
    66.8600       838
    66.8800       772
    66.9000       922
    66.9200       896
    66.9400       794
    66.9600       840
    66.9800       802
    67.0000       842
    67.0200       790
    67.0400       774
    67.0600       718
    67.0800       682
    67.1000       684
    67.1200       664
    67.1400       584
    67.1600       564
    67.1800       568
    67.2000       556
    67.2200       538
    67.2400       492
    67.2600       458
    67.2800       436
    67.3000       418
    67.3200       438
    67.3400       406
    67.3600       386
    67.3800       336
    67.4000       382
    67.4200       340
    67.4400       358
    67.4600       328
    67.4800       358
    67.5000       358
    67.5200       308
    67.5400       312
    67.5600       324
    67.5800       328
    67.6000       340
    67.6200       346
    67.6400       288
    67.6600       336
    67.6800       310
    67.7000       362
    67.7200       308
    67.7400       362
    67.7600       338
    67.7800       352
    67.8000       408
    67.8200       412
    67.8400       444
    67.8600       464
    67.8800       434
    67.9000       460
    67.9200       500
    67.9400       548
    67.9600       658
    67.9800       658
    68.0000       742
    68.0200       766
    68.0400       886
    68.0600       946
    68.0800       952
    68.1000      1104
    68.1200      1136
    68.1400      1198
    68.1600      1198
    68.1800      1196
    68.2000      1248
    68.2200      1184
    68.2400      1216
    68.2600      1198
    68.2800      1218
    68.3000      1200
    68.3200      1190
    68.3400      1104
    68.3600      1122
    68.3800       990
    68.4000       978
    68.4200       926
    68.4400       844
    68.4600       794
    68.4800       864
    68.5000       746
    68.5200       698
    68.5400       626
    68.5600       608
    68.5800       584
    68.6000       566
    68.6200       468
    68.6400       500
    68.6600       462
    68.6800       434
    68.7000       410
    68.7200       374
    68.7400       358
    68.7600       372
    68.7800       370
    68.8000       356
    68.8200       376
    68.8400       366
    68.8600       334
    68.8800       326
    68.9000       320
    68.9200       332
    68.9400       304
    68.9600       328
    68.9800       332
    69.0000       328
    69.0200       334
    69.0400       316
    69.0600       316
    69.0800       338
    69.1000       340
    69.1200       332
    69.1400       372
    69.1600       344
    69.1800       384
    69.2000       358
    69.2200       366
    69.2400       372
    69.2600       448
    69.2800       416
    69.3000       484
    69.3200       464
    69.3400       498
    69.3600       518
    69.3800       536
    69.4000       568
    69.4200       558
    69.4400       554
    69.4600       558
    69.4800       536
    69.5000       546
    69.5200       482
    69.5400       540
    69.5600       502
    69.5800       486
    69.6000       450
    69.6200       448
    69.6400       436
    69.6600       468
    69.6800       394
    69.7000       394
    69.7200       386
    69.7400       374
    69.7600       342
    69.7800       330
    69.8000       320
    69.8200       298
    69.8400       312
    69.8600       304
    69.8800       316
    69.9000       306
    69.9200       318
    69.9400       310
    69.9600       290
    69.9800       282
    70.0000       276
    70.0200       250
    70.0400       272
    70.0600       266
    70.0800       284
    70.1000       264
    70.1200       254
    70.1400       258
    70.1600       246
    70.1800       276
    70.2000       244
    70.2200       254
    70.2400       230
    70.2600       222
    70.2800       218
    70.3000       244
    70.3200       244
    70.3400       244
    70.3600       254
    70.3800       226
    70.4000       240
    70.4200       228
    70.4400       190
    70.4600       236
    70.4800       252
    70.5000       248
    70.5200       236
    70.5400       268
    70.5600       264
    70.5800       246
    70.6000       258
    70.6200       274
    70.6400       260
    70.6600       248
    70.6800       268
    70.7000       236
    70.7200       240
    70.7400       244
    70.7600       262
    70.7800       258
    70.8000       242
    70.8200       230
    70.8400       226
    70.8600       228
    70.8800       240
    70.9000       228
    70.9200       236
    70.9400       212
    70.9600       216
    70.9800       238
    71.0000       238
    71.0200       226
    71.0400       228
    71.0600       218
    71.0800       232
    71.1000       230
    71.1200       228
    71.1400       234
    71.1600       242
    71.1800       258
    71.2000       286
    71.2200       288
    71.2400       286
    71.2600       320
    71.2800       330
    71.3000       376
    71.3200       342
    71.3400       372
    71.3600       432
    71.3800       482
    71.4000       474
    71.4200       478
    71.4400       510
    71.4600       552
    71.4800       638
    71.5000       614
    71.5200       616
    71.5400       624
    71.5600       592
    71.5800       638
    71.6000       624
    71.6200       604
    71.6400       604
    71.6600       628
    71.6800       628
    71.7000       618
    71.7200       598
    71.7400       584
    71.7600       554
    71.7800       524
    71.8000       530
    71.8200       516
    71.8400       528
    71.8600       518
    71.8800       466
    71.9000       484
    71.9200       494
    71.9400       506
    71.9600       478
    71.9800       464
    72.0000       466
    72.0200       428
    72.0400       466
    72.0600       438
    72.0800       438
    72.1000       416
    72.1200       442
    72.1400       444
    72.1600       466
    72.1800       510
    72.2000       464
    72.2200       506
    72.2400       528
    72.2600       538
    72.2800       514
    72.3000       552
    72.3200       578
    72.3400       506
    72.3600       502
    72.3800       512
    72.4000       574
    72.4200       506
    72.4400       550
    72.4600       524
    72.4800       534
    72.5000       522
    72.5200       518
    72.5400       480
    72.5600       486
    72.5800       504
    72.6000       474
    72.6200       472
    72.6400       442
    72.6600       490
    72.6800       420
    72.7000       462
    72.7200       446
    72.7400       480
    72.7600       460
    72.7800       440
    72.8000       438
    72.8200       468
    72.8400       416
    72.8600       460
    72.8800       422
    72.9000       444
    72.9200       420
    72.9400       424
    72.9600       398
    72.9800       374
    73.0000       384
    73.0200       372
    73.0400       380
    73.0600       390
    73.0800       346
    73.1000       352
    73.1200       360
    73.1400       324
    73.1600       306
    73.1800       316
    73.2000       282
    73.2200       292
    73.2400       302
    73.2600       280
    73.2800       250
    73.3000       272
    73.3200       258
    73.3400       264
    73.3600       238
    73.3800       218
    73.4000       218
    73.4200       256
    73.4400       252
    73.4600       228
    73.4800       232
    73.5000       230
    73.5200       218
    73.5400       208
    73.5600       236
    73.5800       250
    73.6000       244
    73.6200       234
    73.6400       236
    73.6600       242
    73.6800       226
    73.7000       274
    73.7200       210
    73.7400       238
    73.7600       248
    73.7800       262
    73.8000       250
    73.8200       254
    73.8400       238
    73.8600       270
    73.8800       260
    73.9000       244
    73.9200       266
    73.9400       264
    73.9600       260
    73.9800       274
    74.0000       290
    74.0200       270
    74.0400       296
    74.0600       290
    74.0800       272
    74.1000       284
    74.1200       328
    74.1400       316
    74.1600       274
    74.1800       300
    74.2000       298
    74.2200       322
    74.2400       328
    74.2600       282
    74.2800       262
    74.3000       256
    74.3200       272
    74.3400       232
    74.3600       254
    74.3800       262
    74.4000       266
    74.4200       240
    74.4400       236
    74.4600       214
    74.4800       238
    74.5000       210
    74.5200       226
    74.5400       208
    74.5600       198
    74.5800       204
    74.6000       194
    74.6200       210
    74.6400       208
    74.6600       186
    74.6800       214
    74.7000       180
    74.7200       200
    74.7400       166
    74.7600       184
    74.7800       194
    74.8000       192
    74.8200       198
    74.8400       220
    74.8600       182
    74.8800       198
    74.9000       192
    74.9200       204
    74.9400       212
    74.9600       204
    74.9800       208
    75.0000       208
    75.0200       218
    75.0400       224
    75.0600       192
    75.0800       200
    75.1000       238
    75.1200       210
    75.1400       214
    75.1600       242
    75.1800       210
    75.2000       240
    75.2200       224
    75.2400       224
    75.2600       240
    75.2800       232
    75.3000       228
    75.3200       220
    75.3400       224
    75.3600       214
    75.3800       246
    75.4000       244
    75.4200       238
    75.4400       244
    75.4600       260
    75.4800       228
    75.5000       248
    75.5200       224
    75.5400       242
    75.5600       250
    75.5800       252
    75.6000       240
    75.6200       228
    75.6400       224
    75.6600       218
    75.6800       204
    75.7000       216
    75.7200       262
    75.7400       212
    75.7600       212
    75.7800       226
    75.8000       226
    75.8200       232
    75.8400       234
    75.8600       214
    75.8800       240
    75.9000       232
    75.9200       202
    75.9400       218
    75.9600       228
    75.9800       246
    76.0000       226
    76.0200       228
    76.0400       254
    76.0600       240
    76.0800       232
    76.1000       234
    76.1200       252
    76.1400       272
    76.1600       280
    76.1800       272
    76.2000       248
    76.2200       264
    76.2400       282
    76.2600       266
    76.2800       308
    76.3000       306
    76.3200       312
    76.3400       316
    76.3600       322
    76.3800       338
    76.4000       356
    76.4200       332
    76.4400       320
    76.4600       350
    76.4800       318
    76.5000       342
    76.5200       384
    76.5400       396
    76.5600       420
    76.5800       390
    76.6000       382
    76.6200       420
    76.6400       400
    76.6600       430
    76.6800       456
    76.7000       428
    76.7200       434
    76.7400       394
    76.7600       388
    76.7800       380
    76.8000       376
    76.8200       364
    76.8400       368
    76.8600       364
    76.8800       354
    76.9000       364
    76.9200       328
    76.9400       368
    76.9600       368
    76.9800       346
    77.0000       320
    77.0200       318
    77.0400       332
    77.0600       314
    77.0800       354
    77.1000       318
    77.1200       304
    77.1400       330
    77.1600       314
    77.1800       332
    77.2000       334
    77.2200       338
    77.2400       342
    77.2600       326
    77.2800       374
    77.3000       340
    77.3200       366
    77.3400       382
    77.3600       398
    77.3800       410
    77.4000       470
    77.4200       472
    77.4400       504
    77.4600       538
    77.4800       606
    77.5000       622
    77.5200       650
    77.5400       728
    77.5600       800
    77.5800       756
    77.6000       836
    77.6200       850
    77.6400       880
    77.6600       870
    77.6800       824
    77.7000       888
    77.7200       836
    77.7400       812
    77.7600       810
    77.7800       882
    77.8000       772
    77.8200       758
    77.8400       710
    77.8600       766
    77.8800       700
    77.9000       714
    77.9200       668
    77.9400       624
    77.9600       598
    77.9800       558
    78.0000       534
    78.0200       512
    78.0400       516
    78.0600       460
    78.0800       440
    78.1000       438
    78.1200       412
    78.1400       424
    78.1600       408
    78.1800       388
    78.2000       342
    78.2200       384
    78.2400       390
    78.2600       376
    78.2800       360
    78.3000       340
    78.3200       366
    78.3400       350
    78.3600       366
    78.3800       352
    78.4000       382
    78.4200       362
    78.4400       354
    78.4600       398
    78.4800       430
    78.5000       402
    78.5200       402
    78.5400       436
    78.5600       420
    78.5800       436
    78.6000       448
    78.6200       460
    78.6400       420
    78.6600       430
    78.6800       430
    78.7000       460
    78.7200       438
    78.7400       380
    78.7600       434
    78.7800       396
    78.8000       400
    78.8200       382
    78.8400       398
    78.8600       392
    78.8800       358
    78.9000       374
    78.9200       344
    78.9400       332
    78.9600       348
    78.9800       332
    79.0000       298
    79.0200       304
    79.0400       306
    79.0600       298
    79.0800       268
    79.1000       284
    79.1200       280
    79.1400       266
    79.1600       250
    79.1800       262
    79.2000       294
    79.2200       266
    79.2400       266
    79.2600       252
    79.2800       268
    79.3000       282
    79.3200       268
    79.3400       254
    79.3600       278
    79.3800       232
    79.4000       278
    79.4200       262
    79.4400       258
    79.4600       232
    79.4800       274
    79.5000       244
    79.5200       268
    79.5400       280
    79.5600       242
    79.5800       240
    79.6000       268
    79.6200       262
    79.6400       268
    79.6600       268
    79.6800       234
    79.7000       240
    79.7200       276
    79.7400       280
    79.7600       306
    79.7800       266
    79.8000       252
    79.8200       260
    79.8400       240
    79.8600       272
    79.8800       250
    79.9000       266
    79.9200       260
    79.9400       252
    79.9600       260
    79.9800       246
    80.0000       242
    80.0200       228
    80.0400       250
    80.0600       224
    80.0800       246
    80.1000       252
    80.1200       264
    80.1400       254
    80.1600       276
    80.1800       264
    80.2000       246
    80.2200       274
    80.2400       240
    80.2600       270
    80.2800       252
    80.3000       258
    80.3200       266
    80.3400       270
    80.3600       292
    80.3800       286
    80.4000       286
    80.4200       264
    80.4400       278
    80.4600       262
    80.4800       314
    80.5000       268
    80.5200       266
    80.5400       284
    80.5600       272
    80.5800       282
    80.6000       296
    80.6200       286
    80.6400       252
    80.6600       270
    80.6800       280
    80.7000       256
    80.7200       282
    80.7400       278
    80.7600       246
    80.7800       266
    80.8000       246
    80.8200       238
    80.8400       234
    80.8600       238
    80.8800       244
    80.9000       228
    80.9200       256
    80.9400       240
    80.9600       230
    80.9800       226
    81.0000       228
    81.0200       256
    81.0400       266
    81.0600       236
    81.0800       220
    81.1000       256
    81.1200       228
    81.1400       202
    81.1600       260
    81.1800       228
    81.2000       254
    81.2200       258
    81.2400       274
    81.2600       262
    81.2800       262
    81.3000       268
    81.3200       278
    81.3400       292
    81.3600       274
    81.3800       284
    81.4000       256
    81.4200       264
    81.4400       296
    81.4600       274
    81.4800       248
    81.5000       296
    81.5200       258
    81.5400       286
    81.5600       266
    81.5800       252
    81.6000       254
    81.6200       264
    81.6400       282
    81.6600       264
    81.6800       262
    81.7000       290
    81.7200       290
    81.7400       282
    81.7600       288
    81.7800       292
    81.8000       288
    81.8200       278
    81.8400       284
    81.8600       296
    81.8800       280
    81.9000       286
    81.9200       296
    81.9400       286
    81.9600       280
    81.9800       304
    82.0000       288
    82.0200       312
    82.0400       316
    82.0600       306
    82.0800       316
    82.1000       320
    82.1200       324
    82.1400       312
    82.1600       364
    82.1800       390
    82.2000       332
    82.2200       342
    82.2400       340
    82.2600       348
    82.2800       364
    82.3000       374
    82.3200       364
    82.3400       360
    82.3600       376
    82.3800       382
    82.4000       388
    82.4200       368
    82.4400       330
    82.4600       358
    82.4800       366
    82.5000       382
    82.5200       406
    82.5400       394
    82.5600       426
    82.5800       398
    82.6000       436
    82.6200       420
    82.6400       392
    82.6600       414
    82.6800       428
    82.7000       434
    82.7200       460
    82.7400       462
    82.7600       506
    82.7800       488
    82.8000       506
    82.8200       492
    82.8400       522
    82.8600       516
    82.8800       532
    82.9000       516
    82.9200       514
    82.9400       500
    82.9600       508
    82.9800       518
    83.0000       504
    83.0200       518
    83.0400       516
    83.0600       534
    83.0800       520
    83.1000       470
    83.1200       518
    83.1400       472
    83.1600       462
    83.1800       490
    83.2000       452
    83.2200       474
    83.2400       480
    83.2600       440
    83.2800       446
    83.3000       420
    83.3200       442
    83.3400       406
    83.3600       410
    83.3800       438
    83.4000       436
    83.4200       402
    83.4400       400
    83.4600       408
    83.4800       372
    83.5000       386
    83.5200       362
    83.5400       350
    83.5600       342
    83.5800       332
    83.6000       354
    83.6200       304
    83.6400       360
    83.6600       304
    83.6800       294
    83.7000       330
    83.7200       300
    83.7400       292
    83.7600       312
    83.7800       296
    83.8000       310
    83.8200       320
    83.8400       310
    83.8600       294
    83.8800       296
    83.9000       302
    83.9200       270
    83.9400       282
    83.9600       284
    83.9800       318
    84.0000       316
    84.0200       288
    84.0400       300
    84.0600       278
    84.0800       330
    84.1000       332
    84.1200       324
    84.1400       322
    84.1600       322
    84.1800       320
    84.2000       312
    84.2200       308
    84.2400       288
    84.2600       290
    84.2800       308
    84.3000       296
    84.3200       326
    84.3400       278
    84.3600       320
    84.3800       296
    84.4000       322
    84.4200       302
    84.4400       288
    84.4600       302
    84.4800       310
    84.5000       292
    84.5200       272
    84.5400       292
    84.5600       272
    84.5800       292
    84.6000       298
    84.6200       318
    84.6400       290
    84.6600       294
    84.6800       252
    84.7000       272
    84.7200       288
    84.7400       294
    84.7600       238
    84.7800       266
    84.8000       248
    84.8200       260
    84.8400       278
    84.8600       280
    84.8800       264
    84.9000       248
    84.9200       270
    84.9400       256
    84.9600       244
    84.9800       260
    85.0000       240
    85.0200       256
    85.0400       268
    85.0600       212
    85.0800       266
    85.1000       228
    85.1200       246
    85.1400       236
    85.1600       222
    85.1800       216
    85.2000       228
    85.2200       234
    85.2400       252
    85.2600       248
    85.2800       236
    85.3000       242
    85.3200       228
    85.3400       256
    85.3600       248
    85.3800       254
    85.4000       276
    85.4200       248
    85.4400       270
    85.4600       272
    85.4800       306
    85.5000       266
    85.5200       320
    85.5400       318
    85.5600       294
    85.5800       282
    85.6000       294
    85.6200       298
    85.6400       276
    85.6600       266
    85.6800       302
    85.7000       274
    85.7200       264
    85.7400       300
    85.7600       298
    85.7800       312
    85.8000       298
    85.8200       306
    85.8400       272
    85.8600       268
    85.8800       276
    85.9000       292
    85.9200       258
    85.9400       258
    85.9600       254
    85.9800       252
    86.0000       260
    86.0200       230
    86.0400       218
    86.0600       232
    86.0800       236
    86.1000       232
    86.1200       250
    86.1400       222
    86.1600       242
    86.1800       208
    86.2000       248
    86.2200       240
    86.2400       224
    86.2600       234
    86.2800       240
    86.3000       218
    86.3200       224
    86.3400       232
    86.3600       206
    86.3800       204
    86.4000       226
    86.4200       250
    86.4400       238
    86.4600       230
    86.4800       250
    86.5000       230
    86.5200       246
    86.5400       232
    86.5600       248
    86.5800       220
    86.6000       222
    86.6200       242
    86.6400       214
    86.6600       270
    86.6800       288
    86.7000       244
    86.7200       250
    86.7400       276
    86.7600       282
    86.7800       286
    86.8000       314
    86.8200       316
    86.8400       312
    86.8600       336
    86.8800       314
    86.9000       314
    86.9200       340
    86.9400       340
    86.9600       334
    86.9800       340
    87.0000       378
    87.0200       368
    87.0400       384
    87.0600       346
    87.0800       348
    87.1000       312
    87.1200       314
    87.1400       322
    87.1600       320
    87.1800       352
    87.2000       310
    87.2200       312
    87.2400       320
    87.2600       308
    87.2800       300
    87.3000       278
    87.3200       294
    87.3400       304
    87.3600       274
    87.3800       292
    87.4000       302
    87.4200       286
    87.4400       304
    87.4600       290
    87.4800       274
    87.5000       268
    87.5200       258
    87.5400       302
    87.5600       272
    87.5800       300
    87.6000       314
    87.6200       292
    87.6400       274
    87.6600       300
    87.6800       308
    87.7000       334
    87.7200       358
    87.7400       338
    87.7600       316
    87.7800       378
    87.8000       372
    87.8200       366
    87.8400       380
    87.8600       374
    87.8800       396
    87.9000       380
    87.9200       374
    87.9400       398
    87.9600       372
    87.9800       368
    88.0000       392
    88.0200       424
    88.0400       382
    88.0600       444
    88.0800       408
    88.1000       406
    88.1200       382
    88.1400       414
    88.1600       384
    88.1800       374
    88.2000       404
    88.2200       404
    88.2400       386
    88.2600       416
    88.2800       402
    88.3000       420
    88.3200       376
    88.3400       398
    88.3600       390
    88.3800       382
    88.4000       420
    88.4200       362
    88.4400       422
    88.4600       386
    88.4800       410
    88.5000       356
    88.5200       380
    88.5400       410
    88.5600       366
    88.5800       390
    88.6000       374
    88.6200       358
    88.6400       366
    88.6600       394
    88.6800       382
    88.7000       356
    88.7200       338
    88.7400       372
    88.7600       340
    88.7800       350
    88.8000       372
    88.8200       356
    88.8400       314
    88.8600       352
    88.8800       296
    88.9000       272
    88.9200       288
    88.9400       288
    88.9600       282
    88.9800       312
    89.0000       302
    89.0200       298
    89.0400       244
    89.0600       264
    89.0800       278
    89.1000       278
    89.1200       262
    89.1400       286
    89.1600       262
    89.1800       262
    89.2000       268
    89.2200       234
    89.2400       256
    89.2600       252
    89.2800       212
    89.3000       238
    89.3200       252
    89.3400       240
    89.3600       252
    89.3800       274
    89.4000       272
    89.4200       234
    89.4400       268
    89.4600       248
    89.4800       260
    89.5000       242
    89.5200       232
    89.5400       278
    89.5600       288
    89.5800       280
    89.6000       276
    89.6200       276
    89.6400       232
    89.6600       266
    89.6800       264
    89.7000       292
    89.7200       264
    89.7400       292
    89.7600       264
    89.7800       266
    89.8000       294
    89.8200       284
    89.8400       218
    89.8600       246
    89.8800       280
    89.9000       280
    89.9200       294
    89.9400       298
    89.9600       274
    89.9800       268
    90.0000       296
