    10.0000       454
    10.0200       442
    10.0400       500
    10.0600       500
    10.0800       556
    10.1000       546
    10.1200       534
    10.1400       502
    10.1600       456
    10.1800       428
    10.2000       428
    10.2200       392
    10.2400       404
    10.2600       378
    10.2800       350
    10.3000       388
    10.3200       382
    10.3400       414
    10.3600       362
    10.3800       354
    10.4000       356
    10.4200       366
    10.4400       322
    10.4600       360
    10.4800       366
    10.5000       394
    10.5200       346
    10.5400       306
    10.5600       336
    10.5800       372
    10.6000       366
    10.6200       310
    10.6400       328
    10.6600       360
    10.6800       350
    10.7000       340
    10.7200       318
    10.7400       370
    10.7600       342
    10.7800       344
    10.8000       364
    10.8200       364
    10.8400       352
    10.8600       324
    10.8800       346
    10.9000       322
    10.9200       336
    10.9400       342
    10.9600       336
    10.9800       342
    11.0000       342
    11.0200       348
    11.0400       338
    11.0600       352
    11.0800       336
    11.1000       352
    11.1200       342
    11.1400       356
    11.1600       344
    11.1800       356
    11.2000       310
    11.2200       318
    11.2400       312
    11.2600       332
    11.2800       304
    11.3000       306
    11.3200       310
    11.3400       340
    11.3600       332
    11.3800       296
    11.4000       306
    11.4200       324
    11.4400       326
    11.4600       346
    11.4800       294
    11.5000       356
    11.5200       322
    11.5400       324
    11.5600       332
    11.5800       318
    11.6000       332
    11.6200       328
    11.6400       340
    11.6600       324
    11.6800       340
    11.7000       300
    11.7200       334
    11.7400       288
    11.7600       340
    11.7800       336
    11.8000       322
    11.8200       336
    11.8400       298
    11.8600       340
    11.8800       316
    11.9000       318
    11.9200       332
    11.9400       338
    11.9600       322
    11.9800       358
    12.0000       316
    12.0200       344
    12.0400       366
    12.0600       332
    12.0800       354
    12.1000       352
    12.1200       338
    12.1400       370
    12.1600       354
    12.1800       358
    12.2000       400
    12.2200       372
    12.2400       356
    12.2600       350
    12.2800       346
    12.3000       324
    12.3200       308
    12.3400       332
    12.3600       318
    12.3800       300
    12.4000       312
    12.4200       288
    12.4400       304
    12.4600       294
    12.4800       294
    12.5000       288
    12.5200       308
    12.5400       292
    12.5600       276
    12.5800       288
    12.6000       302
    12.6200       264
    12.6400       282
    12.6600       280
    12.6800       322
    12.7000       306
    12.7200       306
    12.7400       262
    12.7600       298
    12.7800       256
    12.8000       282
    12.8200       324
    12.8400       300
    12.8600       264
    12.8800       268
    12.9000       312
    12.9200       276
    12.9400       314
    12.9600       258
    12.9800       310
    13.0000       270
    13.0200       290
    13.0400       272
    13.0600       280
    13.0800       304
    13.1000       308
    13.1200       266
    13.1400       270
    13.1600       292
    13.1800       300
    13.2000       294
    13.2200       290
    13.2400       272
    13.2600       238
    13.2800       274
    13.3000       274
    13.3200       302
    13.3400       284
    13.3600       270
    13.3800       264
    13.4000       290
    13.4200       286
    13.4400       268
    13.4600       290
    13.4800       248
    13.5000       254
    13.5200       266
    13.5400       262
    13.5600       236
    13.5800       254
    13.6000       286
    13.6200       276
    13.6400       276
    13.6600       298
    13.6800       276
    13.7000       290
    13.7200       266
    13.7400       282
    13.7600       296
    13.7800       254
    13.8000       262
    13.8200       282
    13.8400       276
    13.8600       238
    13.8800       248
    13.9000       236
    13.9200       250
    13.9400       252
    13.9600       240
    13.9800       272
    14.0000       252
    14.0200       250
    14.0400       256
    14.0600       242
    14.0800       262
    14.1000       222
    14.1200       244
    14.1400       256
    14.1600       258
    14.1800       260
    14.2000       236
    14.2200       226
    14.2400       290
    14.2600       276
    14.2800       266
    14.3000       234
    14.3200       280
    14.3400       236
    14.3600       226
    14.3800       256
    14.4000       274
    14.4200       240
    14.4400       252
    14.4600       250
    14.4800       256
    14.5000       262
    14.5200       232
    14.5400       248
    14.5600       248
    14.5800       272
    14.6000       262
    14.6200       224
    14.6400       242
    14.6600       264
    14.6800       238
    14.7000       254
    14.7200       248
    14.7400       246
    14.7600       294
    14.7800       278
    14.8000       244
    14.8200       288
    14.8400       242
    14.8600       238
    14.8800       254
    14.9000       274
    14.9200       292
    14.9400       296
    14.9600       282
    14.9800       308
    15.0000       308
    15.0200       280
    15.0400       332
    15.0600       318
    15.0800       330
    15.1000       336
    15.1200       288
    15.1400       302
    15.1600       318
    15.1800       306
    15.2000       290
    15.2200       288
    15.2400       284
    15.2600       246
    15.2800       242
    15.3000       272
    15.3200       242
    15.3400       224
    15.3600       244
    15.3800       270
    15.4000       230
    15.4200       252
    15.4400       230
    15.4600       222
    15.4800       254
    15.5000       226
    15.5200       254
    15.5400       254
    15.5600       236
    15.5800       214
    15.6000       206
    15.6200       252
    15.6400       252
    15.6600       248
    15.6800       214
    15.7000       218
    15.7200       216
    15.7400       248
    15.7600       220
    15.7800       242
    15.8000       214
    15.8200       212
    15.8400       212
    15.8600       214
    15.8800       236
    15.9000       226
    15.9200       220
    15.9400       220
    15.9600       216
    15.9800       272
    16.0000       250
    16.0200       222
    16.0400       224
    16.0600       232
    16.0800       226
    16.1000       218
    16.1200       246
    16.1400       222
    16.1600       226
    16.1800       240
    16.2000       226
    16.2200       228
    16.2400       220
    16.2600       244
    16.2800       232
    16.3000       268
    16.3200       256
    16.3400       260
    16.3600       228
    16.3800       212
    16.4000       214
    16.4200       238
    16.4400       226
    16.4600       260
    16.4800       208
    16.5000       236
    16.5200       220
    16.5400       206
    16.5600       224
    16.5800       216
    16.6000       216
    16.6200       216
    16.6400       214
    16.6600       202
    16.6800       220
    16.7000       222
    16.7200       238
    16.7400       212
    16.7600       250
    16.7800       254
    16.8000       246
    16.8200       232
    16.8400       236
    16.8600       234
    16.8800       246
    16.9000       248
    16.9200       244
    16.9400       248
    16.9600       276
    16.9800       246
    17.0000       278
    17.0200       280
    17.0400       296
    17.0600       324
    17.0800       326
    17.1000       344
    17.1200       320
    17.1400       332
    17.1600       308
    17.1800       366
    17.2000       334
    17.2200       360
    17.2400       324
    17.2600       360
    17.2800       378
    17.3000       396
    17.3200       378
    17.3400       412
    17.3600       372
    17.3800       392
    17.4000       404
    17.4200       390
    17.4400       388
    17.4600       372
    17.4800       358
    17.5000       314
    17.5200       340
    17.5400       318
    17.5600       290
    17.5800       306
    17.6000       300
    17.6200       268
    17.6400       274
    17.6600       266
    17.6800       280
    17.7000       252
    17.7200       260
    17.7400       240
    17.7600       258
    17.7800       242
    17.8000       234
    17.8200       238
    17.8400       230
    17.8600       224
    17.8800       220
    17.9000       222
    17.9200       232
    17.9400       230
    17.9600       216
    17.9800       220
    18.0000       220
    18.0200       202
    18.0400       224
    18.0600       222
    18.0800       232
    18.1000       204
    18.1200       214
    18.1400       236
    18.1600       186
    18.1800       204
    18.2000       214
    18.2200       228
    18.2400       226
    18.2600       226
    18.2800       216
    18.3000       200
    18.3200       188
    18.3400       228
    18.3600       200
    18.3800       222
    18.4000       242
    18.4200       204
    18.4400       208
    18.4600       244
    18.4800       212
    18.5000       218
    18.5200       230
    18.5400       234
    18.5600       244
    18.5800       210
    18.6000       244
    18.6200       244
    18.6400       236
    18.6600       216
    18.6800       236
    18.7000       232
    18.7200       252
    18.7400       218
    18.7600       240
    18.7800       234
    18.8000       232
    18.8200       248
    18.8400       270
    18.8600       244
    18.8800       258
    18.9000       262
    18.9200       276
    18.9400       278
    18.9600       262
    18.9800       264
    19.0000       308
    19.0200       336
    19.0400       326
    19.0600       348
    19.0800       332
    19.1000       358
    19.1200       396
    19.1400       418
    19.1600       466
    19.1800       524
    19.2000       568
    19.2200       556
    19.2400       682
    19.2600       780
    19.2800       844
    19.3000       912
    19.3200      1098
    19.3400      1234
    19.3600      1342
    19.3800      1598
    19.4000      1832
    19.4200      2184
    19.4400      2510
    19.4600      2874
    19.4800      3420
    19.5000      3624
    19.5200      3994
    19.5400      3974
    19.5600      3664
    19.5800      3296
    19.6000      2658
    19.6200      2292
    19.6400      1820
    19.6600      1538
    19.6800      1272
    19.7000      1212
    19.7200      1162
    19.7400      1200
    19.7600      1322
    19.7800      1400
    19.8000      1544
    19.8200      1646
    19.8400      1866
    19.8600      2126
    19.8800      2402
    19.9000      2626
    19.9200      2860
    19.9400      2970
    19.9600      3244
    19.9800      3216
    20.0000      3142
    20.0200      2838
    20.0400      2466
    20.0600      2010
    20.0800      1648
    20.1000      1364
    20.1200      1086
    20.1400      1008
    20.1600       950
    20.1800       952
    20.2000       970
    20.2200       892
    20.2400       972
    20.2600       978
    20.2800      1062
    20.3000      1014
    20.3200      1002
    20.3400       990
    20.3600       936
    20.3800       844
    20.4000       752
    20.4200       664
    20.4400       566
    20.4600       524
    20.4800       458
    20.5000       402
    20.5200       342
    20.5400       338
    20.5600       308
    20.5800       302
    20.6000       280
    20.6200       288
    20.6400       288
    20.6600       286
    20.6800       250
    20.7000       278
    20.7200       262
    20.7400       270
    20.7600       276
    20.7800       244
    20.8000       250
    20.8200       270
    20.8400       270
    20.8600       262
    20.8800       228
    20.9000       268
    20.9200       294
    20.9400       274
    20.9600       284
    20.9800       306
    21.0000       318
    21.0200       288
    21.0400       324
    21.0600       358
    21.0800       320
    21.1000       382
    21.1200       414
    21.1400       406
    21.1600       392
    21.1800       436
    21.2000       448
    21.2200       462
    21.2400       470
    21.2600       434
    21.2800       412
    21.3000       340
    21.3200       356
    21.3400       354
    21.3600       302
    21.3800       312
    21.4000       254
    21.4200       280
    21.4400       272
    21.4600       252
    21.4800       240
    21.5000       236
    21.5200       274
    21.5400       264
    21.5600       242
    21.5800       232
    21.6000       238
    21.6200       238
    21.6400       228
    21.6600       244
    21.6800       196
    21.7000       210
    21.7200       218
    21.7400       194
    21.7600       196
    21.7800       198
    21.8000       192
    21.8200       222
    21.8400       192
    21.8600       220
    21.8800       236
    21.9000       218
    21.9200       196
    21.9400       218
    21.9600       224
    21.9800       216
    22.0000       216
    22.0200       220
    22.0400       218
    22.0600       204
    22.0800       222
    22.1000       242
    22.1200       222
    22.1400       222
    22.1600       248
    22.1800       240
    22.2000       208
    22.2200       236
    22.2400       254
    22.2600       304
    22.2800       242
    22.3000       280
    22.3200       294
    22.3400       310
    22.3600       328
    22.3800       360
    22.4000       376
    22.4200       364
    22.4400       400
    22.4600       466
    22.4800       542
    22.5000       552
    22.5200       578
    22.5400       626
    22.5600       774
    22.5800       900
    22.6000      1044
    22.6200      1130
    22.6400      1382
    22.6600      1520
    22.6800      1718
    22.7000      2116
    22.7200      2492
    22.7400      2974
    22.7600      3514
    22.7800      3982
    22.8000      4578
    22.8200      5136
    22.8400      5426
    22.8600      5546
    22.8800      5136
    22.9000      4462
    22.9200      3782
    22.9400      3016
    22.9600      2414
    22.9800      1870
    23.0000      1404
    23.0200      1118
    23.0400       916
    23.0600       790
    23.0800       672
    23.1000       626
    23.1200       604
    23.1400       572
    23.1600       510
    23.1800       446
    23.2000       460
    23.2200       424
    23.2400       426
    23.2600       372
    23.2800       354
    23.3000       348
    23.3200       326
    23.3400       312
    23.3600       322
    23.3800       348
    23.4000       320
    23.4200       320
    23.4400       280
    23.4600       318
    23.4800       298
    23.5000       280
    23.5200       342
    23.5400       304
    23.5600       338
    23.5800       306
    23.6000       318
    23.6200       334
    23.6400       340
    23.6600       350
    23.6800       384
    23.7000       382
    23.7200       340
    23.7400       356
    23.7600       372
    23.7800       378
    23.8000       356
    23.8200       360
    23.8400       334
    23.8600       336
    23.8800       366
    23.9000       334
    23.9200       330
    23.9400       374
    23.9600       368
    23.9800       390
    24.0000       412
    24.0200       438
    24.0400       436
    24.0600       410
    24.0800       420
    24.1000       440
    24.1200       428
    24.1400       452
    24.1600       504
    24.1800       472
    24.2000       510
    24.2200       544
    24.2400       590
    24.2600       684
    24.2800       706
    24.3000       856
    24.3200       890
    24.3400      1108
    24.3600      1298
    24.3800      1518
    24.4000      1656
    24.4200      1840
    24.4400      1998
    24.4600      2208
    24.4800      2190
    24.5000      2206
    24.5200      1960
    24.5400      1786
    24.5600      1530
    24.5800      1262
    24.6000      1076
    24.6200       870
    24.6400       740
    24.6600       650
    24.6800       552
    24.7000       468
    24.7200       470
    24.7400       428
    24.7600       396
    24.7800       370
    24.8000       372
    24.8200       338
    24.8400       320
    24.8600       320
    24.8800       274
    24.9000       284
    24.9200       334
    24.9400       296
    24.9600       316
    24.9800       290
    25.0000       276
    25.0200       312
    25.0400       326
    25.0600       284
    25.0800       302
    25.1000       266
    25.1200       288
    25.1400       270
    25.1600       328
    25.1800       310
    25.2000       292
    25.2200       326
    25.2400       288
    25.2600       336
    25.2800       356
    25.3000       356
    25.3200       370
    25.3400       436
    25.3600       442
    25.3800       496
    25.4000       522
    25.4200       584
    25.4400       636
    25.4600       752
    25.4800       860
    25.5000       946
    25.5200      1080
    25.5400      1132
    25.5600      1248
    25.5800      1304
    25.6000      1160
    25.6200      1214
    25.6400      1086
    25.6600       934
    25.6800       796
    25.7000       670
    25.7200       602
    25.7400       524
    25.7600       440
    25.7800       420
    25.8000       386
    25.8200       376
    25.8400       330
    25.8600       312
    25.8800       344
    25.9000       334
    25.9200       326
    25.9400       290
    25.9600       316
    25.9800       334
    26.0000       352
    26.0200       316
    26.0400       368
    26.0600       354
    26.0800       322
    26.1000       430
    26.1200       414
    26.1400       470
    26.1600       474
    26.1800       536
    26.2000       608
    26.2200       678
    26.2400       726
    26.2600       834
    26.2800       944
    26.3000      1018
    26.3200      1072
    26.3400      1226
    26.3600      1316
    26.3800      1378
    26.4000      1456
    26.4200      1482
    26.4400      1530
    26.4600      1510
    26.4800      1562
    26.5000      1676
    26.5200      1774
    26.5400      1676
    26.5600      1740
    26.5800      1798
    26.6000      1886
    26.6200      1878
    26.6400      1970
    26.6600      1904
    26.6800      1866
    26.7000      1766
    26.7200      1736
    26.7400      1608
    26.7600      1478
    26.7800      1350
    26.8000      1158
    26.8200      1010
    26.8400       840
    26.8600       726
    26.8800       686
    26.9000       608
    26.9200       592
    26.9400       508
    26.9600       516
    26.9800       498
    27.0000       476
    27.0200       554
    27.0400       506
    27.0600       526
    27.0800       522
    27.1000       522
    27.1200       502
    27.1400       492
    27.1600       512
    27.1800       502
    27.2000       494
    27.2200       468
    27.2400       464
    27.2600       458
    27.2800       416
    27.3000       394
    27.3200       376
    27.3400       336
    27.3600       366
    27.3800       358
    27.4000       338
    27.4200       388
    27.4400       360
    27.4600       354
    27.4800       338
    27.5000       344
    27.5200       358
    27.5400       334
    27.5600       374
    27.5800       318
    27.6000       302
    27.6200       300
    27.6400       338
    27.6600       280
    27.6800       284
    27.7000       274
    27.7200       270
    27.7400       260
    27.7600       266
    27.7800       272
    27.8000       324
    27.8200       270
    27.8400       280
    27.8600       244
    27.8800       252
    27.9000       286
    27.9200       274
    27.9400       308
    27.9600       268
    27.9800       268
    28.0000       266
    28.0200       244
    28.0400       286
    28.0600       310
    28.0800       270
    28.1000       258
    28.1200       286
    28.1400       316
    28.1600       312
    28.1800       320
    28.2000       262
    28.2200       328
    28.2400       316
    28.2600       344
    28.2800       354
    28.3000       314
    28.3200       306
    28.3400       294
    28.3600       286
    28.3800       290
    28.4000       248
    28.4200       238
    28.4400       244
    28.4600       206
    28.4800       242
    28.5000       220
    28.5200       226
    28.5400       218
    28.5600       184
    28.5800       222
    28.6000       224
    28.6200       224
    28.6400       212
    28.6600       224
    28.6800       230
    28.7000       234
    28.7200       202
    28.7400       216
    28.7600       222
    28.7800       218
    28.8000       222
    28.8200       218
    28.8400       198
    28.8600       220
    28.8800       208
    28.9000       220
    28.9200       214
    28.9400       214
    28.9600       230
    28.9800       220
    29.0000       218
    29.0200       236
    29.0400       248
    29.0600       192
    29.0800       236
    29.1000       230
    29.1200       226
    29.1400       218
    29.1600       226
    29.1800       218
    29.2000       238
    29.2200       264
    29.2400       242
    29.2600       262
    29.2800       254
    29.3000       252
    29.3200       282
    29.3400       302
    29.3600       340
    29.3800       302
    29.4000       324
    29.4200       334
    29.4400       372
    29.4600       364
    29.4800       396
    29.5000       396
    29.5200       370
    29.5400       386
    29.5600       394
    29.5800       346
    29.6000       372
    29.6200       352
    29.6400       344
    29.6600       324
    29.6800       314
    29.7000       320
    29.7200       300
    29.7400       310
    29.7600       276
    29.7800       262
    29.8000       270
    29.8200       288
    29.8400       234
    29.8600       254
    29.8800       232
    29.9000       272
    29.9200       246
    29.9400       298
    29.9600       322
    29.9800       316
    30.0000       300
    30.0200       346
    30.0400       358
    30.0600       340
    30.0800       354
    30.1000       416
    30.1200       432
    30.1400       470
    30.1600       504
    30.1800       558
    30.2000       546
    30.2200       514
    30.2400       550
    30.2600       572
    30.2800       522
    30.3000       566
    30.3200       540
    30.3400       526
    30.3600       538
    30.3800       516
    30.4000       508
    30.4200       594
    30.4400       604
    30.4600       544
    30.4800       548
    30.5000       610
    30.5200       598
    30.5400       616
    30.5600       684
    30.5800       618
    30.6000       724
    30.6200       682
    30.6400       716
    30.6600       682
    30.6800       692
    30.7000       704
    30.7200       706
    30.7400       654
    30.7600       596
    30.7800       578
    30.8000       500
    30.8200       508
    30.8400       504
    30.8600       466
    30.8800       434
    30.9000       406
    30.9200       408
    30.9400       398
    30.9600       376
    30.9800       346
    31.0000       376
    31.0200       362
    31.0400       388
    31.0600       324
    31.0800       310
    31.1000       308
    31.1200       318
    31.1400       320
    31.1600       310
    31.1800       308
    31.2000       326
    31.2200       310
    31.2400       336
    31.2600       318
    31.2800       324
    31.3000       342
    31.3200       318
    31.3400       334
    31.3600       280
    31.3800       334
    31.4000       364
    31.4200       414
    31.4400       408
    31.4600       438
    31.4800       410
    31.5000       466
    31.5200       500
    31.5400       504
    31.5600       602
    31.5800       632
    31.6000       698
    31.6200       788
    31.6400       832
    31.6600       902
    31.6800       994
    31.7000      1084
    31.7200      1152
    31.7400      1188
    31.7600      1308
    31.7800      1356
    31.8000      1410
    31.8200      1586
    31.8400      1724
    31.8600      1848
    31.8800      2012
    31.9000      2266
    31.9200      2600
    31.9400      2862
    31.9600      3010
    31.9800      3018
    32.0000      3020
    32.0200      2878
    32.0400      2680
    32.0600      2464
    32.0800      2270
    32.1000      2036
    32.1200      1892
    32.1400      1696
    32.1600      1658
    32.1800      1678
    32.2000      1562
    32.2200      1734
    32.2400      1818
    32.2600      2018
    32.2800      2168
    32.3000      2282
    32.3200      2542
    32.3400      2886
    32.3600      3322
    32.3800      3604
    32.4000      4260
    32.4200      5094
    32.4400      5970
    32.4600      6582
    32.4800      7398
    32.5000      8396
    32.5200      8774
    32.5400      9064
    32.5600      8954
    32.5800      8580
    32.6000      8078
    32.6200      7234
    32.6400      6300
    32.6600      5408
    32.6800      4642
    32.7000      3958
    32.7200      3110
    32.7400      2628
    32.7600      2200
    32.7800      1946
    32.8000      1718
    32.8200      1562
    32.8400      1446
    32.8600      1318
    32.8800      1274
    32.9000      1274
    32.9200      1192
    32.9400      1310
    32.9600      1348
    32.9800      1384
    33.0000      1552
    33.0200      1674
    33.0400      1794
    33.0600      1934
    33.0800      1806
    33.1000      1908
    33.1200      1640
    33.1400      1586
    33.1600      1474
    33.1800      1244
    33.2000      1116
    33.2200      1000
    33.2400       830
    33.2600       760
    33.2800       588
    33.3000       546
    33.3200       504
    33.3400       456
    33.3600       402
    33.3800       378
    33.4000       392
    33.4200       354
    33.4400       342
    33.4600       336
    33.4800       342
    33.5000       344
    33.5200       282
    33.5400       300
    33.5600       278
    33.5800       304
    33.6000       302
    33.6200       212
    33.6400       318
    33.6600       252
    33.6800       240
    33.7000       256
    33.7200       254
    33.7400       270
    33.7600       232
    33.7800       246
    33.8000       254
    33.8200       234
    33.8400       254
    33.8600       216
    33.8800       288
    33.9000       258
    33.9200       254
    33.9400       212
    33.9600       266
    33.9800       248
    34.0000       250
    34.0200       242
    34.0400       244
    34.0600       262
    34.0800       276
    34.1000       258
    34.1200       264
    34.1400       270
    34.1600       276
    34.1800       244
    34.2000       234
    34.2200       260
    34.2400       252
    34.2600       280
    34.2800       258
    34.3000       254
    34.3200       262
    34.3400       270
    34.3600       280
    34.3800       276
    34.4000       318
    34.4200       296
    34.4400       298
    34.4600       310
    34.4800       316
    34.5000       366
    34.5200       312
    34.5400       320
    34.5600       312
    34.5800       352
    34.6000       336
    34.6200       342
    34.6400       340
    34.6600       310
    34.6800       310
    34.7000       274
    34.7200       334
    34.7400       288
    34.7600       284
    34.7800       308
    34.8000       256
    34.8200       302
    34.8400       304
    34.8600       296
    34.8800       316
    34.9000       282
    34.9200       296
    34.9400       336
    34.9600       338
    34.9800       318
    35.0000       350
    35.0200       342
    35.0400       354
    35.0600       374
    35.0800       378
    35.1000       380
    35.1200       424
    35.1400       374
    35.1600       354
    35.1800       354
    35.2000       382
    35.2200       320
    35.2400       344
    35.2600       332
    35.2800       294
    35.3000       302
    35.3200       332
    35.3400       284
    35.3600       286
    35.3800       300
    35.4000       290
    35.4200       308
    35.4400       316
    35.4600       302
    35.4800       328
    35.5000       330
    35.5200       324
    35.5400       324
    35.5600       316
    35.5800       324
    35.6000       342
    35.6200       356
    35.6400       364
    35.6600       362
    35.6800       406
    35.7000       410
    35.7200       444
    35.7400       478
    35.7600       456
    35.7800       470
    35.8000       556
    35.8200       574
    35.8400       564
    35.8600       512
    35.8800       550
    35.9000       520
    35.9200       570
    35.9400       570
    35.9600       602
    35.9800       640
    36.0000       606
    36.0200       700
    36.0400       680
    36.0600       746
    36.0800       796
    36.1000       856
    36.1200       784
    36.1400       850
    36.1600       808
    36.1800       744
    36.2000       732
    36.2200       730
    36.2400       636
    36.2600       626
    36.2800       552
    36.3000       510
    36.3200       532
    36.3400       468
    36.3600       472
    36.3800       442
    36.4000       446
    36.4200       460
    36.4400       464
    36.4600       534
    36.4800       484
    36.5000       500
    36.5200       506
    36.5400       520
    36.5600       564
    36.5800       572
    36.6000       616
    36.6200       666
    36.6400       758
    36.6600       740
    36.6800       894
    36.7000       964
    36.7200      1080
    36.7400      1212
    36.7600      1352
    36.7800      1550
    36.8000      1770
    36.8200      1948
    36.8400      2056
    36.8600      2326
    36.8800      2308
    36.9000      2304
    36.9200      2200
    36.9400      2130
    36.9600      1954
    36.9800      1782
    37.0000      1654
    37.0200      1516
    37.0400      1322
    37.0600      1204
    37.0800      1052
    37.1000      1038
    37.1200       940
    37.1400       836
    37.1600       830
    37.1800       810
    37.2000       772
    37.2200       762
    37.2400       710
    37.2600       724
    37.2800       720
    37.3000       682
    37.3200       720
    37.3400       754
    37.3600       694
    37.3800       740
    37.4000       684
    37.4200       714
    37.4400       692
    37.4600       756
    37.4800       852
    37.5000       768
    37.5200       814
    37.5400       782
    37.5600       874
    37.5800       894
    37.6000       884
    37.6200       872
    37.6400       888
    37.6600       912
    37.6800       930
    37.7000      1004
    37.7200      1000
    37.7400      1006
    37.7600      1026
    37.7800      1082
    37.8000      1102
    37.8200      1198
    37.8400      1330
    37.8600      1364
    37.8800      1468
    37.9000      1648
    37.9200      1950
    37.9400      2168
    37.9600      2318
    37.9800      2492
    38.0000      2510
    38.0200      2522
    38.0400      2534
    38.0600      2448
    38.0800      2276
    38.1000      2252
    38.1200      2166
    38.1400      1996
    38.1600      1882
    38.1800      1772
    38.2000      1742
    38.2200      1652
    38.2400      1724
    38.2600      1782
    38.2800      1868
    38.3000      1996
    38.3200      2204
    38.3400      2522
    38.3600      2756
    38.3800      3130
    38.4000      3464
    38.4200      3898
    38.4400      4286
    38.4600      4428
    38.4800      4626
    38.5000      4634
    38.5200      4528
    38.5400      4620
    38.5600      4262
    38.5800      4412
    38.6000      4252
    38.6200      4024
    38.6400      4158
    38.6600      3868
    38.6800      3962
    38.7000      4030
    38.7200      3902
    38.7400      3720
    38.7600      3546
    38.7800      3386
    38.8000      3090
    38.8200      2914
    38.8400      2492
    38.8600      2312
    38.8800      2056
    38.9000      1798
    38.9200      1598
    38.9400      1296
    38.9600      1196
    38.9800      1160
    39.0000      1040
    39.0200       948
    39.0400       984
    39.0600       910
    39.0800       768
    39.1000       804
    39.1200       826
    39.1400       788
    39.1600       722
    39.1800       748
    39.2000       756
    39.2200       662
    39.2400       712
    39.2600       776
    39.2800       742
    39.3000       748
    39.3200       770
    39.3400       696
    39.3600       744
    39.3800       832
    39.4000       850
    39.4200       862
    39.4400       930
    39.4600       970
    39.4800      1040
    39.5000      1132
    39.5200      1288
    39.5400      1398
    39.5600      1602
    39.5800      1714
    39.6000      1896
    39.6200      2200
    39.6400      2432
    39.6600      2562
    39.6800      2700
    39.7000      2676
    39.7200      2450
    39.7400      2394
    39.7600      2172
    39.7800      2108
    39.8000      1898
    39.8200      1690
    39.8400      1478
    39.8600      1236
    39.8800      1116
    39.9000      1056
    39.9200       902
    39.9400       876
    39.9600       780
    39.9800       794
    40.0000       754
    40.0200       724
    40.0400       686
    40.0600       658
    40.0800       672
    40.1000       668
    40.1200       590
    40.1400       610
    40.1600       600
    40.1800       620
    40.2000       626
    40.2200       584
    40.2400       616
    40.2600       660
    40.2800       674
    40.3000       694
    40.3200       692
    40.3400       794
    40.3600       820
    40.3800       874
    40.4000       910
    40.4200      1000
    40.4400      1072
    40.4600      1204
    40.4800      1300
    40.5000      1350
    40.5200      1458
    40.5400      1490
    40.5600      1626
    40.5800      1604
    40.6000      1626
    40.6200      1528
    40.6400      1594
    40.6600      1448
    40.6800      1436
    40.7000      1344
    40.7200      1296
    40.7400      1108
    40.7600      1036
    40.7800       936
    40.8000       824
    40.8200       798
    40.8400       742
    40.8600       722
    40.8800       648
    40.9000       626
    40.9200       610
    40.9400       586
    40.9600       622
    40.9800       610
    41.0000       614
    41.0200       600
    41.0400       628
    41.0600       614
    41.0800       648
    41.1000       646
    41.1200       654
    41.1400       658
    41.1600       712
    41.1800       758
    41.2000       694
    41.2200       764
    41.2400       722
    41.2600       794
    41.2800       848
    41.3000       854
    41.3200       810
    41.3400       906
    41.3600       830
    41.3800       842
    41.4000       854
    41.4200       834
    41.4400       798
    41.4600       858
    41.4800       810
    41.5000       836
    41.5200       842
    41.5400       826
    41.5600       758
    41.5800       802
    41.6000       788
    41.6200       812
    41.6400       874
    41.6600       898
    41.6800       984
    41.7000      1066
    41.7200      1102
    41.7400      1194
    41.7600      1410
    41.7800      1502
    41.8000      1612
    41.8200      1766
    41.8400      1906
    41.8600      2044
    41.8800      2136
    41.9000      2068
    41.9200      1948
    41.9400      1942
    41.9600      1800
    41.9800      1754
    42.0000      1586
    42.0200      1494
    42.0400      1412
    42.0600      1224
    42.0800      1122
    42.1000      1002
    42.1200       922
    42.1400       800
    42.1600       848
    42.1800       748
    42.2000       710
    42.2200       750
    42.2400       672
    42.2600       700
    42.2800       688
    42.3000       630
    42.3200       710
    42.3400       666
    42.3600       548
    42.3800       636
    42.4000       590
    42.4200       636
    42.4400       580
    42.4600       624
    42.4800       514
    42.5000       534
    42.5200       514
    42.5400       484
    42.5600       488
    42.5800       490
    42.6000       446
    42.6200       450
    42.6400       468
    42.6600       494
    42.6800       462
    42.7000       442
    42.7200       448
    42.7400       460
    42.7600       492
    42.7800       460
    42.8000       466
    42.8200       508
    42.8400       522
    42.8600       556
    42.8800       592
    42.9000       580
    42.9200       614
    42.9400       650
    42.9600       748
    42.9800       830
    43.0000       914
    43.0200       980
    43.0400      1046
    43.0600      1272
    43.0800      1298
    43.1000      1560
    43.1200      1614
    43.1400      1820
    43.1600      1974
    43.1800      1894
    43.2000      2046
    43.2200      2012
    43.2400      1906
    43.2600      1732
    43.2800      1694
    43.3000      1618
    43.3200      1420
    43.3400      1394
    43.3600      1234
    43.3800      1070
    43.4000       996
    43.4200       890
    43.4400       780
    43.4600       750
    43.4800       694
    43.5000       658
    43.5200       636
    43.5400       574
    43.5600       580
    43.5800       600
    43.6000       586
    43.6200       636
    43.6400       612
    43.6600       572
    43.6800       616
    43.7000       668
    43.7200       684
    43.7400       724
    43.7600       734
    43.7800       830
    43.8000       774
    43.8200       792
    43.8400       800
    43.8600       806
    43.8800       784
    43.9000       784
    43.9200       788
    43.9400       774
    43.9600       734
    43.9800       724
    44.0000       692
    44.0200       694
    44.0400       644
    44.0600       646
    44.0800       702
    44.1000       644
    44.1200       642
    44.1400       640
    44.1600       656
    44.1800       648
    44.2000       702
    44.2200       656
    44.2400       734
    44.2600       760
    44.2800       724
    44.3000       744
    44.3200       714
    44.3400       710
    44.3600       768
    44.3800       700
    44.4000       706
    44.4200       714
    44.4400       734
    44.4600       704
    44.4800       704
    44.5000       672
    44.5200       638
    44.5400       662
    44.5600       596
    44.5800       608
    44.6000       648
    44.6200       578
    44.6400       602
    44.6600       568
    44.6800       544
    44.7000       506
    44.7200       468
    44.7400       452
    44.7600       502
    44.7800       480
    44.8000       482
    44.8200       460
    44.8400       492
    44.8600       522
    44.8800       484
    44.9000       492
    44.9200       530
    44.9400       532
    44.9600       496
    44.9800       550
    45.0000       582
    45.0200       668
    45.0400       632
    45.0600       586
    45.0800       654
    45.1000       622
    45.1200       582
    45.1400       670
    45.1600       646
    45.1800       656
    45.2000       620
    45.2200       610
    45.2400       630
    45.2600       622
    45.2800       590
    45.3000       624
    45.3200       626
    45.3400       560
    45.3600       610
    45.3800       560
    45.4000       574
    45.4200       572
    45.4400       554
    45.4600       556
    45.4800       590
    45.5000       604
    45.5200       522
    45.5400       566
    45.5600       576
    45.5800       552
    45.6000       604
    45.6200       594
    45.6400       618
    45.6600       716
    45.6800       676
    45.7000       746
    45.7200       750
    45.7400       678
    45.7600       720
    45.7800       776
    45.8000       772
    45.8200       782
    45.8400       746
    45.8600       776
    45.8800       732
    45.9000       730
    45.9200       816
    45.9400       740
    45.9600       778
    45.9800       754
    46.0000       750
    46.0200       738
    46.0400       786
    46.0600       792
    46.0800       794
    46.1000       824
    46.1200       784
    46.1400       816
    46.1600       884
    46.1800       832
    46.2000       934
    46.2200       946
    46.2400       996
    46.2600      1058
    46.2800      1162
    46.3000      1158
    46.3200      1232
    46.3400      1298
    46.3600      1520
    46.3800      1600
    46.4000      1772
    46.4200      2040
    46.4400      2204
    46.4600      2456
    46.4800      2784
    46.5000      3142
    46.5200      3598
    46.5400      4078
    46.5600      4676
    46.5800      5574
    46.6000      6100
    46.6200      6970
    46.6400      7602
    46.6600      8476
    46.6800      9056
    46.7000      9032
    46.7200      9222
    46.7400      8840
    46.7600      8440
    46.7800      8050
    46.8000      7360
    46.8200      6968
    46.8400      6174
    46.8600      5510
    46.8800      4922
    46.9000      4274
    46.9200      3790
    46.9400      3262
    46.9600      2700
    46.9800      2418
    47.0000      2258
    47.0200      1890
    47.0400      1804
    47.0600      1694
    47.0800      1520
    47.1000      1382
    47.1200      1254
    47.1400      1146
    47.1600      1108
    47.1800       998
    47.2000      1002
    47.2200       914
    47.2400       834
    47.2600       872
    47.2800       754
    47.3000       744
    47.3200       748
    47.3400       702
    47.3600       678
    47.3800       652
    47.4000       620
    47.4200       646
    47.4400       610
    47.4600       590
    47.4800       580
    47.5000       634
    47.5200       604
    47.5400       602
    47.5600       580
    47.5800       610
    47.6000       648
    47.6200       644
    47.6400       666
    47.6600       704
    47.6800       754
    47.7000       812
    47.7200       810
    47.7400       850
    47.7600       890
    47.7800      1000
    47.8000      1074
    47.8200      1110
    47.8400      1214
    47.8600      1138
    47.8800      1200
    47.9000      1192
    47.9200      1176
    47.9400      1162
    47.9600      1182
    47.9800      1210
    48.0000      1202
    48.0200      1238
    48.0400      1158
    48.0600      1092
    48.0800      1210
    48.1000      1104
    48.1200      1226
    48.1400      1180
    48.1600      1218
    48.1800      1220
    48.2000      1240
    48.2200      1216
    48.2400      1254
    48.2600      1210
    48.2800      1068
    48.3000      1050
    48.3200      1072
    48.3400       976
    48.3600       990
    48.3800       876
    48.4000       804
    48.4200       744
    48.4400       752
    48.4600       700
    48.4800       618
    48.5000       616
    48.5200       606
    48.5400       530
    48.5600       550
    48.5800       524
    48.6000       508
    48.6200       510
    48.6400       530
    48.6600       446
    48.6800       472
    48.7000       490
    48.7200       474
    48.7400       486
    48.7600       458
    48.7800       454
    48.8000       424
    48.8200       412
    48.8400       410
    48.8600       398
    48.8800       380
    48.9000       394
    48.9200       374
    48.9400       408
    48.9600       378
    48.9800       352
    49.0000       380
    49.0200       382
    49.0400       386
    49.0600       398
    49.0800       370
    49.1000       368
    49.1200       352
    49.1400       306
    49.1600       368
    49.1800       362
    49.2000       360
    49.2200       334
    49.2400       350
    49.2600       364
    49.2800       318
    49.3000       332
    49.3200       340
    49.3400       372
    49.3600       296
    49.3800       310
    49.4000       314
    49.4200       298
    49.4400       310
    49.4600       340
    49.4800       286
    49.5000       352
    49.5200       342
    49.5400       328
    49.5600       340
    49.5800       324
    49.6000       352
    49.6200       360
    49.6400       336
    49.6600       356
    49.6800       382
    49.7000       406
    49.7200       358
    49.7400       376
    49.7600       370
    49.7800       402
    49.8000       384
    49.8200       466
    49.8400       424
    49.8600       448
    49.8800       512
    49.9000       488
    49.9200       550
    49.9400       594
    49.9600       588
    49.9800       682
    50.0000       770
    50.0200       816
    50.0400       850
    50.0600       958
    50.0800      1012
    50.1000      1070
    50.1200      1106
    50.1400      1238
    50.1600      1260
    50.1800      1254
    50.2000      1250
    50.2200      1322
    50.2400      1306
    50.2600      1248
    50.2800      1232
    50.3000      1192
    50.3200      1036
    50.3400      1116
    50.3600      1024
    50.3800       976
    50.4000       892
    50.4200       802
    50.4400       766
    50.4600       782
    50.4800       736
    50.5000       666
    50.5200       660
    50.5400       634
    50.5600       636
    50.5800       592
    50.6000       608
    50.6200       560
    50.6400       618
    50.6600       596
    50.6800       576
    50.7000       626
    50.7200       592
    50.7400       626
    50.7600       700
    50.7800       700
    50.8000       746
    50.8200       756
    50.8400       774
    50.8600       782
    50.8800       856
    50.9000       922
    50.9200       860
    50.9400       910
    50.9600       816
    50.9800       878
    51.0000       912
    51.0200       830
    51.0400       832
    51.0600       792
    51.0800       762
    51.1000       740
    51.1200       800
    51.1400       810
    51.1600       782
    51.1800       778
    51.2000       792
    51.2200       790
    51.2400       836
    51.2600       780
    51.2800       852
    51.3000       864
    51.3200       912
    51.3400       922
    51.3600       958
    51.3800       950
    51.4000       924
    51.4200       998
    51.4400       886
    51.4600       930
    51.4800       834
    51.5000       878
    51.5200       852
    51.5400       860
    51.5600       812
    51.5800       780
    51.6000       752
    51.6200       796
    51.6400       744
    51.6600       752
    51.6800       776
    51.7000       784
    51.7200       844
    51.7400       884
    51.7600       968
    51.7800       980
    51.8000      1050
    51.8200      1042
    51.8400      1118
    51.8600      1124
    51.8800      1148
    51.9000      1088
    51.9200      1066
    51.9400      1038
    51.9600      1062
    51.9800      1012
    52.0000      1008
    52.0200       962
    52.0400       912
    52.0600       838
    52.0800       896
    52.1000       820
    52.1200       746
    52.1400       684
    52.1600       736
    52.1800       698
    52.2000       714
    52.2200       718
    52.2400       688
    52.2600       612
    52.2800       674
    52.3000       652
    52.3200       736
    52.3400       718
    52.3600       796
    52.3800       762
    52.4000       862
    52.4200       900
    52.4400       978
    52.4600      1072
    52.4800      1168
    52.5000      1230
    52.5200      1334
    52.5400      1410
    52.5600      1492
    52.5800      1508
    52.6000      1528
    52.6200      1488
    52.6400      1512
    52.6600      1502
    52.6800      1472
    52.7000      1358
    52.7200      1324
    52.7400      1318
    52.7600      1182
    52.7800      1116
    52.8000      1024
    52.8200      1016
    52.8400       938
    52.8600       904
    52.8800       896
    52.9000       818
    52.9200       820
    52.9400       758
    52.9600       810
    52.9800       832
    53.0000       812
    53.0200       844
    53.0400       962
    53.0600       930
    53.0800       948
    53.1000      1108
    53.1200      1246
    53.1400      1354
    53.1600      1398
    53.1800      1584
    53.2000      1716
    53.2200      1838
    53.2400      1940
    53.2600      1926
    53.2800      1906
    53.3000      1854
    53.3200      1770
    53.3400      1734
    53.3600      1654
    53.3800      1556
    53.4000      1424
    53.4200      1354
    53.4400      1314
    53.4600      1168
    53.4800      1020
    53.5000       926
    53.5200       794
    53.5400       738
    53.5600       678
    53.5800       590
    53.6000       664
    53.6200       508
    53.6400       508
    53.6600       508
    53.6800       418
    53.7000       466
    53.7200       420
    53.7400       438
    53.7600       380
    53.7800       394
    53.8000       396
    53.8200       392
    53.8400       344
    53.8600       378
    53.8800       362
    53.9000       370
    53.9200       376
    53.9400       354
    53.9600       368
    53.9800       382
    54.0000       362
    54.0200       336
    54.0400       390
    54.0600       372
    54.0800       340
    54.1000       388
    54.1200       350
    54.1400       370
    54.1600       384
    54.1800       384
    54.2000       366
    54.2200       384
    54.2400       376
    54.2600       408
    54.2800       406
    54.3000       404
    54.3200       406
    54.3400       414
    54.3600       474
    54.3800       462
    54.4000       466
    54.4200       482
    54.4400       504
    54.4600       522
    54.4800       544
    54.5000       648
    54.5200       562
    54.5400       656
    54.5600       678
    54.5800       664
    54.6000       730
    54.6200       748
    54.6400       734
    54.6600       820
    54.6800       802
    54.7000       884
    54.7200       908
    54.7400       928
    54.7600       966
    54.7800       942
    54.8000       930
    54.8200       952
    54.8400       882
    54.8600       826
    54.8800       810
    54.9000       800
    54.9200       752
    54.9400       738
    54.9600       720
    54.9800       672
    55.0000       692
    55.0200       686
    55.0400       586
    55.0600       616
    55.0800       582
    55.1000       572
    55.1200       584
    55.1400       544
    55.1600       548
    55.1800       536
    55.2000       546
    55.2200       542
    55.2400       544
    55.2600       496
    55.2800       490
    55.3000       488
    55.3200       476
    55.3400       522
    55.3600       496
    55.3800       470
    55.4000       448
    55.4200       464
    55.4400       454
    55.4600       460
    55.4800       438
    55.5000       460
    55.5200       468
    55.5400       452
    55.5600       414
    55.5800       420
    55.6000       422
    55.6200       480
    55.6400       420
    55.6600       410
    55.6800       432
    55.7000       406
    55.7200       432
    55.7400       456
    55.7600       460
    55.7800       452
    55.8000       496
    55.8200       466
    55.8400       464
    55.8600       504
    55.8800       488
    55.9000       492
    55.9200       510
    55.9400       498
    55.9600       502
    55.9800       496
    56.0000       484
    56.0200       482
    56.0400       480
    56.0600       444
    56.0800       500
    56.1000       470
    56.1200       436
    56.1400       446
    56.1600       410
    56.1800       442
    56.2000       434
    56.2200       404
    56.2400       434
    56.2600       372
    56.2800       344
    56.3000       352
    56.3200       350
    56.3400       344
    56.3600       342
    56.3800       336
    56.4000       370
    56.4200       328
    56.4400       364
    56.4600       360
    56.4800       366
    56.5000       328
    56.5200       348
    56.5400       322
    56.5600       332
    56.5800       350
    56.6000       358
    56.6200       338
    56.6400       330
    56.6600       346
    56.6800       378
    56.7000       342
    56.7200       388
    56.7400       426
    56.7600       384
    56.7800       402
    56.8000       380
    56.8200       394
    56.8400       426
    56.8600       448
    56.8800       460
    56.9000       490
    56.9200       462
    56.9400       520
    56.9600       524
    56.9800       568
    57.0000       542
    57.0200       572
    57.0400       624
    57.0600       656
    57.0800       734
    57.1000       710
    57.1200       810
    57.1400       866
    57.1600       926
    57.1800      1008
    57.2000      1124
    57.2200      1216
    57.2400      1376
    57.2600      1396
    57.2800      1528
    57.3000      1694
    57.3200      1840
    57.3400      1852
    57.3600      2026
    57.3800      2010
    57.4000      2034
    57.4200      2088
    57.4400      1966
    57.4600      1900
    57.4800      1904
    57.5000      1902
    57.5200      1830
    57.5400      1786
    57.5600      1754
    57.5800      1902
    57.6000      1812
    57.6200      1836
    57.6400      1810
    57.6600      1858
    57.6800      1872
    57.7000      1928
    57.7200      1968
    57.7400      2036
    57.7600      1986
    57.7800      1980
    57.8000      1866
    57.8200      1704
    57.8400      1706
    57.8600      1618
    57.8800      1588
    57.9000      1512
    57.9200      1430
    57.9400      1372
    57.9600      1248
    57.9800      1190
    58.0000      1094
    58.0200      1072
    58.0400       980
    58.0600       980
    58.0800       900
    58.1000       884
    58.1200       892
    58.1400       930
    58.1600       962
    58.1800       938
    58.2000      1002
    58.2200       978
    58.2400      1062
    58.2600      1114
    58.2800      1210
    58.3000      1262
    58.3200      1408
    58.3400      1394
    58.3600      1464
    58.3800      1566
    58.4000      1768
    58.4200      1858
    58.4400      1984
    58.4600      2098
    58.4800      2150
    58.5000      2274
    58.5200      2410
    58.5400      2564
    58.5600      2688
    58.5800      2794
    58.6000      2870
    58.6200      3064
    58.6400      3204
    58.6600      3314
    58.6800      3478
    58.7000      3410
    58.7200      3670
    58.7400      3514
    58.7600      3512
    58.7800      3268
    58.8000      3236
    58.8200      3142
    58.8400      3060
    58.8600      2882
    58.8800      2736
    58.9000      2578
    58.9200      2408
    58.9400      2260
    58.9600      2058
    58.9800      2046
    59.0000      1716
    59.0200      1536
    59.0400      1472
    59.0600      1280
    59.0800      1160
    59.1000      1102
    59.1200       980
    59.1400       884
    59.1600       818
    59.1800       812
    59.2000       740
    59.2200       706
    59.2400       682
    59.2600       676
    59.2800       598
    59.3000       586
    59.3200       596
    59.3400       570
    59.3600       546
    59.3800       534
    59.4000       494
    59.4200       550
    59.4400       530
    59.4600       472
    59.4800       454
    59.5000       456
    59.5200       434
    59.5400       538
    59.5600       504
    59.5800       502
    59.6000       460
    59.6200       428
    59.6400       420
    59.6600       432
    59.6800       424
    59.7000       402
    59.7200       428
    59.7400       436
    59.7600       454
    59.7800       424
    59.8000       420
    59.8200       426
    59.8400       444
    59.8600       424
    59.8800       426
    59.9000       418
    59.9200       438
    59.9400       388
    59.9600       426
    59.9800       422
    60.0000       432
    60.0200       396
    60.0400       398
    60.0600       416
    60.0800       446
    60.1000       428
    60.1200       416
    60.1400       470
    60.1600       438
    60.1800       420
    60.2000       456
    60.2200       476
    60.2400       452
    60.2600       468
    60.2800       476
    60.3000       494
    60.3200       472
    60.3400       488
    60.3600       524
    60.3800       500
    60.4000       508
    60.4200       516
    60.4400       520
    60.4600       534
    60.4800       514
    60.5000       532
    60.5200       584
    60.5400       548
    60.5600       544
    60.5800       594
    60.6000       564
    60.6200       548
    60.6400       536
    60.6600       558
    60.6800       578
    60.7000       586
    60.7200       546
    60.7400       548
    60.7600       540
    60.7800       592
    60.8000       588
    60.8200       560
    60.8400       550
    60.8600       562
    60.8800       596
    60.9000       584
    60.9200       592
    60.9400       584
    60.9600       550
    60.9800       570
    61.0000       570
    61.0200       590
    61.0400       634
    61.0600       638
    61.0800       704
    61.1000       664
    61.1200       644
    61.1400       680
    61.1600       638
    61.1800       666
    61.2000       630
    61.2200       620
    61.2400       622
    61.2600       640
    61.2800       648
    61.3000       630
    61.3200       608
    61.3400       648
    61.3600       646
    61.3800       614
    61.4000       644
    61.4200       604
    61.4400       622
    61.4600       632
    61.4800       636
    61.5000       674
    61.5200       678
    61.5400       604
    61.5600       632
    61.5800       668
    61.6000       596
    61.6200       676
    61.6400       588
    61.6600       602
    61.6800       586
    61.7000       610
    61.7200       610
    61.7400       584
    61.7600       588
    61.7800       584
    61.8000       548
    61.8200       606
    61.8400       542
    61.8600       588
    61.8800       602
    61.9000       618
    61.9200       570
    61.9400       580
    61.9600       644
    61.9800       564
    62.0000       586
    62.0200       616
    62.0400       656
    62.0600       610
    62.0800       584
    62.1000       628
    62.1200       674
    62.1400       626
    62.1600       636
    62.1800       656
    62.2000       606
    62.2200       660
    62.2400       610
    62.2600       624
    62.2800       620
    62.3000       676
    62.3200       570
    62.3400       622
    62.3600       578
    62.3800       602
    62.4000       588
    62.4200       604
    62.4400       568
    62.4600       542
    62.4800       566
    62.5000       558
    62.5200       540
    62.5400       532
    62.5600       520
    62.5800       512
    62.6000       488
    62.6200       440
    62.6400       450
    62.6600       526
    62.6800       436
    62.7000       430
    62.7200       422
    62.7400       388
    62.7600       394
    62.7800       380
    62.8000       414
    62.8200       362
    62.8400       322
    62.8600       316
    62.8800       344
    62.9000       320
    62.9200       322
    62.9400       356
    62.9600       308
    62.9800       322
    63.0000       280
    63.0200       240
    63.0400       258
    63.0600       308
    63.0800       296
    63.1000       238
    63.1200       266
    63.1400       238
    63.1600       268
    63.1800       276
    63.2000       266
    63.2200       244
    63.2400       244
    63.2600       264
    63.2800       262
    63.3000       276
    63.3200       256
    63.3400       256
    63.3600       262
    63.3800       252
    63.4000       276
    63.4200       266
    63.4400       272
    63.4600       262
    63.4800       276
    63.5000       250
    63.5200       292
    63.5400       278
    63.5600       284
    63.5800       262
    63.6000       326
    63.6200       318
    63.6400       336
    63.6600       338
    63.6800       316
    63.7000       402
    63.7200       400
    63.7400       438
    63.7600       450
    63.7800       460
    63.8000       452
    63.8200       488
    63.8400       492
    63.8600       504
    63.8800       522
    63.9000       544
    63.9200       494
    63.9400       460
    63.9600       442
    63.9800       446
    64.0000       482
    64.0200       430
    64.0400       408
    64.0600       422
    64.0800       406
    64.1000       408
    64.1200       374
    64.1400       348
    64.1600       304
    64.1800       286
    64.2000       282
    64.2200       308
    64.2400       280
    64.2600       278
    64.2800       264
    64.3000       286
    64.3200       226
    64.3400       292
    64.3600       250
    64.3800       262
    64.4000       222
    64.4200       260
    64.4400       232
    64.4600       228
    64.4800       266
    64.5000       238
    64.5200       232
    64.5400       230
    64.5600       244
    64.5800       228
    64.6000       252
    64.6200       250
    64.6400       222
    64.6600       240
    64.6800       236
    64.7000       226
    64.7200       202
    64.7400       220
    64.7600       238
    64.7800       236
    64.8000       240
    64.8200       240
    64.8400       246
    64.8600       226
    64.8800       242
    64.9000       248
    64.9200       280
    64.9400       262
    64.9600       246
    64.9800       284
    65.0000       296
    65.0200       306
    65.0400       312
    65.0600       296
    65.0800       324
    65.1000       350
    65.1200       326
    65.1400       340
    65.1600       372
    65.1800       396
    65.2000       420
    65.2200       456
    65.2400       424
    65.2600       486
    65.2800       418
    65.3000       444
    65.3200       456
    65.3400       444
    65.3600       448
    65.3800       444
    65.4000       414
    65.4200       386
    65.4400       414
    65.4600       436
    65.4800       410
    65.5000       360
    65.5200       364
    65.5400       404
    65.5600       348
    65.5800       378
    65.6000       312
    65.6200       316
    65.6400       304
    65.6600       340
    65.6800       304
    65.7000       300
    65.7200       298
    65.7400       244
    65.7600       294
    65.7800       316
    65.8000       286
    65.8200       282
    65.8400       256
    65.8600       244
    65.8800       318
    65.9000       242
    65.9200       252
    65.9400       268
    65.9600       298
    65.9800       298
    66.0000       250
    66.0200       300
    66.0400       276
    66.0600       248
    66.0800       276
    66.1000       306
    66.1200       280
    66.1400       288
    66.1600       274
    66.1800       296
    66.2000       292
    66.2200       308
    66.2400       334
    66.2600       320
    66.2800       342
    66.3000       324
    66.3200       322
    66.3400       370
    66.3600       416
    66.3800       404
    66.4000       410
    66.4200       424
    66.4400       484
    66.4600       482
    66.4800       480
    66.5000       564
    66.5200       546
    66.5400       530
    66.5600       602
    66.5800       608
    66.6000       614
    66.6200       638
    66.6400       744
    66.6600       786
    66.6800       714
    66.7000       718
    66.7200       868
    66.7400       808
    66.7600       876
    66.7800       910
    66.8000       922
    66.8200       954
    66.8400       956
    66.8600       942
    66.8800       952
    66.9000       940
    66.9200       916
    66.9400       964
    66.9600       880
    66.9800       834
    67.0000       828
    67.0200       848
    67.0400       778
    67.0600       730
    67.0800       716
    67.1000       714
    67.1200       702
    67.1400       668
    67.1600       628
    67.1800       578
    67.2000       546
    67.2200       504
    67.2400       520
    67.2600       500
    67.2800       464
    67.3000       464
    67.3200       438
    67.3400       472
    67.3600       446
    67.3800       422
    67.4000       428
    67.4200       408
    67.4400       414
    67.4600       428
    67.4800       396
    67.5000       416
    67.5200       372
    67.5400       388
    67.5600       386
    67.5800       412
    67.6000       412
    67.6200       408
    67.6400       424
    67.6600       406
    67.6800       394
    67.7000       416
    67.7200       406
    67.7400       466
    67.7600       416
    67.7800       412
    67.8000       444
    67.8200       444
    67.8400       504
    67.8600       570
    67.8800       580
    67.9000       632
    67.9200       632
    67.9400       658
    67.9600       742
    67.9800       780
    68.0000       850
    68.0200       928
    68.0400       946
    68.0600      1026
    68.0800      1054
    68.1000      1154
    68.1200      1206
    68.1400      1300
    68.1600      1318
    68.1800      1274
    68.2000      1212
    68.2200      1236
    68.2400      1216
    68.2600      1248
    68.2800      1250
    68.3000      1196
    68.3200      1138
    68.3400      1066
    68.3600      1098
    68.3800      1014
    68.4000       914
    68.4200       932
    68.4400       850
    68.4600       836
    68.4800       746
    68.5000       698
    68.5200       616
    68.5400       578
    68.5600       582
    68.5800       578
    68.6000       514
    68.6200       478
    68.6400       458
    68.6600       458
    68.6800       390
    68.7000       420
    68.7200       366
    68.7400       384
    68.7600       380
    68.7800       358
    68.8000       358
    68.8200       346
    68.8400       348
    68.8600       352
    68.8800       322
    68.9000       340
    68.9200       316
    68.9400       302
    68.9600       332
    68.9800       330
    69.0000       322
    69.0200       358
    69.0400       354
    69.0600       402
    69.0800       356
    69.1000       362
    69.1200       386
    69.1400       374
    69.1600       402
    69.1800       412
    69.2000       402
    69.2200       438
    69.2400       438
    69.2600       454
    69.2800       474
    69.3000       512
    69.3200       554
    69.3400       542
    69.3600       582
    69.3800       634
    69.4000       562
    69.4200       632
    69.4400       574
    69.4600       626
    69.4800       546
    69.5000       548
    69.5200       574
    69.5400       538
    69.5600       542
    69.5800       564
    69.6000       484
    69.6200       456
    69.6400       464
    69.6600       440
    69.6800       414
    69.7000       396
    69.7200       382
    69.7400       360
    69.7600       352
    69.7800       340
    69.8000       312
    69.8200       324
    69.8400       306
    69.8600       308
    69.8800       296
    69.9000       286
    69.9200       292
    69.9400       288
    69.9600       262
    69.9800       234
    70.0000       236
    70.0200       240
    70.0400       258
    70.0600       250
    70.0800       236
    70.1000       236
    70.1200       256
    70.1400       230
    70.1600       264
    70.1800       224
    70.2000       238
    70.2200       238
    70.2400       210
    70.2600       232
    70.2800       242
    70.3000       208
    70.3200       242
    70.3400       236
    70.3600       232
    70.3800       250
    70.4000       234
    70.4200       244
    70.4400       276
    70.4600       258
    70.4800       228
    70.5000       258
    70.5200       268
    70.5400       276
    70.5600       270
    70.5800       294
    70.6000       252
    70.6200       268
    70.6400       270
    70.6600       256
    70.6800       264
    70.7000       238
    70.7200       278
    70.7400       254
    70.7600       238
    70.7800       264
    70.8000       274
    70.8200       286
    70.8400       248
    70.8600       266
    70.8800       242
    70.9000       256
    70.9200       248
    70.9400       280
    70.9600       272
    70.9800       270
    71.0000       258
    71.0200       260
    71.0400       254
    71.0600       246
    71.0800       268
    71.1000       280
    71.1200       286
    71.1400       316
    71.1600       304
    71.1800       330
    71.2000       350
    71.2200       342
    71.2400       350
    71.2600       386
    71.2800       388
    71.3000       438
    71.3200       410
    71.3400       474
    71.3600       488
    71.3800       510
    71.4000       592
    71.4200       622
    71.4400       618
    71.4600       602
    71.4800       642
    71.5000       668
    71.5200       698
    71.5400       672
    71.5600       646
    71.5800       684
    71.6000       686
    71.6200       638
    71.6400       664
    71.6600       606
    71.6800       674
    71.7000       634
    71.7200       628
    71.7400       656
    71.7600       632
    71.7800       582
    71.8000       566
    71.8200       566
    71.8400       556
    71.8600       560
    71.8800       578
    71.9000       524
    71.9200       532
    71.9400       502
    71.9600       500
    71.9800       498
    72.0000       494
    72.0200       442
    72.0400       440
    72.0600       438
    72.0800       490
    72.1000       478
    72.1200       438
    72.1400       450
    72.1600       504
    72.1800       506
    72.2000       438
    72.2200       506
    72.2400       522
    72.2600       498
    72.2800       542
    72.3000       482
    72.3200       482
    72.3400       546
    72.3600       494
    72.3800       468
    72.4000       444
    72.4200       432
    72.4400       414
    72.4600       446
    72.4800       402
    72.5000       430
    72.5200       404
    72.5400       378
    72.5600       372
    72.5800       336
    72.6000       402
    72.6200       334
    72.6400       342
    72.6600       310
    72.6800       346
    72.7000       330
    72.7200       312
    72.7400       338
    72.7600       312
    72.7800       312
    72.8000       294
    72.8200       322
    72.8400       286
    72.8600       346
    72.8800       302
    72.9000       308
    72.9200       318
    72.9400       290
    72.9600       294
    72.9800       280
    73.0000       332
    73.0200       286
    73.0400       268
    73.0600       288
    73.0800       300
    73.1000       314
    73.1200       250
    73.1400       256
    73.1600       268
    73.1800       258
    73.2000       258
    73.2200       264
    73.2400       234
    73.2600       236
    73.2800       226
    73.3000       234
    73.3200       214
    73.3400       216
    73.3600       220
    73.3800       236
    73.4000       200
    73.4200       216
    73.4400       248
    73.4600       254
    73.4800       214
    73.5000       242
    73.5200       194
    73.5400       238
    73.5600       220
    73.5800       234
    73.6000       202
    73.6200       224
    73.6400       240
    73.6600       236
    73.6800       228
    73.7000       234
    73.7200       234
    73.7400       218
    73.7600       242
    73.7800       222
    73.8000       242
    73.8200       222
    73.8400       248
    73.8600       272
    73.8800       278
    73.9000       256
    73.9200       278
    73.9400       266
    73.9600       274
    73.9800       300
    74.0000       314
    74.0200       276
    74.0400       318
    74.0600       300
    74.0800       292
    74.1000       312
    74.1200       306
    74.1400       344
    74.1600       308
    74.1800       332
    74.2000       298
    74.2200       346
    74.2400       320
    74.2600       316
    74.2800       300
    74.3000       322
    74.3200       258
    74.3400       330
    74.3600       266
    74.3800       290
    74.4000       266
    74.4200       302
    74.4400       262
    74.4600       284
    74.4800       254
    74.5000       284
    74.5200       272
    74.5400       276
    74.5600       270
    74.5800       266
    74.6000       222
    74.6200       228
    74.6400       258
    74.6600       224
    74.6800       240
    74.7000       240
    74.7200       216
    74.7400       226
    74.7600       204
    74.7800       224
    74.8000       246
    74.8200       226
    74.8400       204
    74.8600       222
    74.8800       252
    74.9000       244
    74.9200       232
    74.9400       232
    74.9600       200
    74.9800       224
    75.0000       210
    75.0200       192
    75.0400       224
    75.0600       244
    75.0800       216
    75.1000       204
    75.1200       202
    75.1400       232
    75.1600       212
    75.1800       252
    75.2000       198
    75.2200       192
    75.2400       224
    75.2600       194
    75.2800       218
    75.3000       168
    75.3200       208
    75.3400       220
    75.3600       218
    75.3800       206
    75.4000       208
    75.4200       204
    75.4400       190
    75.4600       212
    75.4800       216
    75.5000       216
    75.5200       216
    75.5400       236
    75.5600       182
    75.5800       214
    75.6000       230
    75.6200       218
    75.6400       238
    75.6600       208
    75.6800       224
    75.7000       212
    75.7200       220
    75.7400       278
    75.7600       238
    75.7800       230
    75.8000       246
    75.8200       218
    75.8400       252
    75.8600       248
    75.8800       234
    75.9000       262
    75.9200       240
    75.9400       256
    75.9600       268
    75.9800       250
    76.0000       242
    76.0200       274
    76.0400       254
    76.0600       248
    76.0800       268
    76.1000       246
    76.1200       234
    76.1400       270
    76.1600       278
    76.1800       244
    76.2000       264
    76.2200       270
    76.2400       266
    76.2600       312
    76.2800       302
    76.3000       322
    76.3200       304
    76.3400       336
    76.3600       302
    76.3800       294
    76.4000       344
    76.4200       328
    76.4400       350
    76.4600       342
    76.4800       362
    76.5000       360
    76.5200       364
    76.5400       336
    76.5600       362
    76.5800       348
    76.6000       422
    76.6200       392
    76.6400       386
    76.6600       424
    76.6800       424
    76.7000       418
    76.7200       424
    76.7400       420
    76.7600       372
    76.7800       384
    76.8000       374
    76.8200       374
    76.8400       376
    76.8600       378
    76.8800       376
    76.9000       366
    76.9200       364
    76.9400       346
    76.9600       382
    76.9800       340
    77.0000       356
    77.0200       368
    77.0400       338
    77.0600       346
    77.0800       354
    77.1000       312
    77.1200       356
    77.1400       360
    77.1600       330
    77.1800       354
    77.2000       392
    77.2200       352
    77.2400       370
    77.2600       386
    77.2800       412
    77.3000       420
    77.3200       442
    77.3400       464
    77.3600       468
    77.3800       516
    77.4000       516
    77.4200       544
    77.4400       614
    77.4600       654
    77.4800       672
    77.5000       720
    77.5200       734
    77.5400       758
    77.5600       806
    77.5800       828
    77.6000       894
    77.6200       840
    77.6400       870
    77.6600       858
    77.6800       910
    77.7000       892
    77.7200       900
    77.7400       898
    77.7600       904
    77.7800       838
    77.8000       804
    77.8200       796
    77.8400       758
    77.8600       714
    77.8800       724
    77.9000       640
    77.9200       664
    77.9400       662
    77.9600       626
    77.9800       564
    78.0000       540
    78.0200       508
    78.0400       488
    78.0600       476
    78.0800       462
    78.1000       492
    78.1200       434
    78.1400       408
    78.1600       432
    78.1800       430
    78.2000       396
    78.2200       384
    78.2400       384
    78.2600       380
    78.2800       384
    78.3000       372
    78.3200       372
    78.3400       390
    78.3600       392
    78.3800       400
    78.4000       424
    78.4200       394
    78.4400       430
    78.4600       438
    78.4800       432
    78.5000       426
    78.5200       512
    78.5400       430
    78.5600       446
    78.5800       444
    78.6000       438
    78.6200       474
    78.6400       428
    78.6600       438
    78.6800       474
    78.7000       470
    78.7200       454
    78.7400       416
    78.7600       454
    78.7800       442
    78.8000       422
    78.8200       442
    78.8400       430
    78.8600       416
    78.8800       404
    78.9000       370
    78.9200       410
    78.9400       374
    78.9600       392
    78.9800       360
    79.0000       338
    79.0200       356
    79.0400       310
    79.0600       302
    79.0800       298
    79.1000       320
    79.1200       342
    79.1400       318
    79.1600       294
    79.1800       300
    79.2000       272
    79.2200       292
    79.2400       294
    79.2600       286
    79.2800       270
    79.3000       266
    79.3200       290
    79.3400       268
    79.3600       254
    79.3800       292
    79.4000       268
    79.4200       282
    79.4400       302
    79.4600       284
    79.4800       302
    79.5000       288
    79.5200       284
    79.5400       292
    79.5600       306
    79.5800       284
    79.6000       314
    79.6200       314
    79.6400       310
    79.6600       304
    79.6800       306
    79.7000       252
    79.7200       314
    79.7400       298
    79.7600       290
    79.7800       298
    79.8000       322
    79.8200       270
    79.8400       278
    79.8600       310
    79.8800       316
    79.9000       304
    79.9200       298
    79.9400       314
    79.9600       260
    79.9800       252
    80.0000       264
    80.0200       286
    80.0400       290
    80.0600       276
    80.0800       250
    80.1000       264
    80.1200       284
    80.1400       262
    80.1600       260
    80.1800       250
    80.2000       300
    80.2200       252
    80.2400       248
    80.2600       262
    80.2800       250
    80.3000       264
    80.3200       254
    80.3400       232
    80.3600       304
    80.3800       268
    80.4000       248
    80.4200       256
    80.4400       274
    80.4600       272
    80.4800       230
    80.5000       266
    80.5200       254
    80.5400       238
    80.5600       284
    80.5800       236
    80.6000       240
    80.6200       222
    80.6400       230
    80.6600       222
    80.6800       224
    80.7000       222
    80.7200       252
    80.7400       218
    80.7600       224
    80.7800       206
    80.8000       224
    80.8200       216
    80.8400       224
    80.8600       212
    80.8800       260
    80.9000       212
    80.9200       226
    80.9400       196
    80.9600       216
    80.9800       224
    81.0000       206
    81.0200       222
    81.0400       212
    81.0600       238
    81.0800       234
    81.1000       252
    81.1200       204
    81.1400       252
    81.1600       250
    81.1800       266
    81.2000       240
    81.2200       280
    81.2400       244
    81.2600       260
    81.2800       282
    81.3000       286
    81.3200       278
    81.3400       290
    81.3600       264
    81.3800       290
    81.4000       328
    81.4200       256
    81.4400       282
    81.4600       268
    81.4800       270
    81.5000       258
    81.5200       294
    81.5400       236
    81.5600       274
    81.5800       256
    81.6000       256
    81.6200       280
    81.6400       248
    81.6600       270
    81.6800       252
    81.7000       258
    81.7200       262
    81.7400       248
    81.7600       258
    81.7800       268
    81.8000       266
    81.8200       278
    81.8400       278
    81.8600       302
    81.8800       286
    81.9000       284
    81.9200       280
    81.9400       272
    81.9600       274
    81.9800       278
    82.0000       332
    82.0200       276
    82.0400       276
    82.0600       310
    82.0800       268
    82.1000       314
    82.1200       340
    82.1400       280
    82.1600       306
    82.1800       294
    82.2000       338
    82.2200       340
    82.2400       360
    82.2600       316
    82.2800       358
    82.3000       380
    82.3200       346
    82.3400       324
    82.3600       290
    82.3800       338
    82.4000       366
    82.4200       360
    82.4400       302
    82.4600       334
    82.4800       362
    82.5000       346
    82.5200       340
    82.5400       396
    82.5600       364
    82.5800       368
    82.6000       338
    82.6200       362
    82.6400       400
    82.6600       334
    82.6800       412
    82.7000       402
    82.7200       388
    82.7400       400
    82.7600       362
    82.7800       376
    82.8000       426
    82.8200       396
    82.8400       384
    82.8600       410
    82.8800       396
    82.9000       398
    82.9200       390
    82.9400       414
    82.9600       394
    82.9800       370
    83.0000       374
    83.0200       362
    83.0400       392
    83.0600       410
    83.0800       384
    83.1000       364
    83.1200       378
    83.1400       370
    83.1600       364
    83.1800       412
    83.2000       366
    83.2200       404
    83.2400       364
    83.2600       366
    83.2800       406
    83.3000       374
    83.3200       374
    83.3400       384
    83.3600       406
    83.3800       384
    83.4000       382
    83.4200       392
    83.4400       394
    83.4600       330
    83.4800       362
    83.5000       360
    83.5200       356
    83.5400       316
    83.5600       342
    83.5800       332
    83.6000       322
    83.6200       348
    83.6400       344
    83.6600       342
    83.6800       292
    83.7000       316
    83.7200       320
    83.7400       288
    83.7600       308
    83.7800       312
    83.8000       298
    83.8200       316
    83.8400       290
    83.8600       318
    83.8800       340
    83.9000       302
    83.9200       278
    83.9400       302
    83.9600       300
    83.9800       294
    84.0000       302
    84.0200       296
    84.0400       306
    84.0600       282
    84.0800       296
    84.1000       292
    84.1200       310
    84.1400       308
    84.1600       276
    84.1800       282
    84.2000       276
    84.2200       278
    84.2400       276
    84.2600       286
    84.2800       290
    84.3000       274
    84.3200       286
    84.3400       286
    84.3600       270
    84.3800       268
    84.4000       264
    84.4200       294
    84.4400       266
    84.4600       248
    84.4800       258
    84.5000       258
    84.5200       246
    84.5400       238
    84.5600       262
    84.5800       248
    84.6000       226
    84.6200       270
    84.6400       256
    84.6600       240
    84.6800       264
    84.7000       252
    84.7200       250
    84.7400       258
    84.7600       228
    84.7800       228
    84.8000       244
    84.8200       254
    84.8400       230
    84.8600       228
    84.8800       244
    84.9000       242
    84.9200       244
    84.9400       264
    84.9600       240
    84.9800       252
    85.0000       230
    85.0200       230
    85.0400       202
    85.0600       232
    85.0800       220
    85.1000       234
    85.1200       244
    85.1400       234
    85.1600       232
    85.1800       250
    85.2000       246
    85.2200       242
    85.2400       224
    85.2600       232
    85.2800       254
    85.3000       218
    85.3200       232
    85.3400       234
    85.3600       248
    85.3800       262
    85.4000       272
    85.4200       262
    85.4400       276
    85.4600       262
    85.4800       288
    85.5000       270
    85.5200       260
    85.5400       268
    85.5600       274
    85.5800       264
    85.6000       284
    85.6200       268
    85.6400       276
    85.6600       250
    85.6800       252
    85.7000       286
    85.7200       222
    85.7400       280
    85.7600       260
    85.7800       268
    85.8000       278
    85.8200       222
    85.8400       256
    85.8600       232
    85.8800       236
    85.9000       238
    85.9200       246
    85.9400       224
    85.9600       210
    85.9800       232
    86.0000       220
    86.0200       210
    86.0400       208
    86.0600       198
    86.0800       228
    86.1000       202
    86.1200       216
    86.1400       222
    86.1600       222
    86.1800       218
    86.2000       238
    86.2200       212
    86.2400       200
    86.2600       232
    86.2800       220
    86.3000       222
    86.3200       204
    86.3400       246
    86.3600       232
    86.3800       222
    86.4000       202
    86.4200       206
    86.4400       210
    86.4600       220
    86.4800       224
    86.5000       224
    86.5200       204
    86.5400       194
    86.5600       220
    86.5800       248
    86.6000       242
    86.6200       244
    86.6400       246
    86.6600       268
    86.6800       264
    86.7000       244
    86.7200       266
    86.7400       286
    86.7600       264
    86.7800       262
    86.8000       282
    86.8200       288
    86.8400       314
    86.8600       294
    86.8800       330
    86.9000       306
    86.9200       328
    86.9400       290
    86.9600       368
    86.9800       306
    87.0000       358
    87.0200       342
    87.0400       308
    87.0600       312
    87.0800       332
    87.1000       298
    87.1200       302
    87.1400       304
    87.1600       316
    87.1800       314
    87.2000       342
    87.2200       304
    87.2400       324
    87.2600       298
    87.2800       272
    87.3000       308
    87.3200       308
    87.3400       312
    87.3600       308
    87.3800       280
    87.4000       310
    87.4200       302
    87.4400       306
    87.4600       284
    87.4800       292
    87.5000       302
    87.5200       296
    87.5400       290
    87.5600       314
    87.5800       306
    87.6000       290
    87.6200       302
    87.6400       338
    87.6600       286
    87.6800       330
    87.7000       328
    87.7200       306
    87.7400       316
    87.7600       340
    87.7800       332
    87.8000       366
    87.8200       352
    87.8400       330
    87.8600       356
    87.8800       364
    87.9000       348
    87.9200       368
    87.9400       356
    87.9600       384
    87.9800       336
    88.0000       330
    88.0200       352
    88.0400       376
    88.0600       334
    88.0800       364
    88.1000       356
    88.1200       362
    88.1400       310
    88.1600       320
    88.1800       342
    88.2000       298
    88.2200       320
    88.2400       290
    88.2600       292
    88.2800       292
    88.3000       316
    88.3200       288
    88.3400       276
    88.3600       280
    88.3800       312
    88.4000       306
    88.4200       290
    88.4400       280
    88.4600       290
    88.4800       274
    88.5000       252
    88.5200       254
    88.5400       274
    88.5600       268
    88.5800       308
    88.6000       270
    88.6200       254
    88.6400       288
    88.6600       278
    88.6800       280
    88.7000       292
    88.7200       290
    88.7400       306
    88.7600       268
    88.7800       266
    88.8000       280
    88.8200       248
    88.8400       258
    88.8600       286
    88.8800       286
    88.9000       278
    88.9200       282
    88.9400       280
    88.9600       246
    88.9800       264
    89.0000       278
    89.0200       288
    89.0400       236
    89.0600       230
    89.0800       236
    89.1000       268
    89.1200       264
    89.1400       212
    89.1600       250
    89.1800       228
    89.2000       274
    89.2200       256
    89.2400       232
    89.2600       270
    89.2800       242
    89.3000       262
    89.3200       250
    89.3400       272
    89.3600       292
    89.3800       266
    89.4000       242
    89.4200       246
    89.4400       254
    89.4600       280
    89.4800       274
    89.5000       290
    89.5200       248
    89.5400       308
    89.5600       278
    89.5800       302
    89.6000       282
    89.6200       272
    89.6400       274
    89.6600       300
    89.6800       282
    89.7000       284
    89.7200       306
    89.7400       302
    89.7600       284
    89.7800       354
    89.8000       284
    89.8200       322
    89.8400       278
    89.8600       314
    89.8800       308
    89.9000       302
    89.9200       290
    89.9400       320
    89.9600       318
    89.9800       356
    90.0000       334
