    10.0000       384
    10.0200       362
    10.0400       384
    10.0600       340
    10.0800       340
    10.1000       352
    10.1200       328
    10.1400       348
    10.1600       350
    10.1800       360
    10.2000       358
    10.2200       340
    10.2400       312
    10.2600       322
    10.2800       328
    10.3000       358
    10.3200       326
    10.3400       380
    10.3600       336
    10.3800       358
    10.4000       370
    10.4200       344
    10.4400       320
    10.4600       312
    10.4800       356
    10.5000       344
    10.5200       326
    10.5400       346
    10.5600       348
    10.5800       296
    10.6000       292
    10.6200       348
    10.6400       366
    10.6600       300
    10.6800       324
    10.7000       328
    10.7200       330
    10.7400       334
    10.7600       334
    10.7800       338
    10.8000       340
    10.8200       336
    10.8400       344
    10.8600       356
    10.8800       328
    10.9000       302
    10.9200       316
    10.9400       334
    10.9600       324
    10.9800       336
    11.0000       348
    11.0200       322
    11.0400       308
    11.0600       334
    11.0800       332
    11.1000       306
    11.1200       286
    11.1400       330
    11.1600       338
    11.1800       332
    11.2000       304
    11.2200       302
    11.2400       308
    11.2600       342
    11.2800       334
    11.3000       350
    11.3200       324
    11.3400       316
    11.3600       350
    11.3800       286
    11.4000       332
    11.4200       316
    11.4400       346
    11.4600       318
    11.4800       298
    11.5000       320
    11.5200       324
    11.5400       296
    11.5600       336
    11.5800       324
    11.6000       330
    11.6200       310
    11.6400       278
    11.6600       330
    11.6800       340
    11.7000       364
    11.7200       344
    11.7400       350
    11.7600       308
    11.7800       334
    11.8000       332
    11.8200       346
    11.8400       418
    11.8600       362
    11.8800       370
    11.9000       372
    11.9200       418
    11.9400       392
    11.9600       418
    11.9800       466
    12.0000       432
    12.0200       466
    12.0400       494
    12.0600       494
    12.0800       574
    12.1000       568
    12.1200       700
    12.1400       662
    12.1600       694
    12.1800       728
    12.2000       746
    12.2200       716
    12.2400       638
    12.2600       612
    12.2800       546
    12.3000       442
    12.3200       382
    12.3400       400
    12.3600       350
    12.3800       298
    12.4000       320
    12.4200       324
    12.4400       304
    12.4600       282
    12.4800       324
    12.5000       354
    12.5200       298
    12.5400       320
    12.5600       290
    12.5800       254
    12.6000       292
    12.6200       270
    12.6400       290
    12.6600       266
    12.6800       274
    12.7000       266
    12.7200       288
    12.7400       278
    12.7600       314
    12.7800       312
    12.8000       278
    12.8200       284
    12.8400       288
    12.8600       288
    12.8800       302
    12.9000       298
    12.9200       260
    12.9400       260
    12.9600       284
    12.9800       288
    13.0000       290
    13.0200       286
    13.0400       282
    13.0600       304
    13.0800       278
    13.1000       272
    13.1200       260
    13.1400       276
    13.1600       270
    13.1800       294
    13.2000       258
    13.2200       286
    13.2400       284
    13.2600       276
    13.2800       264
    13.3000       256
    13.3200       248
    13.3400       256
    13.3600       250
    13.3800       252
    13.4000       248
    13.4200       258
    13.4400       270
    13.4600       258
    13.4800       274
    13.5000       244
    13.5200       274
    13.5400       238
    13.5600       284
    13.5800       254
    13.6000       230
    13.6200       266
    13.6400       246
    13.6600       282
    13.6800       258
    13.7000       240
    13.7200       220
    13.7400       242
    13.7600       272
    13.7800       258
    13.8000       266
    13.8200       264
    13.8400       254
    13.8600       220
    13.8800       284
    13.9000       274
    13.9200       242
    13.9400       252
    13.9600       252
    13.9800       238
    14.0000       254
    14.0200       294
    14.0400       304
    14.0600       272
    14.0800       246
    14.1000       242
    14.1200       272
    14.1400       254
    14.1600       234
    14.1800       270
    14.2000       246
    14.2200       228
    14.2400       258
    14.2600       272
    14.2800       236
    14.3000       250
    14.3200       264
    14.3400       226
    14.3600       258
    14.3800       236
    14.4000       240
    14.4200       278
    14.4400       276
    14.4600       246
    14.4800       270
    14.5000       252
    14.5200       246
    14.5400       268
    14.5600       256
    14.5800       248
    14.6000       240
    14.6200       238
    14.6400       260
    14.6600       236
    14.6800       294
    14.7000       284
    14.7200       314
    14.7400       298
    14.7600       310
    14.7800       290
    14.8000       294
    14.8200       330
    14.8400       324
    14.8600       324
    14.8800       370
    14.9000       400
    14.9200       376
    14.9400       446
    14.9600       468
    14.9800       454
    15.0000       500
    15.0200       590
    15.0400       612
    15.0600       674
    15.0800       722
    15.1000       690
    15.1200       716
    15.1400       796
    15.1600       864
    15.1800       852
    15.2000       858
    15.2200       868
    15.2400       728
    15.2600       700
    15.2800       588
    15.3000       462
    15.3200       388
    15.3400       344
    15.3600       314
    15.3800       258
    15.4000       270
    15.4200       310
    15.4400       278
    15.4600       252
    15.4800       286
    15.5000       226
    15.5200       260
    15.5400       248
    15.5600       244
    15.5800       250
    15.6000       258
    15.6200       212
    15.6400       208
    15.6600       242
    15.6800       212
    15.7000       212
    15.7200       206
    15.7400       226
    15.7600       260
    15.7800       212
    15.8000       232
    15.8200       214
    15.8400       238
    15.8600       230
    15.8800       220
    15.9000       248
    15.9200       242
    15.9400       244
    15.9600       202
    15.9800       220
    16.0000       256
    16.0200       242
    16.0400       222
    16.0600       218
    16.0800       248
    16.1000       246
    16.1200       226
    16.1400       232
    16.1600       238
    16.1800       208
    16.2000       250
    16.2200       238
    16.2400       244
    16.2600       258
    16.2800       222
    16.3000       256
    16.3200       244
    16.3400       254
    16.3600       250
    16.3800       226
    16.4000       212
    16.4200       252
    16.4400       234
    16.4600       258
    16.4800       244
    16.5000       236
    16.5200       258
    16.5400       234
    16.5600       228
    16.5800       260
    16.6000       292
    16.6200       266
    16.6400       304
    16.6600       294
    16.6800       344
    16.7000       312
    16.7200       304
    16.7400       372
    16.7600       362
    16.7800       416
    16.8000       436
    16.8200       470
    16.8400       510
    16.8600       536
    16.8800       574
    16.9000       600
    16.9200       718
    16.9400       818
    16.9600       932
    16.9800       988
    17.0000      1214
    17.0200      1244
    17.0400      1366
    17.0600      1314
    17.0800      1274
    17.1000      1220
    17.1200      1014
    17.1400      1020
    17.1600       898
    17.1800       866
    17.2000       904
    17.2200       812
    17.2400       808
    17.2600       756
    17.2800       720
    17.3000       684
    17.3200       702
    17.3400       600
    17.3600       592
    17.3800       502
    17.4000       496
    17.4200       482
    17.4400       446
    17.4600       426
    17.4800       404
    17.5000       394
    17.5200       378
    17.5400       402
    17.5600       392
    17.5800       370
    17.6000       356
    17.6200       382
    17.6400       374
    17.6600       346
    17.6800       394
    17.7000       384
    17.7200       390
    17.7400       406
    17.7600       440
    17.7800       468
    17.8000       516
    17.8200       514
    17.8400       482
    17.8600       470
    17.8800       468
    17.9000       370
    17.9200       334
    17.9400       304
    17.9600       280
    17.9800       248
    18.0000       248
    18.0200       200
    18.0400       212
    18.0600       240
    18.0800       214
    18.1000       234
    18.1200       210
    18.1400       186
    18.1600       196
    18.1800       230
    18.2000       204
    18.2200       200
    18.2400       206
    18.2600       198
    18.2800       196
    18.3000       230
    18.3200       184
    18.3400       218
    18.3600       204
    18.3800       226
    18.4000       190
    18.4200       202
    18.4400       224
    18.4600       210
    18.4800       206
    18.5000       218
    18.5200       188
    18.5400       190
    18.5600       210
    18.5800       208
    18.6000       226
    18.6200       194
    18.6400       180
    18.6600       204
    18.6800       208
    18.7000       190
    18.7200       222
    18.7400       214
    18.7600       206
    18.7800       226
    18.8000       226
    18.8200       220
    18.8400       230
    18.8600       188
    18.8800       222
    18.9000       248
    18.9200       206
    18.9400       204
    18.9600       242
    18.9800       234
    19.0000       236
    19.0200       238
    19.0400       270
    19.0600       272
    19.0800       314
    19.1000       304
    19.1200       358
    19.1400       380
    19.1600       412
    19.1800       458
    19.2000       470
    19.2200       516
    19.2400       530
    19.2600       610
    19.2800       698
    19.3000       770
    19.3200       900
    19.3400      1004
    19.3600      1078
    19.3800      1274
    19.4000      1570
    19.4200      1752
    19.4400      2018
    19.4600      2342
    19.4800      2726
    19.5000      3090
    19.5200      3316
    19.5400      3456
    19.5600      3430
    19.5800      3114
    19.6000      2558
    19.6200      2162
    19.6400      1620
    19.6600      1324
    19.6800      1180
    19.7000       976
    19.7200       998
    19.7400       944
    19.7600       976
    19.7800       970
    19.8000      1068
    19.8200      1258
    19.8400      1276
    19.8600      1506
    19.8800      1650
    19.9000      1974
    19.9200      2074
    19.9400      2376
    19.9600      2500
    19.9800      2732
    20.0000      2532
    20.0200      2442
    20.0400      2114
    20.0600      1716
    20.0800      1380
    20.1000      1072
    20.1200       782
    20.1400       674
    20.1600       580
    20.1800       502
    20.2000       456
    20.2200       404
    20.2400       376
    20.2600       364
    20.2800       354
    20.3000       344
    20.3200       296
    20.3400       288
    20.3600       268
    20.3800       276
    20.4000       256
    20.4200       238
    20.4400       248
    20.4600       248
    20.4800       210
    20.5000       264
    20.5200       222
    20.5400       230
    20.5600       260
    20.5800       224
    20.6000       216
    20.6200       258
    20.6400       200
    20.6600       252
    20.6800       230
    20.7000       250
    20.7200       276
    20.7400       264
    20.7600       270
    20.7800       252
    20.8000       308
    20.8200       340
    20.8400       336
    20.8600       364
    20.8800       386
    20.9000       436
    20.9200       468
    20.9400       534
    20.9600       604
    20.9800       662
    21.0000       736
    21.0200       816
    21.0400       924
    21.0600      1058
    21.0800      1176
    21.1000      1346
    21.1200      1558
    21.1400      1720
    21.1600      1956
    21.1800      2112
    21.2000      2104
    21.2200      2206
    21.2400      2090
    21.2600      1926
    21.2800      1730
    21.3000      1450
    21.3200      1242
    21.3400      1062
    21.3600       810
    21.3800       704
    21.4000       608
    21.4200       486
    21.4400       422
    21.4600       376
    21.4800       366
    21.5000       324
    21.5200       308
    21.5400       288
    21.5600       290
    21.5800       282
    21.6000       278
    21.6200       222
    21.6400       240
    21.6600       222
    21.6800       206
    21.7000       230
    21.7200       246
    21.7400       230
    21.7600       192
    21.7800       242
    21.8000       214
    21.8200       192
    21.8400       200
    21.8600       208
    21.8800       210
    21.9000       214
    21.9200       202
    21.9400       194
    21.9600       202
    21.9800       202
    22.0000       208
    22.0200       220
    22.0400       198
    22.0600       224
    22.0800       200
    22.1000       216
    22.1200       210
    22.1400       224
    22.1600       206
    22.1800       206
    22.2000       222
    22.2200       246
    22.2400       226
    22.2600       256
    22.2800       230
    22.3000       284
    22.3200       262
    22.3400       244
    22.3600       308
    22.3800       296
    22.4000       312
    22.4200       342
    22.4400       358
    22.4600       386
    22.4800       434
    22.5000       466
    22.5200       526
    22.5400       552
    22.5600       676
    22.5800       700
    22.6000       820
    22.6200       976
    22.6400      1062
    22.6600      1278
    22.6800      1484
    22.7000      1664
    22.7200      1976
    22.7400      2342
    22.7600      2720
    22.7800      3160
    22.8000      3808
    22.8200      4364
    22.8400      4744
    22.8600      4848
    22.8800      4708
    22.9000      4204
    22.9200      3530
    22.9400      2820
    22.9600      2276
    22.9800      1682
    23.0000      1332
    23.0200      1032
    23.0400       858
    23.0600       710
    23.0800       622
    23.1000       570
    23.1200       540
    23.1400       468
    23.1600       462
    23.1800       420
    23.2000       382
    23.2200       364
    23.2400       334
    23.2600       372
    23.2800       304
    23.3000       278
    23.3200       278
    23.3400       266
    23.3600       242
    23.3800       252
    23.4000       240
    23.4200       238
    23.4400       246
    23.4600       238
    23.4800       222
    23.5000       278
    23.5200       214
    23.5400       224
    23.5600       200
    23.5800       202
    23.6000       204
    23.6200       254
    23.6400       208
    23.6600       228
    23.6800       224
    23.7000       220
    23.7200       212
    23.7400       208
    23.7600       244
    23.7800       222
    23.8000       208
    23.8200       204
    23.8400       202
    23.8600       218
    23.8800       242
    23.9000       204
    23.9200       236
    23.9400       208
    23.9600       204
    23.9800       218
    24.0000       218
    24.0200       250
    24.0400       234
    24.0600       214
    24.0800       264
    24.1000       262
    24.1200       278
    24.1400       270
    24.1600       256
    24.1800       296
    24.2000       320
    24.2200       322
    24.2400       320
    24.2600       352
    24.2800       394
    24.3000       438
    24.3200       520
    24.3400       532
    24.3600       566
    24.3800       684
    24.4000       774
    24.4200       834
    24.4400       976
    24.4600      1022
    24.4800      1118
    24.5000      1256
    24.5200      1288
    24.5400      1342
    24.5600      1304
    24.5800      1270
    24.6000      1186
    24.6200      1088
    24.6400      1012
    24.6600       938
    24.6800       814
    24.7000       730
    24.7200       730
    24.7400       618
    24.7600       608
    24.7800       542
    24.8000       576
    24.8200       502
    24.8400       450
    24.8600       476
    24.8800       418
    24.9000       414
    24.9200       422
    24.9400       424
    24.9600       378
    24.9800       402
    25.0000       404
    25.0200       398
    25.0400       426
    25.0600       426
    25.0800       426
    25.1000       464
    25.1200       430
    25.1400       434
    25.1600       498
    25.1800       516
    25.2000       550
    25.2200       556
    25.2400       614
    25.2600       656
    25.2800       698
    25.3000       758
    25.3200       756
    25.3400       770
    25.3600       820
    25.3800       752
    25.4000       728
    25.4200       750
    25.4400       696
    25.4600       706
    25.4800       766
    25.5000       808
    25.5200       908
    25.5400       958
    25.5600      1026
    25.5800      1132
    25.6000      1080
    25.6200      1096
    25.6400      1004
    25.6600       826
    25.6800       756
    25.7000       658
    25.7200       566
    25.7400       494
    25.7600       406
    25.7800       398
    25.8000       328
    25.8200       306
    25.8400       306
    25.8600       304
    25.8800       270
    25.9000       280
    25.9200       262
    25.9400       270
    25.9600       266
    25.9800       250
    26.0000       246
    26.0200       238
    26.0400       216
    26.0600       230
    26.0800       236
    26.1000       200
    26.1200       226
    26.1400       228
    26.1600       216
    26.1800       234
    26.2000       284
    26.2200       236
    26.2400       190
    26.2600       234
    26.2800       242
    26.3000       244
    26.3200       212
    26.3400       248
    26.3600       252
    26.3800       254
    26.4000       238
    26.4200       266
    26.4400       280
    26.4600       242
    26.4800       232
    26.5000       308
    26.5200       250
    26.5400       282
    26.5600       258
    26.5800       270
    26.6000       278
    26.6200       278
    26.6400       262
    26.6600       246
    26.6800       276
    26.7000       254
    26.7200       266
    26.7400       274
    26.7600       242
    26.7800       270
    26.8000       240
    26.8200       244
    26.8400       246
    26.8600       254
    26.8800       226
    26.9000       256
    26.9200       206
    26.9400       260
    26.9600       232
    26.9800       288
    27.0000       234
    27.0200       264
    27.0400       264
    27.0600       284
    27.0800       288
    27.1000       294
    27.1200       340
    27.1400       324
    27.1600       322
    27.1800       340
    27.2000       390
    27.2200       424
    27.2400       462
    27.2600       506
    27.2800       578
    27.3000       616
    27.3200       720
    27.3400       764
    27.3600       908
    27.3800       896
    27.4000      1014
    27.4200      1126
    27.4400      1202
    27.4600      1242
    27.4800      1282
    27.5000      1308
    27.5200      1284
    27.5400      1198
    27.5600      1126
    27.5800      1088
    27.6000       962
    27.6200       786
    27.6400       770
    27.6600       706
    27.6800       644
    27.7000       556
    27.7200       510
    27.7400       414
    27.7600       428
    27.7800       396
    27.8000       376
    27.8200       332
    27.8400       348
    27.8600       358
    27.8800       322
    27.9000       258
    27.9200       338
    27.9400       298
    27.9600       290
    27.9800       280
    28.0000       298
    28.0200       282
    28.0400       258
    28.0600       300
    28.0800       272
    28.1000       262
    28.1200       294
    28.1400       328
    28.1600       274
    28.1800       286
    28.2000       328
    28.2200       314
    28.2400       316
    28.2600       318
    28.2800       292
    28.3000       312
    28.3200       296
    28.3400       314
    28.3600       258
    28.3800       304
    28.4000       276
    28.4200       292
    28.4400       258
    28.4600       264
    28.4800       232
    28.5000       268
    28.5200       264
    28.5400       238
    28.5600       262
    28.5800       236
    28.6000       256
    28.6200       272
    28.6400       272
    28.6600       276
    28.6800       306
    28.7000       306
    28.7200       304
    28.7400       300
    28.7600       320
    28.7800       298
    28.8000       258
    28.8200       288
    28.8400       288
    28.8600       242
    28.8800       256
    28.9000       294
    28.9200       256
    28.9400       258
    28.9600       240
    28.9800       250
    29.0000       244
    29.0200       246
    29.0400       258
    29.0600       254
    29.0800       218
    29.1000       242
    29.1200       254
    29.1400       270
    29.1600       260
    29.1800       266
    29.2000       268
    29.2200       284
    29.2400       270
    29.2600       270
    29.2800       326
    29.3000       336
    29.3200       348
    29.3400       346
    29.3600       368
    29.3800       370
    29.4000       402
    29.4200       398
    29.4400       414
    29.4600       468
    29.4800       466
    29.5000       484
    29.5200       552
    29.5400       518
    29.5600       610
    29.5800       612
    29.6000       632
    29.6200       646
    29.6400       702
    29.6600       718
    29.6800       712
    29.7000       732
    29.7200       672
    29.7400       730
    29.7600       706
    29.7800       562
    29.8000       572
    29.8200       528
    29.8400       476
    29.8600       526
    29.8800       542
    29.9000       550
    29.9200       576
    29.9400       630
    29.9600       730
    29.9800       748
    30.0000       844
    30.0200      1012
    30.0400      1112
    30.0600      1228
    30.0800      1446
    30.1000      1544
    30.1200      1824
    30.1400      2026
    30.1600      2082
    30.1800      2232
    30.2000      2260
    30.2200      2386
    30.2400      2198
    30.2600      2162
    30.2800      2070
    30.3000      1864
    30.3200      1794
    30.3400      1702
    30.3600      1644
    30.3800      1552
    30.4000      1582
    30.4200      1642
    30.4400      1542
    30.4600      1684
    30.4800      1646
    30.5000      1850
    30.5200      1976
    30.5400      2080
    30.5600      2228
    30.5800      2406
    30.6000      2702
    30.6200      2930
    30.6400      3242
    30.6600      3262
    30.6800      3458
    30.7000      3570
    30.7200      3432
    30.7400      3050
    30.7600      2886
    30.7800      2410
    30.8000      2124
    30.8200      1790
    30.8400      1584
    30.8600      1280
    30.8800      1006
    30.9000       988
    30.9200       852
    30.9400       782
    30.9600       724
    30.9800       734
    31.0000       648
    31.0200       612
    31.0400       548
    31.0600       510
    31.0800       514
    31.1000       486
    31.1200       412
    31.1400       428
    31.1600       394
    31.1800       400
    31.2000       340
    31.2200       320
    31.2400       338
    31.2600       348
    31.2800       302
    31.3000       322
    31.3200       282
    31.3400       322
    31.3600       326
    31.3800       350
    31.4000       316
    31.4200       300
    31.4400       338
    31.4600       340
    31.4800       322
    31.5000       338
    31.5200       322
    31.5400       364
    31.5600       372
    31.5800       376
    31.6000       406
    31.6200       406
    31.6400       454
    31.6600       464
    31.6800       540
    31.7000       556
    31.7200       574
    31.7400       596
    31.7600       646
    31.7800       756
    31.8000       818
    31.8200       970
    31.8400      1058
    31.8600      1238
    31.8800      1354
    31.9000      1530
    31.9200      1876
    31.9400      2136
    31.9600      2344
    31.9800      2488
    32.0000      2560
    32.0200      2474
    32.0400      2334
    32.0600      2080
    32.0800      1918
    32.1000      1758
    32.1200      1574
    32.1400      1410
    32.1600      1296
    32.1800      1214
    32.2000      1240
    32.2200      1280
    32.2400      1382
    32.2600      1432
    32.2800      1524
    32.3000      1748
    32.3200      1918
    32.3400      2184
    32.3600      2494
    32.3800      2848
    32.4000      3254
    32.4200      3900
    32.4400      4588
    32.4600      5492
    32.4800      6206
    32.5000      7274
    32.5200      7672
    32.5400      8168
    32.5600      8424
    32.5800      8012
    32.6000      7560
    32.6200      6868
    32.6400      6216
    32.6600      5394
    32.6800      4610
    32.7000      3840
    32.7200      3414
    32.7400      2772
    32.7600      2246
    32.7800      1920
    32.8000      1680
    32.8200      1538
    32.8400      1410
    32.8600      1308
    32.8800      1224
    32.9000      1208
    32.9200      1188
    32.9400      1184
    32.9600      1226
    32.9800      1392
    33.0000      1274
    33.0200      1512
    33.0400      1496
    33.0600      1694
    33.0800      1704
    33.1000      1674
    33.1200      1572
    33.1400      1416
    33.1600      1380
    33.1800      1208
    33.2000      1028
    33.2200       952
    33.2400       814
    33.2600       666
    33.2800       596
    33.3000       526
    33.3200       476
    33.3400       444
    33.3600       426
    33.3800       374
    33.4000       362
    33.4200       330
    33.4400       350
    33.4600       322
    33.4800       332
    33.5000       306
    33.5200       296
    33.5400       274
    33.5600       260
    33.5800       280
    33.6000       236
    33.6200       224
    33.6400       246
    33.6600       232
    33.6800       254
    33.7000       228
    33.7200       236
    33.7400       234
    33.7600       260
    33.7800       234
    33.8000       240
    33.8200       218
    33.8400       268
    33.8600       226
    33.8800       254
    33.9000       222
    33.9200       210
    33.9400       210
    33.9600       240
    33.9800       240
    34.0000       208
    34.0200       248
    34.0400       252
    34.0600       250
    34.0800       256
    34.1000       260
    34.1200       246
    34.1400       240
    34.1600       232
    34.1800       252
    34.2000       246
    34.2200       278
    34.2400       232
    34.2600       238
    34.2800       250
    34.3000       264
    34.3200       248
    34.3400       304
    34.3600       322
    34.3800       306
    34.4000       356
    34.4200       358
    34.4400       406
    34.4600       456
    34.4800       448
    34.5000       396
    34.5200       378
    34.5400       392
    34.5600       388
    34.5800       376
    34.6000       352
    34.6200       360
    34.6400       368
    34.6600       346
    34.6800       316
    34.7000       296
    34.7200       268
    34.7400       286
    34.7600       274
    34.7800       272
    34.8000       306
    34.8200       298
    34.8400       266
    34.8600       256
    34.8800       306
    34.9000       270
    34.9200       266
    34.9400       244
    34.9600       296
    34.9800       252
    35.0000       286
    35.0200       262
    35.0400       248
    35.0600       274
    35.0800       256
    35.1000       270
    35.1200       254
    35.1400       266
    35.1600       286
    35.1800       252
    35.2000       232
    35.2200       240
    35.2400       252
    35.2600       264
    35.2800       230
    35.3000       230
    35.3200       246
    35.3400       258
    35.3600       260
    35.3800       240
    35.4000       256
    35.4200       254
    35.4400       250
    35.4600       252
    35.4800       260
    35.5000       242
    35.5200       242
    35.5400       258
    35.5600       260
    35.5800       268
    35.6000       274
    35.6200       264
    35.6400       262
    35.6600       304
    35.6800       296
    35.7000       348
    35.7200       286
    35.7400       318
    35.7600       326
    35.7800       352
    35.8000       326
    35.8200       318
    35.8400       350
    35.8600       364
    35.8800       374
    35.9000       404
    35.9200       416
    35.9400       436
    35.9600       472
    35.9800       550
    36.0000       538
    36.0200       604
    36.0400       664
    36.0600       762
    36.0800       802
    36.1000       832
    36.1200       846
    36.1400       910
    36.1600       810
    36.1800       860
    36.2000       792
    36.2200       742
    36.2400       718
    36.2600       680
    36.2800       588
    36.3000       524
    36.3200       456
    36.3400       456
    36.3600       474
    36.3800       368
    36.4000       422
    36.4200       396
    36.4400       396
    36.4600       364
    36.4800       428
    36.5000       432
    36.5200       402
    36.5400       434
    36.5600       470
    36.5800       464
    36.6000       484
    36.6200       600
    36.6400       574
    36.6600       634
    36.6800       702
    36.7000       768
    36.7200       858
    36.7400       992
    36.7600      1178
    36.7800      1326
    36.8000      1418
    36.8200      1596
    36.8400      1802
    36.8600      1968
    36.8800      2096
    36.9000      2212
    36.9200      2034
    36.9400      1928
    36.9600      1854
    36.9800      1754
    37.0000      1504
    37.0200      1416
    37.0400      1288
    37.0600      1206
    37.0800      1112
    37.1000      1040
    37.1200      1072
    37.1400      1020
    37.1600      1044
    37.1800       938
    37.2000       934
    37.2200       886
    37.2400       906
    37.2600       836
    37.2800       786
    37.3000       800
    37.3200       720
    37.3400       700
    37.3600       666
    37.3800       654
    37.4000       642
    37.4200       626
    37.4400       612
    37.4600       594
    37.4800       590
    37.5000       642
    37.5200       614
    37.5400       632
    37.5600       656
    37.5800       696
    37.6000       674
    37.6200       696
    37.6400       694
    37.6600       740
    37.6800       720
    37.7000       746
    37.7200       712
    37.7400       776
    37.7600       792
    37.7800       850
    37.8000       906
    37.8200       882
    37.8400       984
    37.8600      1058
    37.8800      1166
    37.9000      1314
    37.9200      1442
    37.9400      1678
    37.9600      1818
    37.9800      1940
    38.0000      2088
    38.0200      2120
    38.0400      2198
    38.0600      1996
    38.0800      2000
    38.1000      1910
    38.1200      1782
    38.1400      1688
    38.1600      1588
    38.1800      1488
    38.2000      1590
    38.2200      1452
    38.2400      1402
    38.2600      1548
    38.2800      1668
    38.3000      1784
    38.3200      2026
    38.3400      2156
    38.3600      2352
    38.3800      2866
    38.4000      3118
    38.4200      3558
    38.4400      3884
    38.4600      4174
    38.4800      4512
    38.5000      4638
    38.5200      4624
    38.5400      4746
    38.5600      4780
    38.5800      5004
    38.6000      4936
    38.6200      4680
    38.6400      4988
    38.6600      4896
    38.6800      4824
    38.7000      4720
    38.7200      4650
    38.7400      4406
    38.7600      4352
    38.7800      3954
    38.8000      3620
    38.8200      3220
    38.8400      2888
    38.8600      2600
    38.8800      2264
    38.9000      1944
    38.9200      1818
    38.9400      1564
    38.9600      1328
    38.9800      1256
    39.0000      1248
    39.0200      1166
    39.0400      1024
    39.0600      1030
    39.0800      1076
    39.1000      1046
    39.1200      1040
    39.1400      1024
    39.1600      1012
    39.1800      1096
    39.2000      1034
    39.2200      1046
    39.2400      1090
    39.2600      1056
    39.2800      1068
    39.3000      1032
    39.3200      1040
    39.3400      1026
    39.3600      1134
    39.3800      1056
    39.4000      1168
    39.4200      1190
    39.4400      1138
    39.4600      1170
    39.4800      1226
    39.5000      1246
    39.5200      1284
    39.5400      1332
    39.5600      1504
    39.5800      1598
    39.6000      1750
    39.6200      2044
    39.6400      2066
    39.6600      2274
    39.6800      2392
    39.7000      2466
    39.7200      2444
    39.7400      2268
    39.7600      2092
    39.7800      1972
    39.8000      1800
    39.8200      1602
    39.8400      1384
    39.8600      1246
    39.8800      1056
    39.9000       922
    39.9200       808
    39.9400       752
    39.9600       708
    39.9800       700
    40.0000       664
    40.0200       622
    40.0400       658
    40.0600       642
    40.0800       672
    40.1000       656
    40.1200       638
    40.1400       632
    40.1600       702
    40.1800       722
    40.2000       686
    40.2200       762
    40.2400       742
    40.2600       742
    40.2800       776
    40.3000       736
    40.3200       834
    40.3400       782
    40.3600       802
    40.3800       870
    40.4000       918
    40.4200       970
    40.4400       956
    40.4600      1086
    40.4800      1150
    40.5000      1342
    40.5200      1386
    40.5400      1530
    40.5600      1564
    40.5800      1624
    40.6000      1628
    40.6200      1596
    40.6400      1574
    40.6600      1500
    40.6800      1466
    40.7000      1356
    40.7200      1178
    40.7400      1156
    40.7600       990
    40.7800       948
    40.8000       902
    40.8200       794
    40.8400       724
    40.8600       636
    40.8800       638
    40.9000       646
    40.9200       630
    40.9400       630
    40.9600       622
    40.9800       612
    41.0000       672
    41.0200       708
    41.0400       704
    41.0600       792
    41.0800       820
    41.1000       872
    41.1200       966
    41.1400      1092
    41.1600      1192
    41.1800      1194
    41.2000      1324
    41.2200      1456
    41.2400      1518
    41.2600      1664
    41.2800      1728
    41.3000      1720
    41.3200      1756
    41.3400      1668
    41.3600      1616
    41.3800      1690
    41.4000      1546
    41.4200      1580
    41.4400      1538
    41.4600      1558
    41.4800      1434
    41.5000      1412
    41.5200      1382
    41.5400      1262
    41.5600      1298
    41.5800      1248
    41.6000      1224
    41.6200      1140
    41.6400      1068
    41.6600      1174
    41.6800      1106
    41.7000      1178
    41.7200      1096
    41.7400      1178
    41.7600      1190
    41.7800      1358
    41.8000      1486
    41.8200      1542
    41.8400      1654
    41.8600      1760
    41.8800      1776
    41.9000      1844
    41.9200      1894
    41.9400      1828
    41.9600      1802
    41.9800      1542
    42.0000      1436
    42.0200      1342
    42.0400      1130
    42.0600      1118
    42.0800      1016
    42.1000       832
    42.1200       806
    42.1400       716
    42.1600       602
    42.1800       550
    42.2000       538
    42.2200       524
    42.2400       500
    42.2600       474
    42.2800       482
    42.3000       424
    42.3200       438
    42.3400       434
    42.3600       400
    42.3800       388
    42.4000       386
    42.4200       382
    42.4400       372
    42.4600       378
    42.4800       354
    42.5000       392
    42.5200       340
    42.5400       360
    42.5600       362
    42.5800       354
    42.6000       356
    42.6200       342
    42.6400       340
    42.6600       352
    42.6800       338
    42.7000       422
    42.7200       394
    42.7400       394
    42.7600       424
    42.7800       406
    42.8000       398
    42.8200       416
    42.8400       496
    42.8600       482
    42.8800       536
    42.9000       504
    42.9200       496
    42.9400       580
    42.9600       650
    42.9800       682
    43.0000       774
    43.0200       830
    43.0400       930
    43.0600      1038
    43.0800      1198
    43.1000      1290
    43.1200      1454
    43.1400      1582
    43.1600      1752
    43.1800      1826
    43.2000      1778
    43.2200      1822
    43.2400      1836
    43.2600      1726
    43.2800      1564
    43.3000      1492
    43.3200      1362
    43.3400      1216
    43.3600      1192
    43.3800       992
    43.4000       918
    43.4200       778
    43.4400       728
    43.4600       706
    43.4800       584
    43.5000       576
    43.5200       578
    43.5400       574
    43.5600       564
    43.5800       514
    43.6000       462
    43.6200       532
    43.6400       520
    43.6600       496
    43.6800       520
    43.7000       592
    43.7200       598
    43.7400       620
    43.7600       602
    43.7800       666
    43.8000       722
    43.8200       720
    43.8400       680
    43.8600       668
    43.8800       734
    43.9000       726
    43.9200       686
    43.9400       618
    43.9600       620
    43.9800       528
    44.0000       572
    44.0200       502
    44.0400       496
    44.0600       474
    44.0800       442
    44.1000       388
    44.1200       420
    44.1400       370
    44.1600       384
    44.1800       346
    44.2000       410
    44.2200       408
    44.2400       378
    44.2600       446
    44.2800       400
    44.3000       394
    44.3200       396
    44.3400       450
    44.3600       370
    44.3800       376
    44.4000       428
    44.4200       388
    44.4400       380
    44.4600       398
    44.4800       424
    44.5000       430
    44.5200       402
    44.5400       402
    44.5600       412
    44.5800       426
    44.6000       418
    44.6200       456
    44.6400       470
    44.6600       480
    44.6800       480
    44.7000       522
    44.7200       546
    44.7400       538
    44.7600       582
    44.7800       660
    44.8000       634
    44.8200       708
    44.8400       846
    44.8600       826
    44.8800       958
    44.9000      1034
    44.9200      1112
    44.9400      1266
    44.9600      1300
    44.9800      1472
    45.0000      1512
    45.0200      1766
    45.0400      1674
    45.0600      1774
    45.0800      1832
    45.1000      1926
    45.1200      1962
    45.1400      1976
    45.1600      1882
    45.1800      1958
    45.2000      1966
    45.2200      1864
    45.2400      1778
    45.2600      1768
    45.2800      1698
    45.3000      1586
    45.3200      1496
    45.3400      1498
    45.3600      1366
    45.3800      1322
    45.4000      1294
    45.4200      1200
    45.4400      1220
    45.4600      1082
    45.4800      1040
    45.5000      1008
    45.5200       922
    45.5400       916
    45.5600       840
    45.5800       826
    45.6000       880
    45.6200       824
    45.6400       820
    45.6600       772
    45.6800       772
    45.7000       768
    45.7200       730
    45.7400       790
    45.7600       774
    45.7800       750
    45.8000       818
    45.8200       922
    45.8400       840
    45.8600       850
    45.8800       810
    45.9000       800
    45.9200       684
    45.9400       766
    45.9600       776
    45.9800       754
    46.0000       708
    46.0200       684
    46.0400       738
    46.0600       684
    46.0800       712
    46.1000       666
    46.1200       692
    46.1400       728
    46.1600       718
    46.1800       728
    46.2000       760
    46.2200       866
    46.2400       820
    46.2600       866
    46.2800       948
    46.3000       954
    46.3200      1032
    46.3400      1152
    46.3600      1304
    46.3800      1358
    46.4000      1498
    46.4200      1638
    46.4400      1838
    46.4600      2068
    46.4800      2254
    46.5000      2640
    46.5200      2982
    46.5400      3460
    46.5600      3966
    46.5800      4524
    46.6000      5182
    46.6200      5936
    46.6400      6608
    46.6600      7372
    46.6800      7892
    46.7000      8328
    46.7200      8270
    46.7400      8128
    46.7600      7666
    46.7800      7324
    46.8000      6786
    46.8200      6440
    46.8400      5770
    46.8600      5062
    46.8800      4358
    46.9000      3864
    46.9200      3356
    46.9400      2854
    46.9600      2344
    46.9800      2054
    47.0000      1846
    47.0200      1632
    47.0400      1480
    47.0600      1386
    47.0800      1174
    47.1000      1068
    47.1200      1062
    47.1400       898
    47.1600       878
    47.1800       826
    47.2000       744
    47.2200       720
    47.2400       686
    47.2600       674
    47.2800       574
    47.3000       608
    47.3200       564
    47.3400       514
    47.3600       590
    47.3800       488
    47.4000       504
    47.4200       486
    47.4400       488
    47.4600       504
    47.4800       478
    47.5000       482
    47.5200       470
    47.5400       510
    47.5600       496
    47.5800       496
    47.6000       478
    47.6200       470
    47.6400       532
    47.6600       538
    47.6800       544
    47.7000       570
    47.7200       572
    47.7400       636
    47.7600       726
    47.7800       738
    47.8000       754
    47.8200       788
    47.8400       838
    47.8600       792
    47.8800       800
    47.9000       762
    47.9200       774
    47.9400       746
    47.9600       758
    47.9800       722
    48.0000       736
    48.0200       726
    48.0400       678
    48.0600       720
    48.0800       798
    48.1000       702
    48.1200       798
    48.1400       844
    48.1600       878
    48.1800       888
    48.2000       898
    48.2200       906
    48.2400       982
    48.2600       958
    48.2800       956
    48.3000       930
    48.3200       946
    48.3400       908
    48.3600       964
    48.3800       884
    48.4000       996
    48.4200       916
    48.4400      1010
    48.4600      1024
    48.4800      1022
    48.5000      1060
    48.5200      1066
    48.5400      1114
    48.5600      1192
    48.5800      1148
    48.6000      1156
    48.6200      1156
    48.6400      1208
    48.6600      1170
    48.6800      1144
    48.7000      1082
    48.7200      1080
    48.7400      1056
    48.7600       948
    48.7800       874
    48.8000       858
    48.8200       850
    48.8400       756
    48.8600       730
    48.8800       662
    48.9000       630
    48.9200       574
    48.9400       606
    48.9600       566
    48.9800       498
    49.0000       502
    49.0200       452
    49.0400       436
    49.0600       448
    49.0800       436
    49.1000       448
    49.1200       390
    49.1400       360
    49.1600       376
    49.1800       398
    49.2000       340
    49.2200       338
    49.2400       342
    49.2600       328
    49.2800       326
    49.3000       286
    49.3200       296
    49.3400       332
    49.3600       330
    49.3800       322
    49.4000       288
    49.4200       312
    49.4400       292
    49.4600       324
    49.4800       368
    49.5000       322
    49.5200       308
    49.5400       312
    49.5600       326
    49.5800       358
    49.6000       322
    49.6200       346
    49.6400       318
    49.6600       314
    49.6800       380
    49.7000       348
    49.7200       324
    49.7400       368
    49.7600       350
    49.7800       358
    49.8000       366
    49.8200       382
    49.8400       380
    49.8600       410
    49.8800       386
    49.9000       432
    49.9200       412
    49.9400       422
    49.9600       496
    49.9800       516
    50.0000       454
    50.0200       532
    50.0400       620
    50.0600       654
    50.0800       612
    50.1000       734
    50.1200       738
    50.1400       818
    50.1600       918
    50.1800       982
    50.2000      1004
    50.2200      1042
    50.2400      1174
    50.2600      1234
    50.2800      1274
    50.3000      1268
    50.3200      1270
    50.3400      1344
    50.3600      1384
    50.3800      1374
    50.4000      1332
    50.4200      1256
    50.4400      1358
    50.4600      1268
    50.4800      1292
    50.5000      1212
    50.5200      1220
    50.5400      1140
    50.5600      1128
    50.5800      1132
    50.6000      1056
    50.6200      1046
    50.6400      1068
    50.6600      1078
    50.6800      1092
    50.7000      1120
    50.7200      1192
    50.7400      1218
    50.7600      1312
    50.7800      1384
    50.8000      1454
    50.8200      1418
    50.8400      1448
    50.8600      1480
    50.8800      1506
    50.9000      1474
    50.9200      1486
    50.9400      1438
    50.9600      1352
    50.9800      1336
    51.0000      1202
    51.0200      1156
    51.0400      1106
    51.0600      1066
    51.0800       966
    51.1000       946
    51.1200       866
    51.1400       834
    51.1600       758
    51.1800       760
    51.2000       786
    51.2200       780
    51.2400       770
    51.2600       778
    51.2800       784
    51.3000       782
    51.3200       814
    51.3400       832
    51.3600       908
    51.3800       882
    51.4000       924
    51.4200       894
    51.4400       900
    51.4600       892
    51.4800       914
    51.5000       840
    51.5200       846
    51.5400       876
    51.5600       852
    51.5800       860
    51.6000       824
    51.6200       854
    51.6400       814
    51.6600       870
    51.6800       876
    51.7000       884
    51.7200       900
    51.7400      1076
    51.7600      1052
    51.7800      1102
    51.8000      1234
    51.8200      1286
    51.8400      1340
    51.8600      1362
    51.8800      1318
    51.9000      1340
    51.9200      1384
    51.9400      1442
    51.9600      1416
    51.9800      1460
    52.0000      1448
    52.0200      1470
    52.0400      1470
    52.0600      1494
    52.0800      1420
    52.1000      1348
    52.1200      1234
    52.1400      1208
    52.1600      1066
    52.1800      1024
    52.2000       974
    52.2200       932
    52.2400       928
    52.2600       856
    52.2800       858
    52.3000       794
    52.3200       764
    52.3400       760
    52.3600       774
    52.3800       828
    52.4000       842
    52.4200       888
    52.4400       964
    52.4600       974
    52.4800      1078
    52.5000      1112
    52.5200      1308
    52.5400      1252
    52.5600      1376
    52.5800      1448
    52.6000      1400
    52.6200      1488
    52.6400      1518
    52.6600      1500
    52.6800      1488
    52.7000      1442
    52.7200      1366
    52.7400      1296
    52.7600      1272
    52.7800      1230
    52.8000      1152
    52.8200      1102
    52.8400       946
    52.8600      1012
    52.8800       986
    52.9000       866
    52.9200       848
    52.9400       800
    52.9600       798
    52.9800       828
    53.0000       780
    53.0200       788
    53.0400       836
    53.0600       830
    53.0800       908
    53.1000       974
    53.1200      1052
    53.1400      1118
    53.1600      1238
    53.1800      1354
    53.2000      1506
    53.2200      1530
    53.2400      1718
    53.2600      1792
    53.2800      1748
    53.3000      1688
    53.3200      1628
    53.3400      1550
    53.3600      1464
    53.3800      1396
    53.4000      1354
    53.4200      1278
    53.4400      1304
    53.4600      1104
    53.4800       918
    53.5000       896
    53.5200       814
    53.5400       738
    53.5600       702
    53.5800       722
    53.6000       612
    53.6200       620
    53.6400       578
    53.6600       588
    53.6800       564
    53.7000       548
    53.7200       526
    53.7400       498
    53.7600       540
    53.7800       482
    53.8000       516
    53.8200       452
    53.8400       458
    53.8600       432
    53.8800       450
    53.9000       424
    53.9200       428
    53.9400       422
    53.9600       446
    53.9800       430
    54.0000       434
    54.0200       404
    54.0400       420
    54.0600       436
    54.0800       452
    54.1000       424
    54.1200       400
    54.1400       442
    54.1600       396
    54.1800       428
    54.2000       438
    54.2200       464
    54.2400       500
    54.2600       480
    54.2800       480
    54.3000       508
    54.3200       474
    54.3400       502
    54.3600       554
    54.3800       570
    54.4000       510
    54.4200       570
    54.4400       578
    54.4600       600
    54.4800       596
    54.5000       684
    54.5200       682
    54.5400       740
    54.5600       710
    54.5800       788
    54.6000       766
    54.6200       790
    54.6400       820
    54.6600       836
    54.6800       874
    54.7000       902
    54.7200       944
    54.7400       992
    54.7600       998
    54.7800       946
    54.8000       928
    54.8200       964
    54.8400       910
    54.8600       860
    54.8800       816
    54.9000       834
    54.9200       846
    54.9400       870
    54.9600       858
    54.9800       856
    55.0000       788
    55.0200       802
    55.0400       820
    55.0600       878
    55.0800       862
    55.1000       886
    55.1200       886
    55.1400       952
    55.1600      1014
    55.1800       920
    55.2000       924
    55.2200       884
    55.2400       906
    55.2600       914
    55.2800       942
    55.3000       876
    55.3200       808
    55.3400       834
    55.3600       784
    55.3800       782
    55.4000       770
    55.4200       718
    55.4400       690
    55.4600       670
    55.4800       624
    55.5000       592
    55.5200       566
    55.5400       572
    55.5600       546
    55.5800       522
    55.6000       482
    55.6200       484
    55.6400       466
    55.6600       464
    55.6800       398
    55.7000       404
    55.7200       418
    55.7400       396
    55.7600       388
    55.7800       392
    55.8000       360
    55.8200       362
    55.8400       410
    55.8600       318
    55.8800       390
    55.9000       344
    55.9200       340
    55.9400       312
    55.9600       334
    55.9800       302
    56.0000       326
    56.0200       276
    56.0400       310
    56.0600       314
    56.0800       300
    56.1000       296
    56.1200       292
    56.1400       334
    56.1600       316
    56.1800       290
    56.2000       292
    56.2200       328
    56.2400       294
    56.2600       298
    56.2800       302
    56.3000       296
    56.3200       328
    56.3400       316
    56.3600       306
    56.3800       354
    56.4000       300
    56.4200       340
    56.4400       354
    56.4600       310
    56.4800       344
    56.5000       316
    56.5200       338
    56.5400       352
    56.5600       372
    56.5800       378
    56.6000       352
    56.6200       356
    56.6400       390
    56.6600       444
    56.6800       422
    56.7000       432
    56.7200       430
    56.7400       452
    56.7600       446
    56.7800       462
    56.8000       536
    56.8200       496
    56.8400       518
    56.8600       514
    56.8800       504
    56.9000       552
    56.9200       482
    56.9400       546
    56.9600       502
    56.9800       528
    57.0000       542
    57.0200       576
    57.0400       590
    57.0600       590
    57.0800       570
    57.1000       620
    57.1200       668
    57.1400       716
    57.1600       710
    57.1800       778
    57.2000       832
    57.2200       880
    57.2400      1020
    57.2600      1146
    57.2800      1268
    57.3000      1310
    57.3200      1476
    57.3400      1570
    57.3600      1580
    57.3800      1676
    57.4000      1512
    57.4200      1602
    57.4400      1558
    57.4600      1562
    57.4800      1466
    57.5000      1514
    57.5200      1478
    57.5400      1420
    57.5600      1364
    57.5800      1384
    57.6000      1406
    57.6200      1418
    57.6400      1348
    57.6600      1452
    57.6800      1480
    57.7000      1566
    57.7200      1536
    57.7400      1558
    57.7600      1616
    57.7800      1672
    57.8000      1510
    57.8200      1442
    57.8400      1470
    57.8600      1378
    57.8800      1324
    57.9000      1260
    57.9200      1206
    57.9400      1128
    57.9600      1058
    57.9800      1018
    58.0000       966
    58.0200       840
    58.0400       876
    58.0600       868
    58.0800       822
    58.1000       782
    58.1200       796
    58.1400       798
    58.1600       792
    58.1800       804
    58.2000       868
    58.2200       834
    58.2400       894
    58.2600       966
    58.2800      1056
    58.3000      1108
    58.3200      1170
    58.3400      1210
    58.3600      1350
    58.3800      1412
    58.4000      1524
    58.4200      1594
    58.4400      1642
    58.4600      1836
    58.4800      1908
    58.5000      2028
    58.5200      2054
    58.5400      2212
    58.5600      2294
    58.5800      2300
    58.6000      2564
    58.6200      2498
    58.6400      2756
    58.6600      2790
    58.6800      3000
    58.7000      3210
    58.7200      3166
    58.7400      3130
    58.7600      3132
    58.7800      3052
    58.8000      2934
    58.8200      2910
    58.8400      2864
    58.8600      2688
    58.8800      2488
    58.9000      2386
    58.9200      2188
    58.9400      2144
    58.9600      1816
    58.9800      1726
    59.0000      1608
    59.0200      1548
    59.0400      1472
    59.0600      1160
    59.0800      1160
    59.1000      1046
    59.1200      1038
    59.1400       966
    59.1600       876
    59.1800       932
    59.2000       894
    59.2200       860
    59.2400       848
    59.2600       812
    59.2800       816
    59.3000       846
    59.3200       890
    59.3400       990
    59.3600       946
    59.3800       962
    59.4000       990
    59.4200      1044
    59.4400      1084
    59.4600      1192
    59.4800      1116
    59.5000      1034
    59.5200      1062
    59.5400       984
    59.5600      1034
    59.5800      1036
    59.6000      1080
    59.6200      1010
    59.6400      1066
    59.6600      1018
    59.6800      1026
    59.7000       968
    59.7200       954
    59.7400       950
    59.7600       948
    59.7800       944
    59.8000       926
    59.8200       872
    59.8400       888
    59.8600       886
    59.8800       830
    59.9000       826
    59.9200       790
    59.9400       816
    59.9600       718
    59.9800       702
    60.0000       714
    60.0200       684
    60.0400       604
    60.0600       658
    60.0800       588
    60.1000       576
    60.1200       530
    60.1400       560
    60.1600       534
    60.1800       498
    60.2000       478
    60.2200       480
    60.2400       444
    60.2600       456
    60.2800       424
    60.3000       436
    60.3200       440
    60.3400       428
    60.3600       412
    60.3800       416
    60.4000       370
    60.4200       382
    60.4400       382
    60.4600       384
    60.4800       374
    60.5000       406
    60.5200       446
    60.5400       396
    60.5600       396
    60.5800       424
    60.6000       412
    60.6200       398
    60.6400       436
    60.6600       440
    60.6800       432
    60.7000       454
    60.7200       430
    60.7400       438
    60.7600       438
    60.7800       464
    60.8000       454
    60.8200       462
    60.8400       446
    60.8600       504
    60.8800       512
    60.9000       540
    60.9200       508
    60.9400       536
    60.9600       556
    60.9800       598
    61.0000       618
    61.0200       624
    61.0400       644
    61.0600       602
    61.0800       728
    61.1000       732
    61.1200       750
    61.1400       712
    61.1600       726
    61.1800       828
    61.2000       754
    61.2200       796
    61.2400       780
    61.2600       802
    61.2800       794
    61.3000       726
    61.3200       784
    61.3400       738
    61.3600       826
    61.3800       756
    61.4000       792
    61.4200       824
    61.4400       828
    61.4600       840
    61.4800       880
    61.5000       924
    61.5200       986
    61.5400       994
    61.5600       932
    61.5800       900
    61.6000       980
    61.6200       976
    61.6400      1008
    61.6600       936
    61.6800       946
    61.7000       920
    61.7200       884
    61.7400       862
    61.7600       836
    61.7800       810
    61.8000       782
    61.8200       766
    61.8400       730
    61.8600       724
    61.8800       710
    61.9000       706
    61.9200       672
    61.9400       668
    61.9600       606
    61.9800       618
    62.0000       634
    62.0200       638
    62.0400       574
    62.0600       586
    62.0800       620
    62.1000       590
    62.1200       602
    62.1400       554
    62.1600       608
    62.1800       596
    62.2000       572
    62.2200       524
    62.2400       542
    62.2600       536
    62.2800       558
    62.3000       516
    62.3200       530
    62.3400       560
    62.3600       490
    62.3800       470
    62.4000       460
    62.4200       498
    62.4400       452
    62.4600       458
    62.4800       466
    62.5000       434
    62.5200       426
    62.5400       438
    62.5600       394
    62.5800       396
    62.6000       394
    62.6200       420
    62.6400       436
    62.6600       378
    62.6800       410
    62.7000       370
    62.7200       402
    62.7400       398
    62.7600       384
    62.7800       412
    62.8000       358
    62.8200       390
    62.8400       360
    62.8600       396
    62.8800       338
    62.9000       346
    62.9200       338
    62.9400       360
    62.9600       322
    62.9800       334
    63.0000       302
    63.0200       304
    63.0400       300
    63.0600       324
    63.0800       298
    63.1000       280
    63.1200       290
    63.1400       272
    63.1600       266
    63.1800       274
    63.2000       274
    63.2200       264
    63.2400       292
    63.2600       266
    63.2800       300
    63.3000       260
    63.3200       272
    63.3400       280
    63.3600       262
    63.3800       306
    63.4000       274
    63.4200       292
    63.4400       282
    63.4600       286
    63.4800       292
    63.5000       274
    63.5200       330
    63.5400       282
    63.5600       330
    63.5800       300
    63.6000       342
    63.6200       318
    63.6400       342
    63.6600       374
    63.6800       380
    63.7000       412
    63.7200       416
    63.7400       428
    63.7600       474
    63.7800       498
    63.8000       530
    63.8200       620
    63.8400       628
    63.8600       650
    63.8800       602
    63.9000       652
    63.9200       646
    63.9400       666
    63.9600       604
    63.9800       620
    64.0000       642
    64.0200       564
    64.0400       590
    64.0600       576
    64.0800       526
    64.1000       502
    64.1200       464
    64.1400       464
    64.1600       434
    64.1800       408
    64.2000       404
    64.2200       392
    64.2400       352
    64.2600       348
    64.2800       330
    64.3000       346
    64.3200       332
    64.3400       316
    64.3600       326
    64.3800       320
    64.4000       328
    64.4200       286
    64.4400       268
    64.4600       260
    64.4800       292
    64.5000       286
    64.5200       268
    64.5400       256
    64.5600       274
    64.5800       280
    64.6000       248
    64.6200       258
    64.6400       258
    64.6600       250
    64.6800       224
    64.7000       266
    64.7200       256
    64.7400       232
    64.7600       266
    64.7800       226
    64.8000       244
    64.8200       230
    64.8400       246
    64.8600       230
    64.8800       254
    64.9000       264
    64.9200       272
    64.9400       302
    64.9600       252
    64.9800       264
    65.0000       280
    65.0200       292
    65.0400       262
    65.0600       304
    65.0800       322
    65.1000       326
    65.1200       314
    65.1400       368
    65.1600       372
    65.1800       414
    65.2000       418
    65.2200       430
    65.2400       452
    65.2600       466
    65.2800       414
    65.3000       442
    65.3200       426
    65.3400       434
    65.3600       446
    65.3800       476
    65.4000       432
    65.4200       464
    65.4400       436
    65.4600       388
    65.4800       430
    65.5000       426
    65.5200       406
    65.5400       414
    65.5600       396
    65.5800       394
    65.6000       400
    65.6200       376
    65.6400       364
    65.6600       326
    65.6800       310
    65.7000       366
    65.7200       344
    65.7400       326
    65.7600       324
    65.7800       332
    65.8000       276
    65.8200       328
    65.8400       320
    65.8600       310
    65.8800       296
    65.9000       272
    65.9200       286
    65.9400       280
    65.9600       290
    65.9800       270
    66.0000       292
    66.0200       268
    66.0400       270
    66.0600       250
    66.0800       260
    66.1000       254
    66.1200       248
    66.1400       278
    66.1600       258
    66.1800       268
    66.2000       292
    66.2200       276
    66.2400       268
    66.2600       252
    66.2800       282
    66.3000       264
    66.3200       284
    66.3400       276
    66.3600       282
    66.3800       288
    66.4000       288
    66.4200       318
    66.4400       318
    66.4600       312
    66.4800       328
    66.5000       338
    66.5200       368
    66.5400       366
    66.5600       404
    66.5800       432
    66.6000       418
    66.6200       398
    66.6400       474
    66.6600       514
    66.6800       500
    66.7000       544
    66.7200       630
    66.7400       652
    66.7600       708
    66.7800       750
    66.8000       800
    66.8200       794
    66.8400       872
    66.8600       864
    66.8800       928
    66.9000       934
    66.9200       880
    66.9400       876
    66.9600       900
    66.9800       874
    67.0000       856
    67.0200       848
    67.0400       806
    67.0600       762
    67.0800       736
    67.1000       706
    67.1200       724
    67.1400       626
    67.1600       584
    67.1800       562
    67.2000       532
    67.2200       548
    67.2400       480
    67.2600       438
    67.2800       478
    67.3000       452
    67.3200       404
    67.3400       426
    67.3600       390
    67.3800       400
    67.4000       356
    67.4200       394
    67.4400       360
    67.4600       350
    67.4800       356
    67.5000       354
    67.5200       338
    67.5400       334
    67.5600       356
    67.5800       356
    67.6000       336
    67.6200       348
    67.6400       354
    67.6600       342
    67.6800       330
    67.7000       366
    67.7200       332
    67.7400       370
    67.7600       378
    67.7800       352
    67.8000       374
    67.8200       382
    67.8400       418
    67.8600       466
    67.8800       454
    67.9000       492
    67.9200       512
    67.9400       596
    67.9600       600
    67.9800       634
    68.0000       694
    68.0200       714
    68.0400       824
    68.0600       856
    68.0800       918
    68.1000       986
    68.1200      1084
    68.1400      1070
    68.1600      1156
    68.1800      1194
    68.2000      1120
    68.2200      1122
    68.2400      1212
    68.2600      1144
    68.2800      1132
    68.3000      1112
    68.3200      1182
    68.3400      1024
    68.3600      1000
    68.3800       946
    68.4000       976
    68.4200       864
    68.4400       844
    68.4600       770
    68.4800       728
    68.5000       664
    68.5200       700
    68.5400       636
    68.5600       570
    68.5800       534
    68.6000       574
    68.6200       540
    68.6400       470
    68.6600       448
    68.6800       458
    68.7000       412
    68.7200       386
    68.7400       422
    68.7600       404
    68.7800       370
    68.8000       340
    68.8200       370
    68.8400       360
    68.8600       362
    68.8800       348
    68.9000       342
    68.9200       372
    68.9400       360
    68.9600       358
    68.9800       368
    69.0000       356
    69.0200       322
    69.0400       340
    69.0600       338
    69.0800       334
    69.1000       370
    69.1200       380
    69.1400       362
    69.1600       358
    69.1800       366
    69.2000       378
    69.2200       436
    69.2400       406
    69.2600       434
    69.2800       462
    69.3000       494
    69.3200       498
    69.3400       494
    69.3600       536
    69.3800       524
    69.4000       550
    69.4200       550
    69.4400       570
    69.4600       530
    69.4800       544
    69.5000       524
    69.5200       512
    69.5400       532
    69.5600       446
    69.5800       524
    69.6000       458
    69.6200       488
    69.6400       444
    69.6600       430
    69.6800       428
    69.7000       362
    69.7200       404
    69.7400       354
    69.7600       358
    69.7800       338
    69.8000       378
    69.8200       342
    69.8400       356
    69.8600       344
    69.8800       372
    69.9000       364
    69.9200       310
    69.9400       308
    69.9600       328
    69.9800       326
    70.0000       342
    70.0200       346
    70.0400       344
    70.0600       284
    70.0800       278
    70.1000       292
    70.1200       282
    70.1400       264
    70.1600       302
    70.1800       252
    70.2000       238
    70.2200       246
    70.2400       250
    70.2600       226
    70.2800       284
    70.3000       284
    70.3200       236
    70.3400       246
    70.3600       232
    70.3800       234
    70.4000       236
    70.4200       258
    70.4400       260
    70.4600       242
    70.4800       224
    70.5000       252
    70.5200       252
    70.5400       260
    70.5600       246
    70.5800       242
    70.6000       244
    70.6200       226
    70.6400       244
    70.6600       278
    70.6800       276
    70.7000       220
    70.7200       296
    70.7400       258
    70.7600       228
    70.7800       264
    70.8000       266
    70.8200       230
    70.8400       266
    70.8600       250
    70.8800       248
    70.9000       216
    70.9200       210
    70.9400       214
    70.9600       220
    70.9800       232
    71.0000       220
    71.0200       232
    71.0400       208
    71.0600       228
    71.0800       270
    71.1000       252
    71.1200       282
    71.1400       256
    71.1600       282
    71.1800       250
    71.2000       300
    71.2200       280
    71.2400       296
    71.2600       340
    71.2800       340
    71.3000       348
    71.3200       380
    71.3400       394
    71.3600       400
    71.3800       438
    71.4000       508
    71.4200       522
    71.4400       504
    71.4600       544
    71.4800       574
    71.5000       622
    71.5200       648
    71.5400       610
    71.5600       596
    71.5800       606
    71.6000       644
    71.6200       608
    71.6400       582
    71.6600       578
    71.6800       598
    71.7000       568
    71.7200       600
    71.7400       548
    71.7600       596
    71.7800       574
    71.8000       538
    71.8200       542
    71.8400       542
    71.8600       512
    71.8800       538
    71.9000       530
    71.9200       508
    71.9400       494
    71.9600       464
    71.9800       474
    72.0000       486
    72.0200       462
    72.0400       458
    72.0600       470
    72.0800       434
    72.1000       472
    72.1200       448
    72.1400       422
    72.1600       456
    72.1800       484
    72.2000       474
    72.2200       474
    72.2400       478
    72.2600       492
    72.2800       534
    72.3000       540
    72.3200       550
    72.3400       546
    72.3600       500
    72.3800       534
    72.4000       568
    72.4200       574
    72.4400       536
    72.4600       510
    72.4800       518
    72.5000       498
    72.5200       594
    72.5400       506
    72.5600       504
    72.5800       522
    72.6000       510
    72.6200       502
    72.6400       490
    72.6600       520
    72.6800       504
    72.7000       492
    72.7200       486
    72.7400       476
    72.7600       508
    72.7800       480
    72.8000       450
    72.8200       460
    72.8400       430
    72.8600       482
    72.8800       488
    72.9000       452
    72.9200       432
    72.9400       476
    72.9600       414
    72.9800       400
    73.0000       382
    73.0200       380
    73.0400       394
    73.0600       396
    73.0800       400
    73.1000       334
    73.1200       328
    73.1400       336
    73.1600       306
    73.1800       328
    73.2000       302
    73.2200       260
    73.2400       276
    73.2600       256
    73.2800       312
    73.3000       290
    73.3200       282
    73.3400       244
    73.3600       270
    73.3800       272
    73.4000       248
    73.4200       222
    73.4400       242
    73.4600       244
    73.4800       240
    73.5000       240
    73.5200       232
    73.5400       254
    73.5600       250
    73.5800       246
    73.6000       230
    73.6200       246
    73.6400       262
    73.6600       274
    73.6800       248
    73.7000       242
    73.7200       236
    73.7400       250
    73.7600       252
    73.7800       250
    73.8000       240
    73.8200       234
    73.8400       244
    73.8600       300
    73.8800       230
    73.9000       254
    73.9200       198
    73.9400       256
    73.9600       276
    73.9800       286
    74.0000       302
    74.0200       262
    74.0400       278
    74.0600       290
    74.0800       264
    74.1000       306
    74.1200       292
    74.1400       282
    74.1600       326
    74.1800       272
    74.2000       290
    74.2200       292
    74.2400       304
    74.2600       278
    74.2800       284
    74.3000       292
    74.3200       278
    74.3400       242
    74.3600       274
    74.3800       244
    74.4000       248
    74.4200       232
    74.4400       214
    74.4600       220
    74.4800       256
    74.5000       248
    74.5200       218
    74.5400       208
    74.5600       204
    74.5800       220
    74.6000       222
    74.6200       214
    74.6400       196
    74.6600       212
    74.6800       194
    74.7000       196
    74.7200       228
    74.7400       188
    74.7600       194
    74.7800       192
    74.8000       200
    74.8200       202
    74.8400       194
    74.8600       188
    74.8800       196
    74.9000       180
    74.9200       220
    74.9400       200
    74.9600       202
    74.9800       206
    75.0000       216
    75.0200       222
    75.0400       212
    75.0600       230
    75.0800       212
    75.1000       202
    75.1200       210
    75.1400       218
    75.1600       216
    75.1800       266
    75.2000       220
    75.2200       246
    75.2400       234
    75.2600       242
    75.2800       250
    75.3000       268
    75.3200       238
    75.3400       226
    75.3600       240
    75.3800       254
    75.4000       218
    75.4200       244
    75.4400       282
    75.4600       244
    75.4800       262
    75.5000       236
    75.5200       284
    75.5400       198
    75.5600       272
    75.5800       274
    75.6000       232
    75.6200       278
    75.6400       242
    75.6600       228
    75.6800       230
    75.7000       234
    75.7200       200
    75.7400       226
    75.7600       242
    75.7800       214
    75.8000       248
    75.8200       238
    75.8400       258
    75.8600       236
    75.8800       260
    75.9000       236
    75.9200       256
    75.9400       254
    75.9600       248
    75.9800       246
    76.0000       244
    76.0200       250
    76.0400       260
    76.0600       248
    76.0800       252
    76.1000       254
    76.1200       284
    76.1400       280
    76.1600       272
    76.1800       258
    76.2000       268
    76.2200       286
    76.2400       272
    76.2600       302
    76.2800       280
    76.3000       294
    76.3200       314
    76.3400       310
    76.3600       330
    76.3800       334
    76.4000       372
    76.4200       338
    76.4400       322
    76.4600       344
    76.4800       352
    76.5000       362
    76.5200       364
    76.5400       364
    76.5600       408
    76.5800       408
    76.6000       398
    76.6200       408
    76.6400       406
    76.6600       412
    76.6800       436
    76.7000       380
    76.7200       410
    76.7400       438
    76.7600       448
    76.7800       404
    76.8000       420
    76.8200       388
    76.8400       392
    76.8600       364
    76.8800       400
    76.9000       374
    76.9200       340
    76.9400       348
    76.9600       360
    76.9800       358
    77.0000       342
    77.0200       346
    77.0400       360
    77.0600       308
    77.0800       318
    77.1000       344
    77.1200       340
    77.1400       314
    77.1600       324
    77.1800       340
    77.2000       360
    77.2200       328
    77.2400       360
    77.2600       376
    77.2800       398
    77.3000       388
    77.3200       418
    77.3400       380
    77.3600       440
    77.3800       434
    77.4000       466
    77.4200       480
    77.4400       524
    77.4600       536
    77.4800       580
    77.5000       574
    77.5200       638
    77.5400       688
    77.5600       716
    77.5800       740
    77.6000       750
    77.6200       826
    77.6400       848
    77.6600       890
    77.6800       796
    77.7000       816
    77.7200       788
    77.7400       796
    77.7600       800
    77.7800       744
    77.8000       784
    77.8200       758
    77.8400       706
    77.8600       682
    77.8800       710
    77.9000       700
    77.9200       674
    77.9400       632
    77.9600       566
    77.9800       594
    78.0000       566
    78.0200       554
    78.0400       526
    78.0600       456
    78.0800       426
    78.1000       458
    78.1200       412
    78.1400       428
    78.1600       424
    78.1800       380
    78.2000       370
    78.2200       358
    78.2400       374
    78.2600       374
    78.2800       394
    78.3000       352
    78.3200       366
    78.3400       342
    78.3600       380
    78.3800       378
    78.4000       384
    78.4200       374
    78.4400       354
    78.4600       410
    78.4800       436
    78.5000       370
    78.5200       386
    78.5400       414
    78.5600       426
    78.5800       454
    78.6000       390
    78.6200       426
    78.6400       452
    78.6600       428
    78.6800       402
    78.7000       442
    78.7200       466
    78.7400       448
    78.7600       446
    78.7800       382
    78.8000       396
    78.8200       408
    78.8400       406
    78.8600       444
    78.8800       390
    78.9000       360
    78.9200       396
    78.9400       346
    78.9600       332
    78.9800       334
    79.0000       344
    79.0200       340
    79.0400       338
    79.0600       300
    79.0800       292
    79.1000       314
    79.1200       292
    79.1400       314
    79.1600       272
    79.1800       278
    79.2000       316
    79.2200       282
    79.2400       292
    79.2600       278
    79.2800       280
    79.3000       254
    79.3200       298
    79.3400       260
    79.3600       252
    79.3800       252
    79.4000       254
    79.4200       282
    79.4400       262
    79.4600       248
    79.4800       268
    79.5000       294
    79.5200       250
    79.5400       232
    79.5600       260
    79.5800       288
    79.6000       260
    79.6200       320
    79.6400       282
    79.6600       318
    79.6800       282
    79.7000       276
    79.7200       286
    79.7400       270
    79.7600       258
    79.7800       284
    79.8000       260
    79.8200       276
    79.8400       272
    79.8600       282
    79.8800       252
    79.9000       280
    79.9200       252
    79.9400       288
    79.9600       270
    79.9800       270
    80.0000       266
    80.0200       244
    80.0400       236
    80.0600       238
    80.0800       244
    80.1000       244
    80.1200       268
    80.1400       260
    80.1600       242
    80.1800       268
    80.2000       266
    80.2200       270
    80.2400       272
    80.2600       244
    80.2800       290
    80.3000       266
    80.3200       260
    80.3400       296
    80.3600       268
    80.3800       286
    80.4000       278
    80.4200       304
    80.4400       268
    80.4600       316
    80.4800       274
    80.5000       320
    80.5200       266
    80.5400       278
    80.5600       292
    80.5800       270
    80.6000       282
    80.6200       260
    80.6400       294
    80.6600       290
    80.6800       304
    80.7000       260
    80.7200       280
    80.7400       274
    80.7600       262
    80.7800       272
    80.8000       264
    80.8200       256
    80.8400       240
    80.8600       234
    80.8800       232
    80.9000       228
    80.9200       266
    80.9400       258
    80.9600       240
    80.9800       226
    81.0000       254
    81.0200       242
    81.0400       248
    81.0600       252
    81.0800       246
    81.1000       234
    81.1200       240
    81.1400       282
    81.1600       234
    81.1800       250
    81.2000       274
    81.2200       274
    81.2400       264
    81.2600       256
    81.2800       292
    81.3000       274
    81.3200       282
    81.3400       274
    81.3600       284
    81.3800       278
    81.4000       270
    81.4200       232
    81.4400       246
    81.4600       260
    81.4800       276
    81.5000       280
    81.5200       262
    81.5400       268
    81.5600       294
    81.5800       248
    81.6000       280
    81.6200       270
    81.6400       276
    81.6600       242
    81.6800       270
    81.7000       284
    81.7200       286
    81.7400       278
    81.7600       280
    81.7800       302
    81.8000       286
    81.8200       288
    81.8400       304
    81.8600       286
    81.8800       274
    81.9000       328
    81.9200       306
    81.9400       310
    81.9600       308
    81.9800       264
    82.0000       316
    82.0200       342
    82.0400       314
    82.0600       308
    82.0800       342
    82.1000       306
    82.1200       330
    82.1400       340
    82.1600       332
    82.1800       360
    82.2000       344
    82.2200       380
    82.2400       352
    82.2600       362
    82.2800       378
    82.3000       406
    82.3200       346
    82.3400       422
    82.3600       370
    82.3800       384
    82.4000       384
    82.4200       396
    82.4400       360
    82.4600       376
    82.4800       380
    82.5000       370
    82.5200       408
    82.5400       396
    82.5600       406
    82.5800       416
    82.6000       414
    82.6200       438
    82.6400       420
    82.6600       456
    82.6800       452
    82.7000       528
    82.7200       526
    82.7400       514
    82.7600       484
    82.7800       534
    82.8000       520
    82.8200       564
    82.8400       546
    82.8600       550
    82.8800       536
    82.9000       552
    82.9200       502
    82.9400       594
    82.9600       550
    82.9800       556
    83.0000       564
    83.0200       520
    83.0400       556
    83.0600       550
    83.0800       546
    83.1000       558
    83.1200       526
    83.1400       580
    83.1600       526
    83.1800       520
    83.2000       532
    83.2200       464
    83.2400       480
    83.2600       466
    83.2800       456
    83.3000       438
    83.3200       470
    83.3400       424
    83.3600       426
    83.3800       416
    83.4000       466
    83.4200       460
    83.4400       406
    83.4600       408
    83.4800       402
    83.5000       404
    83.5200       402
    83.5400       400
    83.5600       350
    83.5800       316
    83.6000       346
    83.6200       356
    83.6400       308
    83.6600       346
    83.6800       312
    83.7000       310
    83.7200       316
    83.7400       334
    83.7600       324
    83.7800       350
    83.8000       296
    83.8200       330
    83.8400       306
    83.8600       312
    83.8800       326
    83.9000       296
    83.9200       340
    83.9400       292
    83.9600       310
    83.9800       298
    84.0000       308
    84.0200       324
    84.0400       304
    84.0600       310
    84.0800       318
    84.1000       318
    84.1200       316
    84.1400       294
    84.1600       296
    84.1800       308
    84.2000       312
    84.2200       296
    84.2400       292
    84.2600       344
    84.2800       304
    84.3000       314
    84.3200       290
    84.3400       332
    84.3600       294
    84.3800       318
    84.4000       348
    84.4200       332
    84.4400       332
    84.4600       306
    84.4800       296
    84.5000       282
    84.5200       294
    84.5400       272
    84.5600       314
    84.5800       296
    84.6000       276
    84.6200       286
    84.6400       280
    84.6600       290
    84.6800       280
    84.7000       298
    84.7200       276
    84.7400       258
    84.7600       284
    84.7800       266
    84.8000       266
    84.8200       322
    84.8400       262
    84.8600       296
    84.8800       286
    84.9000       274
    84.9200       240
    84.9400       260
    84.9600       284
    84.9800       278
    85.0000       266
    85.0200       244
    85.0400       256
    85.0600       250
    85.0800       230
    85.1000       278
    85.1200       276
    85.1400       256
    85.1600       254
    85.1800       262
    85.2000       244
    85.2200       258
    85.2400       234
    85.2600       252
    85.2800       238
    85.3000       212
    85.3200       274
    85.3400       264
    85.3600       258
    85.3800       266
    85.4000       264
    85.4200       282
    85.4400       286
    85.4600       318
    85.4800       318
    85.5000       332
    85.5200       306
    85.5400       298
    85.5600       296
    85.5800       308
    85.6000       298
    85.6200       324
    85.6400       312
    85.6600       288
    85.6800       286
    85.7000       300
    85.7200       288
    85.7400       288
    85.7600       272
    85.7800       280
    85.8000       256
    85.8200       294
    85.8400       262
    85.8600       276
    85.8800       258
    85.9000       250
    85.9200       274
    85.9400       250
    85.9600       250
    85.9800       232
    86.0000       278
    86.0200       230
    86.0400       212
    86.0600       230
    86.0800       232
    86.1000       226
    86.1200       216
    86.1400       208
    86.1600       196
    86.1800       246
    86.2000       260
    86.2200       250
    86.2400       202
    86.2600       220
    86.2800       222
    86.3000       236
    86.3200       236
    86.3400       216
    86.3600       228
    86.3800       216
    86.4000       216
    86.4200       214
    86.4400       220
    86.4600       270
    86.4800       256
    86.5000       242
    86.5200       232
    86.5400       248
    86.5600       236
    86.5800       222
    86.6000       262
    86.6200       254
    86.6400       276
    86.6600       240
    86.6800       278
    86.7000       258
    86.7200       308
    86.7400       276
    86.7600       312
    86.7800       292
    86.8000       296
    86.8200       342
    86.8400       338
    86.8600       318
    86.8800       304
    86.9000       322
    86.9200       326
    86.9400       330
    86.9600       356
    86.9800       388
    87.0000       358
    87.0200       364
    87.0400       350
    87.0600       348
    87.0800       320
    87.1000       370
    87.1200       318
    87.1400       328
    87.1600       360
    87.1800       348
    87.2000       330
    87.2200       318
    87.2400       342
    87.2600       326
    87.2800       314
    87.3000       296
    87.3200       280
    87.3400       284
    87.3600       278
    87.3800       294
    87.4000       330
    87.4200       304
    87.4400       272
    87.4600       302
    87.4800       318
    87.5000       282
    87.5200       326
    87.5400       306
    87.5600       300
    87.5800       280
    87.6000       296
    87.6200       314
    87.6400       310
    87.6600       330
    87.6800       318
    87.7000       318
    87.7200       364
    87.7400       368
    87.7600       328
    87.7800       358
    87.8000       354
    87.8200       404
    87.8400       380
    87.8600       354
    87.8800       380
    87.9000       382
    87.9200       410
    87.9400       384
    87.9600       404
    87.9800       374
    88.0000       394
    88.0200       370
    88.0400       408
    88.0600       394
    88.0800       398
    88.1000       382
    88.1200       400
    88.1400       394
    88.1600       390
    88.1800       404
    88.2000       388
    88.2200       394
    88.2400       388
    88.2600       376
    88.2800       404
    88.3000       416
    88.3200       396
    88.3400       360
    88.3600       420
    88.3800       396
    88.4000       372
    88.4200       416
    88.4400       402
    88.4600       410
    88.4800       392
    88.5000       400
    88.5200       368
    88.5400       370
    88.5600       392
    88.5800       376
    88.6000       372
    88.6200       368
    88.6400       386
    88.6600       376
    88.6800       392
    88.7000       382
    88.7200       366
    88.7400       366
    88.7600       376
    88.7800       360
    88.8000       354
    88.8200       328
    88.8400       342
    88.8600       350
    88.8800       308
    88.9000       300
    88.9200       274
    88.9400       278
    88.9600       262
    88.9800       318
    89.0000       300
    89.0200       268
    89.0400       296
    89.0600       282
    89.0800       274
    89.1000       254
    89.1200       270
    89.1400       272
    89.1600       264
    89.1800       242
    89.2000       268
    89.2200       264
    89.2400       270
    89.2600       232
    89.2800       256
    89.3000       278
    89.3200       266
    89.3400       272
    89.3600       272
    89.3800       232
    89.4000       266
    89.4200       276
    89.4400       274
    89.4600       270
    89.4800       264
    89.5000       266
    89.5200       286
    89.5400       278
    89.5600       270
    89.5800       272
    89.6000       260
    89.6200       292
    89.6400       280
    89.6600       264
    89.6800       266
    89.7000       292
    89.7200       314
    89.7400       298
    89.7600       278
    89.7800       290
    89.8000       274
    89.8200       284
    89.8400       258
    89.8600       284
    89.8800       304
    89.9000       284
    89.9200       292
    89.9400       314
    89.9600       312
    89.9800       314
    90.0000       326
