    10.0000       356
    10.0200       394
    10.0400       380
    10.0600       378
    10.0800       392
    10.1000       424
    10.1200       360
    10.1400       398
    10.1600       366
    10.1800       334
    10.2000       382
    10.2200       376
    10.2400       342
    10.2600       352
    10.2800       346
    10.3000       352
    10.3200       334
    10.3400       354
    10.3600       348
    10.3800       350
    10.4000       324
    10.4200       342
    10.4400       352
    10.4600       384
    10.4800       352
    10.5000       354
    10.5200       336
    10.5400       332
    10.5600       312
    10.5800       344
    10.6000       376
    10.6200       342
    10.6400       362
    10.6600       364
    10.6800       376
    10.7000       316
    10.7200       376
    10.7400       350
    10.7600       348
    10.7800       328
    10.8000       302
    10.8200       338
    10.8400       356
    10.8600       338
    10.8800       346
    10.9000       298
    10.9200       336
    10.9400       356
    10.9600       362
    10.9800       304
    11.0000       306
    11.0200       330
    11.0400       318
    11.0600       340
    11.0800       312
    11.1000       342
    11.1200       336
    11.1400       320
    11.1600       326
    11.1800       310
    11.2000       370
    11.2200       342
    11.2400       324
    11.2600       300
    11.2800       344
    11.3000       298
    11.3200       334
    11.3400       322
    11.3600       328
    11.3800       312
    11.4000       326
    11.4200       288
    11.4400       334
    11.4600       318
    11.4800       318
    11.5000       342
    11.5200       326
    11.5400       292
    11.5600       336
    11.5800       304
    11.6000       332
    11.6200       314
    11.6400       352
    11.6600       326
    11.6800       310
    11.7000       290
    11.7200       322
    11.7400       314
    11.7600       310
    11.7800       300
    11.8000       328
    11.8200       290
    11.8400       294
    11.8600       332
    11.8800       298
    11.9000       322
    11.9200       286
    11.9400       272
    11.9600       302
    11.9800       296
    12.0000       292
    12.0200       314
    12.0400       314
    12.0600       276
    12.0800       336
    12.1000       316
    12.1200       282
    12.1400       294
    12.1600       332
    12.1800       368
    12.2000       344
    12.2200       346
    12.2400       342
    12.2600       330
    12.2800       304
    12.3000       320
    12.3200       302
    12.3400       266
    12.3600       308
    12.3800       308
    12.4000       324
    12.4200       292
    12.4400       300
    12.4600       304
    12.4800       262
    12.5000       266
    12.5200       278
    12.5400       290
    12.5600       282
    12.5800       282
    12.6000       274
    12.6200       276
    12.6400       276
    12.6600       306
    12.6800       276
    12.7000       266
    12.7200       300
    12.7400       280
    12.7600       260
    12.7800       302
    12.8000       306
    12.8200       268
    12.8400       272
    12.8600       324
    12.8800       300
    12.9000       276
    12.9200       282
    12.9400       278
    12.9600       280
    12.9800       264
    13.0000       286
    13.0200       272
    13.0400       272
    13.0600       280
    13.0800       244
    13.1000       290
    13.1200       270
    13.1400       260
    13.1600       292
    13.1800       244
    13.2000       262
    13.2200       268
    13.2400       248
    13.2600       280
    13.2800       274
    13.3000       268
    13.3200       274
    13.3400       270
    13.3600       266
    13.3800       250
    13.4000       282
    13.4200       286
    13.4400       240
    13.4600       276
    13.4800       256
    13.5000       240
    13.5200       252
    13.5400       262
    13.5600       240
    13.5800       272
    13.6000       272
    13.6200       252
    13.6400       266
    13.6600       236
    13.6800       226
    13.7000       230
    13.7200       244
    13.7400       234
    13.7600       240
    13.7800       224
    13.8000       230
    13.8200       252
    13.8400       248
    13.8600       228
    13.8800       252
    13.9000       248
    13.9200       226
    13.9400       282
    13.9600       232
    13.9800       248
    14.0000       254
    14.0200       240
    14.0400       254
    14.0600       252
    14.0800       216
    14.1000       240
    14.1200       246
    14.1400       242
    14.1600       252
    14.1800       258
    14.2000       248
    14.2200       194
    14.2400       208
    14.2600       232
    14.2800       242
    14.3000       242
    14.3200       232
    14.3400       242
    14.3600       206
    14.3800       228
    14.4000       208
    14.4200       252
    14.4400       238
    14.4600       236
    14.4800       216
    14.5000       238
    14.5200       238
    14.5400       254
    14.5600       228
    14.5800       246
    14.6000       210
    14.6200       236
    14.6400       230
    14.6600       222
    14.6800       230
    14.7000       216
    14.7200       210
    14.7400       238
    14.7600       216
    14.7800       218
    14.8000       234
    14.8200       260
    14.8400       250
    14.8600       242
    14.8800       244
    14.9000       212
    14.9200       244
    14.9400       250
    14.9600       274
    14.9800       234
    15.0000       246
    15.0200       254
    15.0400       272
    15.0600       258
    15.0800       230
    15.1000       264
    15.1200       254
    15.1400       250
    15.1600       228
    15.1800       244
    15.2000       238
    15.2200       226
    15.2400       244
    15.2600       242
    15.2800       222
    15.3000       234
    15.3200       250
    15.3400       238
    15.3600       214
    15.3800       236
    15.4000       236
    15.4200       192
    15.4400       252
    15.4600       232
    15.4800       238
    15.5000       240
    15.5200       212
    15.5400       222
    15.5600       196
    15.5800       220
    15.6000       216
    15.6200       212
    15.6400       258
    15.6600       226
    15.6800       220
    15.7000       208
    15.7200       200
    15.7400       244
    15.7600       238
    15.7800       236
    15.8000       238
    15.8200       226
    15.8400       222
    15.8600       220
    15.8800       230
    15.9000       244
    15.9200       216
    15.9400       218
    15.9600       216
    15.9800       234
    16.0000       230
    16.0200       204
    16.0400       194
    16.0600       192
    16.0800       206
    16.1000       226
    16.1200       210
    16.1400       208
    16.1600       196
    16.1800       248
    16.2000       216
    16.2200       184
    16.2400       218
    16.2600       248
    16.2800       242
    16.3000       256
    16.3200       228
    16.3400       202
    16.3600       240
    16.3800       242
    16.4000       228
    16.4200       220
    16.4400       210
    16.4600       204
    16.4800       218
    16.5000       230
    16.5200       248
    16.5400       216
    16.5600       200
    16.5800       212
    16.6000       196
    16.6200       230
    16.6400       222
    16.6600       208
    16.6800       208
    16.7000       210
    16.7200       206
    16.7400       210
    16.7600       220
    16.7800       192
    16.8000       200
    16.8200       218
    16.8400       248
    16.8600       214
    16.8800       220
    16.9000       208
    16.9200       266
    16.9400       214
    16.9600       242
    16.9800       238
    17.0000       232
    17.0200       232
    17.0400       262
    17.0600       224
    17.0800       262
    17.1000       250
    17.1200       258
    17.1400       284
    17.1600       276
    17.1800       258
    17.2000       276
    17.2200       278
    17.2400       306
    17.2600       284
    17.2800       280
    17.3000       270
    17.3200       286
    17.3400       282
    17.3600       274
    17.3800       278
    17.4000       260
    17.4200       260
    17.4400       256
    17.4600       272
    17.4800       220
    17.5000       236
    17.5200       222
    17.5400       214
    17.5600       232
    17.5800       216
    17.6000       216
    17.6200       214
    17.6400       236
    17.6600       206
    17.6800       198
    17.7000       224
    17.7200       200
    17.7400       220
    17.7600       208
    17.7800       224
    17.8000       216
    17.8200       218
    17.8400       222
    17.8600       178
    17.8800       190
    17.9000       208
    17.9200       190
    17.9400       222
    17.9600       192
    17.9800       206
    18.0000       212
    18.0200       184
    18.0400       214
    18.0600       202
    18.0800       200
    18.1000       228
    18.1200       168
    18.1400       182
    18.1600       204
    18.1800       192
    18.2000       202
    18.2200       194
    18.2400       232
    18.2600       204
    18.2800       198
    18.3000       202
    18.3200       226
    18.3400       194
    18.3600       208
    18.3800       184
    18.4000       208
    18.4200       214
    18.4400       230
    18.4600       202
    18.4800       214
    18.5000       228
    18.5200       216
    18.5400       182
    18.5600       186
    18.5800       212
    18.6000       216
    18.6200       214
    18.6400       210
    18.6600       208
    18.6800       218
    18.7000       234
    18.7200       210
    18.7400       246
    18.7600       228
    18.7800       198
    18.8000       248
    18.8200       230
    18.8400       252
    18.8600       242
    18.8800       244
    18.9000       242
    18.9200       262
    18.9400       264
    18.9600       248
    18.9800       282
    19.0000       266
    19.0200       308
    19.0400       264
    19.0600       328
    19.0800       292
    19.1000       358
    19.1200       396
    19.1400       430
    19.1600       454
    19.1800       454
    19.2000       522
    19.2200       568
    19.2400       658
    19.2600       730
    19.2800       816
    19.3000       864
    19.3200      1082
    19.3400      1144
    19.3600      1318
    19.3800      1508
    19.4000      1888
    19.4200      2120
    19.4400      2510
    19.4600      3160
    19.4800      3526
    19.5000      4150
    19.5200      4472
    19.5400      4828
    19.5600      4644
    19.5800      4306
    19.6000      3614
    19.6200      2870
    19.6400      2254
    19.6600      1806
    19.6800      1456
    19.7000      1278
    19.7200      1260
    19.7400      1224
    19.7600      1264
    19.7800      1300
    19.8000      1436
    19.8200      1592
    19.8400      1740
    19.8600      1860
    19.8800      2162
    19.9000      2546
    19.9200      2862
    19.9400      3204
    19.9600      3538
    19.9800      3684
    20.0000      3734
    20.0200      3484
    20.0400      2958
    20.0600      2490
    20.0800      2108
    20.1000      1576
    20.1200      1154
    20.1400       910
    20.1600       816
    20.1800       696
    20.2000       614
    20.2200       576
    20.2400       570
    20.2600       530
    20.2800       562
    20.3000       492
    20.3200       470
    20.3400       466
    20.3600       452
    20.3800       420
    20.4000       406
    20.4200       358
    20.4400       358
    20.4600       342
    20.4800       304
    20.5000       324
    20.5200       286
    20.5400       258
    20.5600       268
    20.5800       242
    20.6000       236
    20.6200       226
    20.6400       240
    20.6600       252
    20.6800       242
    20.7000       252
    20.7200       252
    20.7400       202
    20.7600       246
    20.7800       222
    20.8000       226
    20.8200       210
    20.8400       216
    20.8600       226
    20.8800       230
    20.9000       208
    20.9200       232
    20.9400       222
    20.9600       242
    20.9800       276
    21.0000       258
    21.0200       238
    21.0400       266
    21.0600       288
    21.0800       282
    21.1000       282
    21.1200       366
    21.1400       340
    21.1600       378
    21.1800       404
    21.2000       348
    21.2200       368
    21.2400       378
    21.2600       390
    21.2800       408
    21.3000       352
    21.3200       320
    21.3400       286
    21.3600       268
    21.3800       250
    21.4000       256
    21.4200       238
    21.4400       246
    21.4600       214
    21.4800       198
    21.5000       220
    21.5200       198
    21.5400       204
    21.5600       212
    21.5800       226
    21.6000       232
    21.6200       182
    21.6400       182
    21.6600       216
    21.6800       218
    21.7000       202
    21.7200       202
    21.7400       206
    21.7600       224
    21.7800       206
    21.8000       178
    21.8200       200
    21.8400       198
    21.8600       200
    21.8800       190
    21.9000       194
    21.9200       230
    21.9400       224
    21.9600       216
    21.9800       240
    22.0000       180
    22.0200       196
    22.0400       198
    22.0600       206
    22.0800       192
    22.1000       198
    22.1200       224
    22.1400       242
    22.1600       232
    22.1800       214
    22.2000       216
    22.2200       242
    22.2400       226
    22.2600       258
    22.2800       276
    22.3000       272
    22.3200       284
    22.3400       270
    22.3600       332
    22.3800       302
    22.4000       344
    22.4200       360
    22.4400       382
    22.4600       402
    22.4800       484
    22.5000       542
    22.5200       592
    22.5400       726
    22.5600       786
    22.5800       858
    22.6000       964
    22.6200      1072
    22.6400      1332
    22.6600      1566
    22.6800      1686
    22.7000      1990
    22.7200      2444
    22.7400      2908
    22.7600      3466
    22.7800      4278
    22.8000      4938
    22.8200      5790
    22.8400      6458
    22.8600      6902
    22.8800      6602
    22.9000      5988
    22.9200      5140
    22.9400      4228
    22.9600      3306
    22.9800      2632
    23.0000      2018
    23.0200      1678
    23.0400      1340
    23.0600      1186
    23.0800      1018
    23.1000       992
    23.1200       918
    23.1400       864
    23.1600       830
    23.1800       734
    23.2000       668
    23.2200       634
    23.2400       614
    23.2600       626
    23.2800       568
    23.3000       516
    23.3200       488
    23.3400       470
    23.3600       378
    23.3800       390
    23.4000       394
    23.4200       330
    23.4400       314
    23.4600       320
    23.4800       306
    23.5000       316
    23.5200       278
    23.5400       290
    23.5600       264
    23.5800       298
    23.6000       268
    23.6200       258
    23.6400       260
    23.6600       272
    23.6800       258
    23.7000       278
    23.7200       266
    23.7400       250
    23.7600       264
    23.7800       260
    23.8000       256
    23.8200       238
    23.8400       264
    23.8600       270
    23.8800       262
    23.9000       248
    23.9200       254
    23.9400       246
    23.9600       266
    23.9800       272
    24.0000       270
    24.0200       284
    24.0400       282
    24.0600       274
    24.0800       306
    24.1000       324
    24.1200       318
    24.1400       290
    24.1600       320
    24.1800       304
    24.2000       342
    24.2200       346
    24.2400       362
    24.2600       362
    24.2800       384
    24.3000       420
    24.3200       414
    24.3400       476
    24.3600       536
    24.3800       576
    24.4000       630
    24.4200       706
    24.4400       746
    24.4600       716
    24.4800       728
    24.5000       750
    24.5200       720
    24.5400       630
    24.5600       564
    24.5800       594
    24.6000       496
    24.6200       484
    24.6400       454
    24.6600       420
    24.6800       348
    24.7000       332
    24.7200       326
    24.7400       310
    24.7600       268
    24.7800       292
    24.8000       238
    24.8200       252
    24.8400       242
    24.8600       232
    24.8800       280
    24.9000       266
    24.9200       242
    24.9400       268
    24.9600       258
    24.9800       232
    25.0000       234
    25.0200       260
    25.0400       238
    25.0600       230
    25.0800       232
    25.1000       222
    25.1200       248
    25.1400       266
    25.1600       254
    25.1800       242
    25.2000       290
    25.2200       294
    25.2400       276
    25.2600       328
    25.2800       320
    25.3000       326
    25.3200       314
    25.3400       374
    25.3600       398
    25.3800       428
    25.4000       490
    25.4200       542
    25.4400       564
    25.4600       710
    25.4800       790
    25.5000       872
    25.5200      1058
    25.5400      1210
    25.5600      1276
    25.5800      1450
    25.6000      1466
    25.6200      1460
    25.6400      1274
    25.6600      1188
    25.6800      1074
    25.7000       864
    25.7200       682
    25.7400       636
    25.7600       468
    25.7800       462
    25.8000       380
    25.8200       332
    25.8400       348
    25.8600       322
    25.8800       282
    25.9000       312
    25.9200       298
    25.9400       302
    25.9600       278
    25.9800       238
    26.0000       240
    26.0200       266
    26.0400       294
    26.0600       266
    26.0800       248
    26.1000       278
    26.1200       274
    26.1400       300
    26.1600       280
    26.1800       300
    26.2000       336
    26.2200       366
    26.2400       354
    26.2600       378
    26.2800       410
    26.3000       428
    26.3200       492
    26.3400       550
    26.3600       514
    26.3800       544
    26.4000       574
    26.4200       620
    26.4400       654
    26.4600       692
    26.4800       640
    26.5000       708
    26.5200       744
    26.5400       722
    26.5600       706
    26.5800       708
    26.6000       770
    26.6200       822
    26.6400       726
    26.6600       756
    26.6800       714
    26.7000       680
    26.7200       670
    26.7400       620
    26.7600       514
    26.7800       492
    26.8000       494
    26.8200       482
    26.8400       446
    26.8600       420
    26.8800       376
    26.9000       330
    26.9200       310
    26.9400       310
    26.9600       304
    26.9800       292
    27.0000       276
    27.0200       326
    27.0400       310
    27.0600       296
    27.0800       282
    27.1000       264
    27.1200       272
    27.1400       278
    27.1600       298
    27.1800       284
    27.2000       300
    27.2200       288
    27.2400       264
    27.2600       288
    27.2800       296
    27.3000       302
    27.3200       272
    27.3400       284
    27.3600       288
    27.3800       286
    27.4000       304
    27.4200       274
    27.4400       302
    27.4600       296
    27.4800       276
    27.5000       328
    27.5200       304
    27.5400       334
    27.5600       296
    27.5800       318
    27.6000       270
    27.6200       282
    27.6400       316
    27.6600       300
    27.6800       266
    27.7000       270
    27.7200       252
    27.7400       260
    27.7600       266
    27.7800       276
    27.8000       294
    27.8200       278
    27.8400       290
    27.8600       328
    27.8800       342
    27.9000       384
    27.9200       408
    27.9400       424
    27.9600       456
    27.9800       490
    28.0000       516
    28.0200       566
    28.0400       680
    28.0600       724
    28.0800       766
    28.1000       854
    28.1200      1016
    28.1400      1220
    28.1600      1342
    28.1800      1638
    28.2000      1870
    28.2200      2208
    28.2400      2386
    28.2600      2518
    28.2800      2566
    28.3000      2406
    28.3200      2288
    28.3400      1856
    28.3600      1668
    28.3800      1396
    28.4000      1088
    28.4200       930
    28.4400       696
    28.4600       618
    28.4800       538
    28.5000       482
    28.5200       410
    28.5400       428
    28.5600       344
    28.5800       270
    28.6000       310
    28.6200       292
    28.6400       254
    28.6600       254
    28.6800       254
    28.7000       240
    28.7200       214
    28.7400       220
    28.7600       232
    28.7800       206
    28.8000       202
    28.8200       206
    28.8400       206
    28.8600       194
    28.8800       196
    28.9000       224
    28.9200       206
    28.9400       204
    28.9600       198
    28.9800       200
    29.0000       214
    29.0200       198
    29.0400       214
    29.0600       212
    29.0800       212
    29.1000       210
    29.1200       208
    29.1400       218
    29.1600       212
    29.1800       204
    29.2000       208
    29.2200       216
    29.2400       202
    29.2600       216
    29.2800       216
    29.3000       226
    29.3200       200
    29.3400       204
    29.3600       210
    29.3800       202
    29.4000       216
    29.4200       258
    29.4400       230
    29.4600       238
    29.4800       230
    29.5000       258
    29.5200       240
    29.5400       226
    29.5600       240
    29.5800       252
    29.6000       226
    29.6200       244
    29.6400       212
    29.6600       252
    29.6800       226
    29.7000       246
    29.7200       206
    29.7400       222
    29.7600       194
    29.7800       228
    29.8000       212
    29.8200       204
    29.8400       194
    29.8600       228
    29.8800       200
    29.9000       236
    29.9200       236
    29.9400       224
    29.9600       226
    29.9800       260
    30.0000       250
    30.0200       276
    30.0400       286
    30.0600       316
    30.0800       306
    30.1000       342
    30.1200       340
    30.1400       368
    30.1600       360
    30.1800       450
    30.2000       412
    30.2200       414
    30.2400       432
    30.2600       438
    30.2800       446
    30.3000       418
    30.3200       418
    30.3400       404
    30.3600       418
    30.3800       384
    30.4000       370
    30.4200       348
    30.4400       364
    30.4600       372
    30.4800       362
    30.5000       362
    30.5200       356
    30.5400       350
    30.5600       326
    30.5800       382
    30.6000       364
    30.6200       380
    30.6400       366
    30.6600       394
    30.6800       394
    30.7000       354
    30.7200       338
    30.7400       344
    30.7600       320
    30.7800       290
    30.8000       304
    30.8200       348
    30.8400       314
    30.8600       248
    30.8800       276
    30.9000       292
    30.9200       278
    30.9400       268
    30.9600       284
    30.9800       242
    31.0000       284
    31.0200       278
    31.0400       244
    31.0600       274
    31.0800       246
    31.1000       250
    31.1200       268
    31.1400       274
    31.1600       270
    31.1800       272
    31.2000       250
    31.2200       292
    31.2400       284
    31.2600       252
    31.2800       256
    31.3000       270
    31.3200       260
    31.3400       324
    31.3600       298
    31.3800       274
    31.4000       304
    31.4200       332
    31.4400       356
    31.4600       382
    31.4800       346
    31.5000       378
    31.5200       374
    31.5400       422
    31.5600       410
    31.5800       444
    31.6000       466
    31.6200       512
    31.6400       516
    31.6600       582
    31.6800       644
    31.7000       688
    31.7200       766
    31.7400       784
    31.7600       920
    31.7800       994
    31.8000      1070
    31.8200      1346
    31.8400      1434
    31.8600      1740
    31.8800      1846
    31.9000      2242
    31.9200      2570
    31.9400      2924
    31.9600      3222
    31.9800      3418
    32.0000      3406
    32.0200      3250
    32.0400      3026
    32.0600      2822
    32.0800      2532
    32.1000      2136
    32.1200      1900
    32.1400      1804
    32.1600      1598
    32.1800      1528
    32.2000      1528
    32.2200      1498
    32.2400      1628
    32.2600      1744
    32.2800      1938
    32.3000      2096
    32.3200      2294
    32.3400      2712
    32.3600      3224
    32.3800      3630
    32.4000      4230
    32.4200      5120
    32.4400      5658
    32.4600      7008
    32.4800      8226
    32.5000      9182
    32.5200     10470
    32.5400     11032
    32.5600     11094
    32.5800     11092
    32.6000     10392
    32.6200      9486
    32.6400      8506
    32.6600      7204
    32.6800      6058
    32.7000      4972
    32.7200      3990
    32.7400      3284
    32.7600      2706
    32.7800      2286
    32.8000      2000
    32.8200      1844
    32.8400      1634
    32.8600      1454
    32.8800      1406
    32.9000      1416
    32.9200      1344
    32.9400      1380
    32.9600      1452
    32.9800      1496
    33.0000      1744
    33.0200      1910
    33.0400      2040
    33.0600      2172
    33.0800      2196
    33.1000      2262
    33.1200      2126
    33.1400      2012
    33.1600      1804
    33.1800      1644
    33.2000      1436
    33.2200      1254
    33.2400      1024
    33.2600       868
    33.2800       762
    33.3000       642
    33.3200       568
    33.3400       540
    33.3600       498
    33.3800       466
    33.4000       410
    33.4200       404
    33.4400       412
    33.4600       338
    33.4800       286
    33.5000       314
    33.5200       304
    33.5400       296
    33.5600       270
    33.5800       276
    33.6000       262
    33.6200       294
    33.6400       242
    33.6600       238
    33.6800       266
    33.7000       224
    33.7200       276
    33.7400       218
    33.7600       270
    33.7800       246
    33.8000       216
    33.8200       214
    33.8400       232
    33.8600       224
    33.8800       204
    33.9000       236
    33.9200       208
    33.9400       228
    33.9600       232
    33.9800       214
    34.0000       258
    34.0200       248
    34.0400       240
    34.0600       256
    34.0800       248
    34.1000       228
    34.1200       224
    34.1400       218
    34.1600       214
    34.1800       232
    34.2000       242
    34.2200       204
    34.2400       210
    34.2600       214
    34.2800       216
    34.3000       218
    34.3200       222
    34.3400       216
    34.3600       204
    34.3800       224
    34.4000       236
    34.4200       236
    34.4400       234
    34.4600       192
    34.4800       256
    34.5000       238
    34.5200       222
    34.5400       216
    34.5600       252
    34.5800       232
    34.6000       234
    34.6200       248
    34.6400       226
    34.6600       240
    34.6800       248
    34.7000       224
    34.7200       272
    34.7400       216
    34.7600       230
    34.7800       212
    34.8000       236
    34.8200       220
    34.8400       228
    34.8600       226
    34.8800       248
    34.9000       244
    34.9200       254
    34.9400       236
    34.9600       232
    34.9800       236
    35.0000       236
    35.0200       232
    35.0400       236
    35.0600       208
    35.0800       224
    35.1000       230
    35.1200       232
    35.1400       260
    35.1600       276
    35.1800       224
    35.2000       226
    35.2200       234
    35.2400       238
    35.2600       242
    35.2800       218
    35.3000       226
    35.3200       234
    35.3400       226
    35.3600       224
    35.3800       248
    35.4000       232
    35.4200       222
    35.4400       256
    35.4600       236
    35.4800       244
    35.5000       256
    35.5200       242
    35.5400       248
    35.5600       248
    35.5800       270
    35.6000       250
    35.6200       290
    35.6400       256
    35.6600       282
    35.6800       242
    35.7000       294
    35.7200       298
    35.7400       302
    35.7600       292
    35.7800       336
    35.8000       314
    35.8200       322
    35.8400       346
    35.8600       318
    35.8800       364
    35.9000       364
    35.9200       384
    35.9400       418
    35.9600       398
    35.9800       456
    36.0000       506
    36.0200       568
    36.0400       606
    36.0600       646
    36.0800       762
    36.1000       824
    36.1200       870
    36.1400       884
    36.1600       884
    36.1800       906
    36.2000       812
    36.2200       748
    36.2400       660
    36.2600       654
    36.2800       588
    36.3000       506
    36.3200       474
    36.3400       438
    36.3600       462
    36.3800       438
    36.4000       398
    36.4200       412
    36.4400       400
    36.4600       416
    36.4800       464
    36.5000       444
    36.5200       474
    36.5400       432
    36.5600       526
    36.5800       498
    36.6000       540
    36.6200       602
    36.6400       628
    36.6600       676
    36.6800       816
    36.7000       868
    36.7200       992
    36.7400      1104
    36.7600      1416
    36.7800      1500
    36.8000      1766
    36.8200      1978
    36.8400      2310
    36.8600      2486
    36.8800      2708
    36.9000      2812
    36.9200      2792
    36.9400      2508
    36.9600      2456
    36.9800      2196
    37.0000      1930
    37.0200      1700
    37.0400      1374
    37.0600      1274
    37.0800       984
    37.1000       900
    37.1200       844
    37.1400       796
    37.1600       730
    37.1800       670
    37.2000       648
    37.2200       626
    37.2400       606
    37.2600       598
    37.2800       524
    37.3000       524
    37.3200       514
    37.3400       542
    37.3600       476
    37.3800       474
    37.4000       496
    37.4200       492
    37.4400       488
    37.4600       500
    37.4800       448
    37.5000       472
    37.5200       490
    37.5400       474
    37.5600       492
    37.5800       450
    37.6000       474
    37.6200       514
    37.6400       520
    37.6600       562
    37.6800       576
    37.7000       610
    37.7200       594
    37.7400       704
    37.7600       678
    37.7800       820
    37.8000       864
    37.8200       956
    37.8400      1064
    37.8600      1090
    37.8800      1276
    37.9000      1542
    37.9200      1726
    37.9400      1978
    37.9600      2220
    37.9800      2590
    38.0000      2726
    38.0200      2804
    38.0400      2692
    38.0600      2530
    38.0800      2548
    38.1000      2322
    38.1200      2080
    38.1400      1972
    38.1600      1780
    38.1800      1792
    38.2000      1784
    38.2200      1654
    38.2400      1602
    38.2600      1680
    38.2800      1800
    38.3000      2000
    38.3200      2150
    38.3400      2368
    38.3600      2790
    38.3800      3044
    38.4000      3526
    38.4200      3984
    38.4400      4444
    38.4600      4854
    38.4800      5252
    38.5000      5252
    38.5200      5242
    38.5400      5312
    38.5600      5116
    38.5800      4978
    38.6000      4802
    38.6200      4590
    38.6400      4400
    38.6600      4330
    38.6800      4410
    38.7000      4384
    38.7200      4530
    38.7400      4332
    38.7600      4228
    38.7800      4004
    38.8000      3704
    38.8200      3374
    38.8400      3052
    38.8600      2620
    38.8800      2382
    38.9000      2110
    38.9200      1792
    38.9400      1466
    38.9600      1380
    38.9800      1156
    39.0000      1108
    39.0200       946
    39.0400       880
    39.0600       832
    39.0800       794
    39.1000       760
    39.1200       754
    39.1400       762
    39.1600       682
    39.1800       684
    39.2000       660
    39.2200       660
    39.2400       668
    39.2600       676
    39.2800       684
    39.3000       682
    39.3200       690
    39.3400       688
    39.3600       720
    39.3800       770
    39.4000       716
    39.4200       796
    39.4400       824
    39.4600       976
    39.4800       958
    39.5000      1072
    39.5200      1200
    39.5400      1316
    39.5600      1580
    39.5800      1772
    39.6000      1980
    39.6200      2338
    39.6400      2598
    39.6600      3022
    39.6800      3256
    39.7000      3162
    39.7200      3014
    39.7400      2894
    39.7600      2674
    39.7800      2332
    39.8000      2202
    39.8200      1906
    39.8400      1692
    39.8600      1458
    39.8800      1256
    39.9000      1058
    39.9200       930
    39.9400       860
    39.9600       764
    39.9800       692
    40.0000       622
    40.0200       594
    40.0400       556
    40.0600       604
    40.0800       552
    40.1000       580
    40.1200       522
    40.1400       514
    40.1600       508
    40.1800       532
    40.2000       522
    40.2200       522
    40.2400       530
    40.2600       538
    40.2800       564
    40.3000       586
    40.3200       594
    40.3400       660
    40.3600       652
    40.3800       770
    40.4000       808
    40.4200       836
    40.4400       932
    40.4600      1024
    40.4800      1200
    40.5000      1246
    40.5200      1428
    40.5400      1582
    40.5600      1652
    40.5800      1732
    40.6000      1680
    40.6200      1710
    40.6400      1728
    40.6600      1582
    40.6800      1592
    40.7000      1540
    40.7200      1394
    40.7400      1206
    40.7600      1182
    40.7800      1004
    40.8000       880
    40.8200       840
    40.8400       718
    40.8600       682
    40.8800       644
    40.9000       620
    40.9200       560
    40.9400       570
    40.9600       510
    40.9800       496
    41.0000       520
    41.0200       522
    41.0400       438
    41.0600       480
    41.0800       498
    41.1000       446
    41.1200       470
    41.1400       468
    41.1600       488
    41.1800       510
    41.2000       546
    41.2200       518
    41.2400       550
    41.2600       486
    41.2800       540
    41.3000       558
    41.3200       548
    41.3400       544
    41.3600       580
    41.3800       558
    41.4000       532
    41.4200       522
    41.4400       578
    41.4600       552
    41.4800       516
    41.5000       516
    41.5200       568
    41.5400       566
    41.5600       590
    41.5800       582
    41.6000       610
    41.6200       654
    41.6400       696
    41.6600       776
    41.6800       870
    41.7000       962
    41.7200       974
    41.7400      1176
    41.7600      1312
    41.7800      1512
    41.8000      1708
    41.8200      1844
    41.8400      2074
    41.8600      2282
    41.8800      2482
    41.9000      2392
    41.9200      2628
    41.9400      2472
    41.9600      2342
    41.9800      2180
    42.0000      1916
    42.0200      1662
    42.0400      1534
    42.0600      1338
    42.0800      1282
    42.1000      1100
    42.1200       936
    42.1400       818
    42.1600       816
    42.1800       692
    42.2000       656
    42.2200       612
    42.2400       566
    42.2600       542
    42.2800       528
    42.3000       456
    42.3200       518
    42.3400       466
    42.3600       466
    42.3800       466
    42.4000       448
    42.4200       442
    42.4400       436
    42.4600       424
    42.4800       394
    42.5000       390
    42.5200       404
    42.5400       402
    42.5600       460
    42.5800       424
    42.6000       392
    42.6200       362
    42.6400       392
    42.6600       384
    42.6800       420
    42.7000       372
    42.7200       402
    42.7400       434
    42.7600       446
    42.7800       458
    42.8000       452
    42.8200       490
    42.8400       454
    42.8600       528
    42.8800       536
    42.9000       626
    42.9200       604
    42.9400       674
    42.9600       674
    42.9800       772
    43.0000       908
    43.0200       976
    43.0400      1048
    43.0600      1292
    43.0800      1420
    43.1000      1610
    43.1200      1876
    43.1400      1984
    43.1600      2266
    43.1800      2300
    43.2000      2382
    43.2200      2378
    43.2400      2312
    43.2600      2160
    43.2800      1934
    43.3000      1844
    43.3200      1666
    43.3400      1480
    43.3600      1312
    43.3800      1152
    43.4000      1012
    43.4200       944
    43.4400       798
    43.4600       764
    43.4800       674
    43.5000       654
    43.5200       614
    43.5400       580
    43.5600       592
    43.5800       536
    43.6000       576
    43.6200       540
    43.6400       554
    43.6600       628
    43.6800       638
    43.7000       658
    43.7200       666
    43.7400       752
    43.7600       754
    43.7800       826
    43.8000       866
    43.8200       892
    43.8400       864
    43.8600       906
    43.8800       890
    43.9000       818
    43.9200       752
    43.9400       822
    43.9600       724
    43.9800       640
    44.0000       578
    44.0200       574
    44.0400       560
    44.0600       552
    44.0800       502
    44.1000       502
    44.1200       478
    44.1400       456
    44.1600       492
    44.1800       430
    44.2000       444
    44.2200       420
    44.2400       402
    44.2600       476
    44.2800       444
    44.3000       444
    44.3200       438
    44.3400       448
    44.3600       450
    44.3800       408
    44.4000       462
    44.4200       428
    44.4400       434
    44.4600       474
    44.4800       422
    44.5000       442
    44.5200       440
    44.5400       404
    44.5600       450
    44.5800       446
    44.6000       392
    44.6200       432
    44.6400       368
    44.6600       392
    44.6800       352
    44.7000       366
    44.7200       384
    44.7400       422
    44.7600       372
    44.7800       394
    44.8000       372
    44.8200       372
    44.8400       342
    44.8600       398
    44.8800       370
    44.9000       404
    44.9200       420
    44.9400       434
    44.9600       442
    44.9800       460
    45.0000       420
    45.0200       452
    45.0400       472
    45.0600       516
    45.0800       464
    45.1000       456
    45.1200       450
    45.1400       522
    45.1600       544
    45.1800       500
    45.2000       490
    45.2200       470
    45.2400       504
    45.2600       486
    45.2800       468
    45.3000       470
    45.3200       484
    45.3400       476
    45.3600       450
    45.3800       438
    45.4000       482
    45.4200       426
    45.4400       456
    45.4600       450
    45.4800       432
    45.5000       446
    45.5200       454
    45.5400       464
    45.5600       472
    45.5800       448
    45.6000       418
    45.6200       442
    45.6400       476
    45.6600       456
    45.6800       458
    45.7000       460
    45.7200       500
    45.7400       476
    45.7600       498
    45.7800       494
    45.8000       470
    45.8200       466
    45.8400       480
    45.8600       464
    45.8800       486
    45.9000       520
    45.9200       546
    45.9400       506
    45.9600       526
    45.9800       540
    46.0000       532
    46.0200       568
    46.0400       616
    46.0600       586
    46.0800       604
    46.1000       646
    46.1200       662
    46.1400       682
    46.1600       698
    46.1800       770
    46.2000       776
    46.2200       806
    46.2400       880
    46.2600       964
    46.2800       940
    46.3000      1090
    46.3200      1170
    46.3400      1262
    46.3600      1364
    46.3800      1544
    46.4000      1718
    46.4200      1926
    46.4400      2070
    46.4600      2258
    46.4800      2762
    46.5000      3140
    46.5200      3416
    46.5400      4128
    46.5600      4792
    46.5800      5544
    46.6000      6466
    46.6200      7410
    46.6400      8606
    46.6600      9414
    46.6800     10586
    46.7000     11148
    46.7200     11128
    46.7400     11042
    46.7600     10596
    46.7800      9966
    46.8000      9444
    46.8200      8662
    46.8400      8084
    46.8600      7514
    46.8800      6760
    46.9000      6102
    46.9200      5642
    46.9400      5022
    46.9600      4838
    46.9800      4470
    47.0000      4088
    47.0200      3784
    47.0400      3640
    47.0600      3330
    47.0800      3200
    47.1000      3052
    47.1200      2702
    47.1400      2462
    47.1600      2150
    47.1800      1986
    47.2000      1874
    47.2200      1580
    47.2400      1554
    47.2600      1378
    47.2800      1258
    47.3000      1172
    47.3200      1036
    47.3400       982
    47.3600       954
    47.3800       918
    47.4000       858
    47.4200       842
    47.4400       816
    47.4600       764
    47.4800       754
    47.5000       744
    47.5200       728
    47.5400       700
    47.5600       728
    47.5800       732
    47.6000       696
    47.6200       656
    47.6400       678
    47.6600       730
    47.6800       784
    47.7000       770
    47.7200       774
    47.7400       850
    47.7600       950
    47.7800      1016
    47.8000      1084
    47.8200      1062
    47.8400      1150
    47.8600      1144
    47.8800      1070
    47.9000      1076
    47.9200      1082
    47.9400      1040
    47.9600       976
    47.9800       964
    48.0000       868
    48.0200       904
    48.0400       920
    48.0600       906
    48.0800       812
    48.1000       870
    48.1200       974
    48.1400       988
    48.1600      1074
    48.1800      1088
    48.2000      1092
    48.2200      1078
    48.2400      1074
    48.2600      1122
    48.2800       954
    48.3000      1010
    48.3200       938
    48.3400       866
    48.3600       866
    48.3800       774
    48.4000       742
    48.4200       752
    48.4400       666
    48.4600       584
    48.4800       568
    48.5000       538
    48.5200       514
    48.5400       502
    48.5600       484
    48.5800       474
    48.6000       468
    48.6200       476
    48.6400       416
    48.6600       410
    48.6800       440
    48.7000       404
    48.7200       422
    48.7400       406
    48.7600       412
    48.7800       406
    48.8000       376
    48.8200       398
    48.8400       380
    48.8600       346
    48.8800       360
    48.9000       368
    48.9200       366
    48.9400       344
    48.9600       314
    48.9800       318
    49.0000       322
    49.0200       350
    49.0400       342
    49.0600       338
    49.0800       300
    49.1000       316
    49.1200       340
    49.1400       276
    49.1600       336
    49.1800       340
    49.2000       296
    49.2200       292
    49.2400       294
    49.2600       294
    49.2800       308
    49.3000       338
    49.3200       254
    49.3400       298
    49.3600       306
    49.3800       316
    49.4000       324
    49.4200       284
    49.4400       318
    49.4600       330
    49.4800       280
    49.5000       314
    49.5200       332
    49.5400       304
    49.5600       334
    49.5800       354
    49.6000       288
    49.6200       310
    49.6400       362
    49.6600       318
    49.6800       330
    49.7000       326
    49.7200       348
    49.7400       332
    49.7600       326
    49.7800       342
    49.8000       338
    49.8200       348
    49.8400       330
    49.8600       354
    49.8800       354
    49.9000       382
    49.9200       344
    49.9400       370
    49.9600       398
    49.9800       422
    50.0000       420
    50.0200       472
    50.0400       508
    50.0600       472
    50.0800       494
    50.1000       534
    50.1200       562
    50.1400       562
    50.1600       544
    50.1800       586
    50.2000       582
    50.2200       562
    50.2400       588
    50.2600       594
    50.2800       606
    50.3000       642
    50.3200       580
    50.3400       542
    50.3600       582
    50.3800       570
    50.4000       582
    50.4200       558
    50.4400       578
    50.4600       588
    50.4800       510
    50.5000       518
    50.5200       514
    50.5400       504
    50.5600       496
    50.5800       516
    50.6000       514
    50.6200       476
    50.6400       504
    50.6600       522
    50.6800       514
    50.7000       548
    50.7200       528
    50.7400       560
    50.7600       584
    50.7800       646
    50.8000       654
    50.8200       712
    50.8400       706
    50.8600       774
    50.8800       834
    50.9000       876
    50.9200       880
    50.9400       896
    50.9600       890
    50.9800       864
    51.0000       778
    51.0200       832
    51.0400       772
    51.0600       774
    51.0800       734
    51.1000       664
    51.1200       688
    51.1400       672
    51.1600       644
    51.1800       608
    51.2000       592
    51.2200       590
    51.2400       576
    51.2600       598
    51.2800       640
    51.3000       662
    51.3200       706
    51.3400       754
    51.3600       748
    51.3800       752
    51.4000       846
    51.4200       806
    51.4400       846
    51.4600       840
    51.4800       816
    51.5000       824
    51.5200       778
    51.5400       760
    51.5600       780
    51.5800       714
    51.6000       726
    51.6200       702
    51.6400       748
    51.6600       644
    51.6800       780
    51.7000       738
    51.7200       846
    51.7400       892
    51.7600       972
    51.7800       998
    51.8000      1114
    51.8200      1134
    51.8400      1248
    51.8600      1246
    51.8800      1228
    51.9000      1186
    51.9200      1174
    51.9400      1230
    51.9600      1088
    51.9800      1126
    52.0000      1092
    52.0200      1082
    52.0400       996
    52.0600       988
    52.0800       940
    52.1000       844
    52.1200       812
    52.1400       766
    52.1600       728
    52.1800       724
    52.2000       696
    52.2200       716
    52.2400       738
    52.2600       684
    52.2800       642
    52.3000       718
    52.3200       696
    52.3400       694
    52.3600       700
    52.3800       816
    52.4000       852
    52.4200       878
    52.4400      1038
    52.4600      1132
    52.4800      1250
    52.5000      1332
    52.5200      1434
    52.5400      1570
    52.5600      1678
    52.5800      1794
    52.6000      1854
    52.6200      1794
    52.6400      1788
    52.6600      1702
    52.6800      1694
    52.7000      1688
    52.7200      1586
    52.7400      1516
    52.7600      1436
    52.7800      1280
    52.8000      1270
    52.8200      1102
    52.8400      1128
    52.8600      1138
    52.8800       960
    52.9000       938
    52.9200       912
    52.9400       926
    52.9600       798
    52.9800       840
    53.0000       886
    53.0200       932
    53.0400       934
    53.0600      1054
    53.0800      1118
    53.1000      1144
    53.1200      1280
    53.1400      1426
    53.1600      1576
    53.1800      1814
    53.2000      1994
    53.2200      2126
    53.2400      2238
    53.2600      2266
    53.2800      2294
    53.3000      2290
    53.3200      2064
    53.3400      1966
    53.3600      1848
    53.3800      1862
    53.4000      1730
    53.4200      1602
    53.4400      1496
    53.4600      1276
    53.4800      1160
    53.5000      1026
    53.5200       938
    53.5400       822
    53.5600       732
    53.5800       680
    53.6000       570
    53.6200       552
    53.6400       524
    53.6600       496
    53.6800       504
    53.7000       470
    53.7200       438
    53.7400       432
    53.7600       422
    53.7800       416
    53.8000       382
    53.8200       388
    53.8400       376
    53.8600       368
    53.8800       332
    53.9000       366
    53.9200       324
    53.9400       352
    53.9600       364
    53.9800       332
    54.0000       294
    54.0200       312
    54.0400       300
    54.0600       306
    54.0800       332
    54.1000       330
    54.1200       334
    54.1400       314
    54.1600       346
    54.1800       328
    54.2000       320
    54.2200       340
    54.2400       354
    54.2600       366
    54.2800       342
    54.3000       364
    54.3200       360
    54.3400       396
    54.3600       378
    54.3800       358
    54.4000       374
    54.4200       444
    54.4400       446
    54.4600       486
    54.4800       522
    54.5000       560
    54.5200       592
    54.5400       588
    54.5600       616
    54.5800       688
    54.6000       666
    54.6200       724
    54.6400       718
    54.6600       810
    54.6800       894
    54.7000       884
    54.7200       988
    54.7400       992
    54.7600      1022
    54.7800       964
    54.8000       972
    54.8200       962
    54.8400       898
    54.8600       834
    54.8800       810
    54.9000       792
    54.9200       774
    54.9400       682
    54.9600       652
    54.9800       656
    55.0000       596
    55.0200       550
    55.0400       540
    55.0600       498
    55.0800       500
    55.1000       438
    55.1200       490
    55.1400       464
    55.1600       438
    55.1800       420
    55.2000       416
    55.2200       432
    55.2400       342
    55.2600       392
    55.2800       404
    55.3000       406
    55.3200       386
    55.3400       390
    55.3600       382
    55.3800       394
    55.4000       416
    55.4200       386
    55.4400       388
    55.4600       444
    55.4800       402
    55.5000       422
    55.5200       434
    55.5400       460
    55.5600       482
    55.5800       542
    55.6000       530
    55.6200       606
    55.6400       630
    55.6600       664
    55.6800       720
    55.7000       814
    55.7200       782
    55.7400       880
    55.7600       836
    55.7800       850
    55.8000       822
    55.8200       800
    55.8400       800
    55.8600       738
    55.8800       738
    55.9000       658
    55.9200       686
    55.9400       614
    55.9600       576
    55.9800       574
    56.0000       476
    56.0200       496
    56.0400       438
    56.0600       452
    56.0800       426
    56.1000       420
    56.1200       378
    56.1400       366
    56.1600       410
    56.1800       356
    56.2000       358
    56.2200       332
    56.2400       322
    56.2600       352
    56.2800       302
    56.3000       288
    56.3200       348
    56.3400       324
    56.3600       296
    56.3800       332
    56.4000       302
    56.4200       316
    56.4400       290
    56.4600       304
    56.4800       318
    56.5000       322
    56.5200       350
    56.5400       310
    56.5600       322
    56.5800       330
    56.6000       310
    56.6200       350
    56.6400       346
    56.6600       324
    56.6800       316
    56.7000       304
    56.7200       334
    56.7400       348
    56.7600       386
    56.7800       344
    56.8000       360
    56.8200       398
    56.8400       382
    56.8600       390
    56.8800       418
    56.9000       438
    56.9200       444
    56.9400       444
    56.9600       440
    56.9800       482
    57.0000       514
    57.0200       538
    57.0400       540
    57.0600       588
    57.0800       660
    57.1000       694
    57.1200       744
    57.1400       784
    57.1600       900
    57.1800       870
    57.2000      1030
    57.2200      1146
    57.2400      1306
    57.2600      1454
    57.2800      1562
    57.3000      1784
    57.3200      1790
    57.3400      2030
    57.3600      2002
    57.3800      2044
    57.4000      2052
    57.4200      2128
    57.4400      2092
    57.4600      1980
    57.4800      1928
    57.5000      1882
    57.5200      1874
    57.5400      1764
    57.5600      1874
    57.5800      1824
    57.6000      1740
    57.6200      1834
    57.6400      1940
    57.6600      1944
    57.6800      2016
    57.7000      2050
    57.7200      2164
    57.7400      2202
    57.7600      2280
    57.7800      2190
    57.8000      2124
    57.8200      1972
    57.8400      1842
    57.8600      1834
    57.8800      1724
    57.9000      1586
    57.9200      1562
    57.9400      1422
    57.9600      1392
    57.9800      1252
    58.0000      1092
    58.0200      1078
    58.0400      1010
    58.0600      1000
    58.0800       882
    58.1000       904
    58.1200       826
    58.1400       902
    58.1600       934
    58.1800       886
    58.2000       952
    58.2200       948
    58.2400      1030
    58.2600      1068
    58.2800      1148
    58.3000      1236
    58.3200      1326
    58.3400      1374
    58.3600      1564
    58.3800      1658
    58.4000      1848
    58.4200      1958
    58.4400      1996
    58.4600      2238
    58.4800      2346
    58.5000      2398
    58.5200      2620
    58.5400      2728
    58.5600      2968
    58.5800      2982
    58.6000      3208
    58.6200      3368
    58.6400      3432
    58.6600      3608
    58.6800      3950
    58.7000      4062
    58.7200      4176
    58.7400      4138
    58.7600      4192
    58.7800      3994
    58.8000      4038
    58.8200      3866
    58.8400      3658
    58.8600      3480
    58.8800      3352
    58.9000      3252
    58.9200      2882
    58.9400      2682
    58.9600      2494
    58.9800      2216
    59.0000      1992
    59.0200      1786
    59.0400      1668
    59.0600      1464
    59.0800      1366
    59.1000      1198
    59.1200      1080
    59.1400       966
    59.1600       952
    59.1800       906
    59.2000       744
    59.2200       740
    59.2400       746
    59.2600       644
    59.2800       604
    59.3000       610
    59.3200       576
    59.3400       578
    59.3600       548
    59.3800       512
    59.4000       472
    59.4200       478
    59.4400       464
    59.4600       452
    59.4800       492
    59.5000       458
    59.5200       426
    59.5400       442
    59.5600       448
    59.5800       372
    59.6000       390
    59.6200       384
    59.6400       408
    59.6600       376
    59.6800       392
    59.7000       382
    59.7200       394
    59.7400       374
    59.7600       372
    59.7800       374
    59.8000       386
    59.8200       398
    59.8400       390
    59.8600       356
    59.8800       410
    59.9000       352
    59.9200       324
    59.9400       368
    59.9600       374
    59.9800       338
    60.0000       348
    60.0200       326
    60.0400       348
    60.0600       358
    60.0800       372
    60.1000       346
    60.1200       354
    60.1400       340
    60.1600       340
    60.1800       344
    60.2000       360
    60.2200       316
    60.2400       382
    60.2600       338
    60.2800       352
    60.3000       348
    60.3200       346
    60.3400       346
    60.3600       342
    60.3800       334
    60.4000       346
    60.4200       358
    60.4400       362
    60.4600       378
    60.4800       384
    60.5000       358
    60.5200       350
    60.5400       358
    60.5600       338
    60.5800       356
    60.6000       340
    60.6200       346
    60.6400       320
    60.6600       402
    60.6800       366
    60.7000       344
    60.7200       366
    60.7400       374
    60.7600       334
    60.7800       376
    60.8000       372
    60.8200       350
    60.8400       402
    60.8600       420
    60.8800       464
    60.9000       394
    60.9200       448
    60.9400       462
    60.9600       474
    60.9800       434
    61.0000       524
    61.0200       476
    61.0400       550
    61.0600       562
    61.0800       546
    61.1000       576
    61.1200       586
    61.1400       580
    61.1600       586
    61.1800       618
    61.2000       620
    61.2200       546
    61.2400       630
    61.2600       542
    61.2800       596
    61.3000       606
    61.3200       568
    61.3400       550
    61.3600       548
    61.3800       548
    61.4000       554
    61.4200       564
    61.4400       578
    61.4600       578
    61.4800       642
    61.5000       606
    61.5200       596
    61.5400       620
    61.5600       604
    61.5800       654
    61.6000       610
    61.6200       626
    61.6400       610
    61.6600       574
    61.6800       606
    61.7000       578
    61.7200       566
    61.7400       546
    61.7600       564
    61.7800       498
    61.8000       544
    61.8200       496
    61.8400       554
    61.8600       520
    61.8800       574
    61.9000       506
    61.9200       550
    61.9400       576
    61.9600       596
    61.9800       586
    62.0000       580
    62.0200       610
    62.0400       622
    62.0600       596
    62.0800       682
    62.1000       692
    62.1200       654
    62.1400       638
    62.1600       640
    62.1800       628
    62.2000       624
    62.2200       624
    62.2400       630
    62.2600       602
    62.2800       582
    62.3000       598
    62.3200       600
    62.3400       590
    62.3600       586
    62.3800       546
    62.4000       558
    62.4200       518
    62.4400       486
    62.4600       502
    62.4800       444
    62.5000       488
    62.5200       452
    62.5400       492
    62.5600       440
    62.5800       400
    62.6000       406
    62.6200       338
    62.6400       380
    62.6600       322
    62.6800       334
    62.7000       326
    62.7200       346
    62.7400       308
    62.7600       334
    62.7800       312
    62.8000       284
    62.8200       302
    62.8400       282
    62.8600       304
    62.8800       336
    62.9000       270
    62.9200       274
    62.9400       260
    62.9600       274
    62.9800       258
    63.0000       254
    63.0200       260
    63.0400       256
    63.0600       262
    63.0800       230
    63.1000       244
    63.1200       242
    63.1400       258
    63.1600       228
    63.1800       216
    63.2000       254
    63.2200       222
    63.2400       262
    63.2600       246
    63.2800       210
    63.3000       220
    63.3200       230
    63.3400       210
    63.3600       244
    63.3800       260
    63.4000       220
    63.4200       242
    63.4400       230
    63.4600       224
    63.4800       260
    63.5000       274
    63.5200       262
    63.5400       256
    63.5600       260
    63.5800       266
    63.6000       264
    63.6200       292
    63.6400       324
    63.6600       322
    63.6800       328
    63.7000       400
    63.7200       378
    63.7400       380
    63.7600       442
    63.7800       440
    63.8000       486
    63.8200       480
    63.8400       528
    63.8600       530
    63.8800       532
    63.9000       512
    63.9200       508
    63.9400       456
    63.9600       468
    63.9800       444
    64.0000       436
    64.0200       422
    64.0400       432
    64.0600       416
    64.0800       376
    64.1000       392
    64.1200       370
    64.1400       346
    64.1600       292
    64.1800       320
    64.2000       270
    64.2200       280
    64.2400       268
    64.2600       244
    64.2800       246
    64.3000       272
    64.3200       250
    64.3400       260
    64.3600       226
    64.3800       216
    64.4000       238
    64.4200       224
    64.4400       192
    64.4600       228
    64.4800       210
    64.5000       238
    64.5200       240
    64.5400       216
    64.5600       236
    64.5800       228
    64.6000       210
    64.6200       200
    64.6400       216
    64.6600       186
    64.6800       216
    64.7000       226
    64.7200       198
    64.7400       224
    64.7600       226
    64.7800       238
    64.8000       220
    64.8200       240
    64.8400       238
    64.8600       244
    64.8800       236
    64.9000       250
    64.9200       242
    64.9400       264
    64.9600       250
    64.9800       270
    65.0000       258
    65.0200       296
    65.0400       298
    65.0600       308
    65.0800       322
    65.1000       342
    65.1200       372
    65.1400       334
    65.1600       398
    65.1800       370
    65.2000       426
    65.2200       442
    65.2400       494
    65.2600       460
    65.2800       534
    65.3000       492
    65.3200       480
    65.3400       518
    65.3600       472
    65.3800       478
    65.4000       524
    65.4200       490
    65.4400       434
    65.4600       408
    65.4800       388
    65.5000       420
    65.5200       410
    65.5400       380
    65.5600       324
    65.5800       326
    65.6000       378
    65.6200       326
    65.6400       284
    65.6600       286
    65.6800       292
    65.7000       272
    65.7200       280
    65.7400       274
    65.7600       266
    65.7800       278
    65.8000       236
    65.8200       262
    65.8400       242
    65.8600       256
    65.8800       240
    65.9000       228
    65.9200       244
    65.9400       258
    65.9600       214
    65.9800       240
    66.0000       246
    66.0200       252
    66.0400       240
    66.0600       240
    66.0800       212
    66.1000       258
    66.1200       240
    66.1400       252
    66.1600       222
    66.1800       248
    66.2000       252
    66.2200       266
    66.2400       256
    66.2600       250
    66.2800       246
    66.3000       268
    66.3200       286
    66.3400       264
    66.3600       312
    66.3800       290
    66.4000       298
    66.4200       292
    66.4400       288
    66.4600       314
    66.4800       326
    66.5000       332
    66.5200       352
    66.5400       306
    66.5600       376
    66.5800       380
    66.6000       386
    66.6200       388
    66.6400       394
    66.6600       432
    66.6800       426
    66.7000       448
    66.7200       454
    66.7400       522
    66.7600       560
    66.7800       526
    66.8000       628
    66.8200       598
    66.8400       600
    66.8600       724
    66.8800       632
    66.9000       656
    66.9200       652
    66.9400       666
    66.9600       622
    66.9800       574
    67.0000       610
    67.0200       604
    67.0400       516
    67.0600       524
    67.0800       508
    67.1000       512
    67.1200       454
    67.1400       434
    67.1600       420
    67.1800       422
    67.2000       402
    67.2200       368
    67.2400       396
    67.2600       362
    67.2800       332
    67.3000       354
    67.3200       354
    67.3400       342
    67.3600       324
    67.3800       298
    67.4000       316
    67.4200       298
    67.4400       284
    67.4600       322
    67.4800       296
    67.5000       334
    67.5200       330
    67.5400       270
    67.5600       306
    67.5800       306
    67.6000       350
    67.6200       376
    67.6400       332
    67.6600       332
    67.6800       348
    67.7000       342
    67.7200       376
    67.7400       404
    67.7600       388
    67.7800       384
    67.8000       462
    67.8200       424
    67.8400       486
    67.8600       450
    67.8800       580
    67.9000       522
    67.9200       620
    67.9400       646
    67.9600       704
    67.9800       738
    68.0000       862
    68.0200       922
    68.0400      1038
    68.0600      1146
    68.0800      1214
    68.1000      1274
    68.1200      1366
    68.1400      1402
    68.1600      1462
    68.1800      1470
    68.2000      1488
    68.2200      1452
    68.2400      1502
    68.2600      1456
    68.2800      1488
    68.3000      1388
    68.3200      1326
    68.3400      1250
    68.3600      1212
    68.3800      1222
    68.4000      1152
    68.4200      1008
    68.4400      1000
    68.4600       954
    68.4800       932
    68.5000       808
    68.5200       804
    68.5400       766
    68.5600       720
    68.5800       672
    68.6000       642
    68.6200       674
    68.6400       640
    68.6600       654
    68.6800       606
    68.7000       566
    68.7200       554
    68.7400       544
    68.7600       514
    68.7800       488
    68.8000       480
    68.8200       482
    68.8400       466
    68.8600       460
    68.8800       464
    68.9000       430
    68.9200       456
    68.9400       366
    68.9600       340
    68.9800       412
    69.0000       394
    69.0200       370
    69.0400       388
    69.0600       408
    69.0800       364
    69.1000       364
    69.1200       366
    69.1400       382
    69.1600       394
    69.1800       408
    69.2000       408
    69.2200       418
    69.2400       444
    69.2600       486
    69.2800       484
    69.3000       562
    69.3200       534
    69.3400       602
    69.3600       594
    69.3800       592
    69.4000       612
    69.4200       614
    69.4400       628
    69.4600       656
    69.4800       656
    69.5000       620
    69.5200       606
    69.5400       552
    69.5600       576
    69.5800       496
    69.6000       536
    69.6200       516
    69.6400       494
    69.6600       484
    69.6800       454
    69.7000       430
    69.7200       406
    69.7400       394
    69.7600       344
    69.7800       318
    69.8000       352
    69.8200       292
    69.8400       316
    69.8600       268
    69.8800       246
    69.9000       274
    69.9200       256
    69.9400       276
    69.9600       240
    69.9800       262
    70.0000       252
    70.0200       242
    70.0400       232
    70.0600       248
    70.0800       244
    70.1000       224
    70.1200       216
    70.1400       218
    70.1600       230
    70.1800       218
    70.2000       208
    70.2200       182
    70.2400       228
    70.2600       222
    70.2800       216
    70.3000       206
    70.3200       196
    70.3400       222
    70.3600       216
    70.3800       210
    70.4000       186
    70.4200       266
    70.4400       240
    70.4600       222
    70.4800       262
    70.5000       262
    70.5200       258
    70.5400       232
    70.5600       250
    70.5800       290
    70.6000       256
    70.6200       290
    70.6400       302
    70.6600       276
    70.6800       258
    70.7000       266
    70.7200       274
    70.7400       236
    70.7600       258
    70.7800       256
    70.8000       236
    70.8200       236
    70.8400       254
    70.8600       240
    70.8800       236
    70.9000       222
    70.9200       248
    70.9400       236
    70.9600       248
    70.9800       230
    71.0000       254
    71.0200       276
    71.0400       264
    71.0600       278
    71.0800       280
    71.1000       244
    71.1200       292
    71.1400       274
    71.1600       304
    71.1800       314
    71.2000       314
    71.2200       340
    71.2400       340
    71.2600       376
    71.2800       406
    71.3000       396
    71.3200       470
    71.3400       482
    71.3600       474
    71.3800       564
    71.4000       580
    71.4200       592
    71.4400       650
    71.4600       680
    71.4800       736
    71.5000       742
    71.5200       714
    71.5400       800
    71.5600       744
    71.5800       744
    71.6000       778
    71.6200       718
    71.6400       710
    71.6600       744
    71.6800       746
    71.7000       722
    71.7200       726
    71.7400       686
    71.7600       698
    71.7800       680
    71.8000       698
    71.8200       674
    71.8400       612
    71.8600       606
    71.8800       592
    71.9000       568
    71.9200       594
    71.9400       538
    71.9600       588
    71.9800       542
    72.0000       570
    72.0200       540
    72.0400       484
    72.0600       494
    72.0800       516
    72.1000       518
    72.1200       494
    72.1400       486
    72.1600       504
    72.1800       510
    72.2000       506
    72.2200       542
    72.2400       580
    72.2600       554
    72.2800       516
    72.3000       590
    72.3200       586
    72.3400       548
    72.3600       532
    72.3800       520
    72.4000       516
    72.4200       498
    72.4400       484
    72.4600       446
    72.4800       466
    72.5000       448
    72.5200       402
    72.5400       430
    72.5600       384
    72.5800       420
    72.6000       402
    72.6200       360
    72.6400       326
    72.6600       348
    72.6800       332
    72.7000       314
    72.7200       320
    72.7400       310
    72.7600       284
    72.7800       306
    72.8000       290
    72.8200       314
    72.8400       332
    72.8600       340
    72.8800       348
    72.9000       316
    72.9200       330
    72.9400       310
    72.9600       322
    72.9800       322
    73.0000       276
    73.0200       286
    73.0400       262
    73.0600       274
    73.0800       292
    73.1000       274
    73.1200       262
    73.1400       256
    73.1600       268
    73.1800       236
    73.2000       262
    73.2200       256
    73.2400       262
    73.2600       246
    73.2800       234
    73.3000       218
    73.3200       198
    73.3400       248
    73.3600       218
    73.3800       236
    73.4000       218
    73.4200       214
    73.4400       196
    73.4600       202
    73.4800       166
    73.5000       212
    73.5200       222
    73.5400       194
    73.5600       198
    73.5800       214
    73.6000       206
    73.6200       248
    73.6400       246
    73.6600       220
    73.6800       222
    73.7000       230
    73.7200       228
    73.7400       240
    73.7600       242
    73.7800       228
    73.8000       246
    73.8200       226
    73.8400       234
    73.8600       226
    73.8800       234
    73.9000       268
    73.9200       250
    73.9400       248
    73.9600       276
    73.9800       264
    74.0000       272
    74.0200       272
    74.0400       308
    74.0600       298
    74.0800       314
    74.1000       302
    74.1200       330
    74.1400       346
    74.1600       312
    74.1800       322
    74.2000       316
    74.2200       312
    74.2400       326
    74.2600       314
    74.2800       298
    74.3000       316
    74.3200       336
    74.3400       294
    74.3600       284
    74.3800       290
    74.4000       276
    74.4200       282
    74.4400       244
    74.4600       218
    74.4800       224
    74.5000       240
    74.5200       216
    74.5400       238
    74.5600       246
    74.5800       218
    74.6000       208
    74.6200       232
    74.6400       214
    74.6600       196
    74.6800       184
    74.7000       190
    74.7200       178
    74.7400       198
    74.7600       214
    74.7800       172
    74.8000       192
    74.8200       186
    74.8400       190
    74.8600       170
    74.8800       188
    74.9000       188
    74.9200       188
    74.9400       178
    74.9600       188
    74.9800       200
    75.0000       182
    75.0200       192
    75.0400       180
    75.0600       178
    75.0800       176
    75.1000       180
    75.1200       202
    75.1400       194
    75.1600       166
    75.1800       192
    75.2000       198
    75.2200       198
    75.2400       214
    75.2600       178
    75.2800       202
    75.3000       178
    75.3200       206
    75.3400       202
    75.3600       214
    75.3800       200
    75.4000       222
    75.4200       202
    75.4400       214
    75.4600       208
    75.4800       184
    75.5000       222
    75.5200       196
    75.5400       216
    75.5600       208
    75.5800       230
    75.6000       248
    75.6200       230
    75.6400       242
    75.6600       208
    75.6800       238
    75.7000       274
    75.7200       286
    75.7400       290
    75.7600       312
    75.7800       310
    75.8000       304
    75.8200       304
    75.8400       312
    75.8600       336
    75.8800       308
    75.9000       326
    75.9200       304
    75.9400       330
    75.9600       306
    75.9800       294
    76.0000       320
    76.0200       320
    76.0400       324
    76.0600       294
    76.0800       328
    76.1000       294
    76.1200       286
    76.1400       308
    76.1600       302
    76.1800       322
    76.2000       294
    76.2200       316
    76.2400       304
    76.2600       304
    76.2800       336
    76.3000       310
    76.3200       298
    76.3400       308
    76.3600       338
    76.3800       328
    76.4000       344
    76.4200       354
    76.4400       310
    76.4600       376
    76.4800       362
    76.5000       362
    76.5200       402
    76.5400       362
    76.5600       396
    76.5800       414
    76.6000       402
    76.6200       372
    76.6400       384
    76.6600       416
    76.6800       390
    76.7000       396
    76.7200       412
    76.7400       426
    76.7600       392
    76.7800       374
    76.8000       402
    76.8200       358
    76.8400       382
    76.8600       352
    76.8800       384
    76.9000       350
    76.9200       334
    76.9400       362
    76.9600       360
    76.9800       326
    77.0000       370
    77.0200       344
    77.0400       310
    77.0600       332
    77.0800       304
    77.1000       340
    77.1200       286
    77.1400       312
    77.1600       316
    77.1800       328
    77.2000       328
    77.2200       348
    77.2400       354
    77.2600       374
    77.2800       344
    77.3000       374
    77.3200       398
    77.3400       408
    77.3600       464
    77.3800       512
    77.4000       490
    77.4200       570
    77.4400       578
    77.4600       622
    77.4800       606
    77.5000       692
    77.5200       756
    77.5400       830
    77.5600       932
    77.5800       952
    77.6000       970
    77.6200      1038
    77.6400      1016
    77.6600       992
    77.6800      1090
    77.7000      1036
    77.7200       980
    77.7400      1002
    77.7600       990
    77.7800       918
    77.8000       904
    77.8200       888
    77.8400       874
    77.8600       912
    77.8800       820
    77.9000       786
    77.9200       740
    77.9400       682
    77.9600       694
    77.9800       586
    78.0000       548
    78.0200       530
    78.0400       530
    78.0600       506
    78.0800       474
    78.1000       444
    78.1200       488
    78.1400       426
    78.1600       432
    78.1800       380
    78.2000       394
    78.2200       370
    78.2400       376
    78.2600       378
    78.2800       382
    78.3000       346
    78.3200       400
    78.3400       370
    78.3600       338
    78.3800       396
    78.4000       406
    78.4200       396
    78.4400       428
    78.4600       420
    78.4800       440
    78.5000       432
    78.5200       446
    78.5400       450
    78.5600       452
    78.5800       452
    78.6000       452
    78.6200       474
    78.6400       442
    78.6600       492
    78.6800       474
    78.7000       464
    78.7200       472
    78.7400       464
    78.7600       454
    78.7800       456
    78.8000       444
    78.8200       412
    78.8400       456
    78.8600       400
    78.8800       378
    78.9000       410
    78.9200       416
    78.9400       338
    78.9600       354
    78.9800       344
    79.0000       368
    79.0200       294
    79.0400       326
    79.0600       280
    79.0800       288
    79.1000       280
    79.1200       282
    79.1400       276
    79.1600       266
    79.1800       288
    79.2000       284
    79.2200       260
    79.2400       246
    79.2600       254
    79.2800       272
    79.3000       224
    79.3200       224
    79.3400       220
    79.3600       244
    79.3800       254
    79.4000       250
    79.4200       232
    79.4400       282
    79.4600       256
    79.4800       280
    79.5000       240
    79.5200       256
    79.5400       280
    79.5600       236
    79.5800       262
    79.6000       268
    79.6200       298
    79.6400       256
    79.6600       244
    79.6800       272
    79.7000       288
    79.7200       280
    79.7400       262
    79.7600       262
    79.7800       300
    79.8000       284
    79.8200       240
    79.8400       274
    79.8600       308
    79.8800       272
    79.9000       274
    79.9200       284
    79.9400       278
    79.9600       254
    79.9800       276
    80.0000       256
    80.0200       282
    80.0400       288
    80.0600       258
    80.0800       268
    80.1000       230
    80.1200       240
    80.1400       258
    80.1600       228
    80.1800       242
    80.2000       242
    80.2200       222
    80.2400       218
    80.2600       234
    80.2800       224
    80.3000       232
    80.3200       244
    80.3400       248
    80.3600       270
    80.3800       260
    80.4000       224
    80.4200       226
    80.4400       260
    80.4600       236
    80.4800       238
    80.5000       226
    80.5200       248
    80.5400       228
    80.5600       214
    80.5800       236
    80.6000       224
    80.6200       198
    80.6400       224
    80.6600       226
    80.6800       218
    80.7000       228
    80.7200       208
    80.7400       194
    80.7600       196
    80.7800       230
    80.8000       206
    80.8200       204
    80.8400       194
    80.8600       204
    80.8800       196
    80.9000       206
    80.9200       194
    80.9400       202
    80.9600       198
    80.9800       230
    81.0000       180
    81.0200       220
    81.0400       214
    81.0600       220
    81.0800       214
    81.1000       238
    81.1200       206
    81.1400       254
    81.1600       216
    81.1800       250
    81.2000       254
    81.2200       242
    81.2400       288
    81.2600       256
    81.2800       236
    81.3000       250
    81.3200       248
    81.3400       292
    81.3600       290
    81.3800       274
    81.4000       276
    81.4200       256
    81.4400       268
    81.4600       256
    81.4800       290
    81.5000       256
    81.5200       266
    81.5400       234
    81.5600       230
    81.5800       234
    81.6000       272
    81.6200       270
    81.6400       230
    81.6600       240
    81.6800       288
    81.7000       234
    81.7200       242
    81.7400       266
    81.7600       268
    81.7800       254
    81.8000       244
    81.8200       238
    81.8400       258
    81.8600       238
    81.8800       262
    81.9000       262
    81.9200       310
    81.9400       286
    81.9600       254
    81.9800       248
    82.0000       274
    82.0200       286
    82.0400       286
    82.0600       268
    82.0800       304
    82.1000       292
    82.1200       320
    82.1400       300
    82.1600       328
    82.1800       298
    82.2000       332
    82.2200       340
    82.2400       338
    82.2600       342
    82.2800       342
    82.3000       316
    82.3200       322
    82.3400       352
    82.3600       352
    82.3800       318
    82.4000       324
    82.4200       350
    82.4400       336
    82.4600       334
    82.4800       346
    82.5000       344
    82.5200       358
    82.5400       368
    82.5600       376
    82.5800       370
    82.6000       372
    82.6200       424
    82.6400       404
    82.6600       398
    82.6800       412
    82.7000       418
    82.7200       410
    82.7400       422
    82.7600       440
    82.7800       412
    82.8000       446
    82.8200       452
    82.8400       420
    82.8600       422
    82.8800       432
    82.9000       420
    82.9200       430
    82.9400       402
    82.9600       416
    82.9800       384
    83.0000       416
    83.0200       396
    83.0400       440
    83.0600       382
    83.0800       376
    83.1000       418
    83.1200       436
    83.1400       358
    83.1600       464
    83.1800       422
    83.2000       414
    83.2200       370
    83.2400       438
    83.2600       386
    83.2800       394
    83.3000       444
    83.3200       378
    83.3400       430
    83.3600       386
    83.3800       402
    83.4000       384
    83.4200       404
    83.4400       396
    83.4600       384
    83.4800       374
    83.5000       376
    83.5200       348
    83.5400       350
    83.5600       328
    83.5800       324
    83.6000       332
    83.6200       352
    83.6400       320
    83.6600       332
    83.6800       310
    83.7000       324
    83.7200       306
    83.7400       294
    83.7600       332
    83.7800       316
    83.8000       262
    83.8200       268
    83.8400       282
    83.8600       292
    83.8800       290
    83.9000       294
    83.9200       298
    83.9400       288
    83.9600       292
    83.9800       294
    84.0000       278
    84.0200       270
    84.0400       282
    84.0600       276
    84.0800       292
    84.1000       272
    84.1200       264
    84.1400       258
    84.1600       302
    84.1800       294
    84.2000       256
    84.2200       286
    84.2400       264
    84.2600       222
    84.2800       248
    84.3000       268
    84.3200       260
    84.3400       218
    84.3600       286
    84.3800       244
    84.4000       238
    84.4200       256
    84.4400       226
    84.4600       222
    84.4800       210
    84.5000       216
    84.5200       248
    84.5400       252
    84.5600       240
    84.5800       230
    84.6000       210
    84.6200       216
    84.6400       218
    84.6600       204
    84.6800       234
    84.7000       198
    84.7200       204
    84.7400       226
    84.7600       224
    84.7800       218
    84.8000       196
    84.8200       222
    84.8400       214
    84.8600       242
    84.8800       210
    84.9000       192
    84.9200       184
    84.9400       224
    84.9600       192
    84.9800       200
    85.0000       220
    85.0200       216
    85.0400       204
    85.0600       204
    85.0800       228
    85.1000       210
    85.1200       214
    85.1400       218
    85.1600       218
    85.1800       222
    85.2000       234
    85.2200       198
    85.2400       208
    85.2600       232
    85.2800       220
    85.3000       214
    85.3200       222
    85.3400       214
    85.3600       244
    85.3800       238
    85.4000       254
    85.4200       260
    85.4400       272
    85.4600       284
    85.4800       270
    85.5000       238
    85.5200       290
    85.5400       292
    85.5600       256
    85.5800       282
    85.6000       266
    85.6200       272
    85.6400       294
    85.6600       270
    85.6800       274
    85.7000       252
    85.7200       256
    85.7400       256
    85.7600       226
    85.7800       236
    85.8000       266
    85.8200       244
    85.8400       246
    85.8600       230
    85.8800       248
    85.9000       248
    85.9200       232
    85.9400       212
    85.9600       192
    85.9800       202
    86.0000       214
    86.0200       216
    86.0400       214
    86.0600       196
    86.0800       202
    86.1000       174
    86.1200       186
    86.1400       200
    86.1600       206
    86.1800       202
    86.2000       216
    86.2200       174
    86.2400       184
    86.2600       196
    86.2800       190
    86.3000       180
    86.3200       232
    86.3400       192
    86.3600       182
    86.3800       190
    86.4000       190
    86.4200       220
    86.4400       218
    86.4600       216
    86.4800       192
    86.5000       236
    86.5200       212
    86.5400       196
    86.5600       224
    86.5800       234
    86.6000       224
    86.6200       226
    86.6400       226
    86.6600       200
    86.6800       242
    86.7000       250
    86.7200       256
    86.7400       276
    86.7600       252
    86.7800       258
    86.8000       294
    86.8200       340
    86.8400       344
    86.8600       342
    86.8800       338
    86.9000       362
    86.9200       364
    86.9400       366
    86.9600       364
    86.9800       392
    87.0000       358
    87.0200       366
    87.0400       378
    87.0600       374
    87.0800       358
    87.1000       386
    87.1200       378
    87.1400       388
    87.1600       390
    87.1800       412
    87.2000       412
    87.2200       416
    87.2400       428
    87.2600       414
    87.2800       428
    87.3000       476
    87.3200       466
    87.3400       494
    87.3600       452
    87.3800       488
    87.4000       454
    87.4200       460
    87.4400       454
    87.4600       418
    87.4800       466
    87.5000       436
    87.5200       422
    87.5400       442
    87.5600       454
    87.5800       430
    87.6000       428
    87.6200       412
    87.6400       424
    87.6600       430
    87.6800       398
    87.7000       416
    87.7200       412
    87.7400       426
    87.7600       440
    87.7800       420
    87.8000       430
    87.8200       438
    87.8400       378
    87.8600       410
    87.8800       388
    87.9000       398
    87.9200       416
    87.9400       358
    87.9600       400
    87.9800       410
    88.0000       366
    88.0200       382
    88.0400       404
    88.0600       358
    88.0800       352
    88.1000       358
    88.1200       410
    88.1400       330
    88.1600       330
    88.1800       344
    88.2000       330
    88.2200       306
    88.2400       300
    88.2600       298
    88.2800       314
    88.3000       310
    88.3200       300
    88.3400       288
    88.3600       298
    88.3800       254
    88.4000       290
    88.4200       302
    88.4400       290
    88.4600       280
    88.4800       256
    88.5000       300
    88.5200       266
    88.5400       300
    88.5600       258
    88.5800       310
    88.6000       282
    88.6200       254
    88.6400       296
    88.6600       304
    88.6800       330
    88.7000       262
    88.7200       278
    88.7400       276
    88.7600       278
    88.7800       302
    88.8000       260
    88.8200       236
    88.8400       270
    88.8600       270
    88.8800       238
    88.9000       274
    88.9200       252
    88.9400       266
    88.9600       248
    88.9800       220
    89.0000       246
    89.0200       224
    89.0400       234
    89.0600       226
    89.0800       258
    89.1000       210
    89.1200       242
    89.1400       232
    89.1600       208
    89.1800       230
    89.2000       248
    89.2200       212
    89.2400       248
    89.2600       246
    89.2800       270
    89.3000       272
    89.3200       270
    89.3400       254
    89.3600       234
    89.3800       270
    89.4000       252
    89.4200       284
    89.4400       296
    89.4600       284
    89.4800       256
    89.5000       284
    89.5200       282
    89.5400       282
    89.5600       272
    89.5800       298
    89.6000       268
    89.6200       250
    89.6400       260
    89.6600       272
    89.6800       280
    89.7000       274
    89.7200       266
    89.7400       312
    89.7600       280
    89.7800       260
    89.8000       302
    89.8200       310
    89.8400       280
    89.8600       316
    89.8800       328
    89.9000       302
    89.9200       298
    89.9400       282
    89.9600       308
    89.9800       302
    90.0000       316
