    10.0000       382
    10.0200       364
    10.0400       392
    10.0600       386
    10.0800       426
    10.1000       422
    10.1200       436
    10.1400       418
    10.1600       364
    10.1800       350
    10.2000       358
    10.2200       404
    10.2400       344
    10.2600       326
    10.2800       360
    10.3000       338
    10.3200       350
    10.3400       360
    10.3600       366
    10.3800       350
    10.4000       330
    10.4200       348
    10.4400       328
    10.4600       326
    10.4800       358
    10.5000       322
    10.5200       340
    10.5400       336
    10.5600       314
    10.5800       336
    10.6000       362
    10.6200       328
    10.6400       324
    10.6600       308
    10.6800       336
    10.7000       344
    10.7200       336
    10.7400       336
    10.7600       336
    10.7800       342
    10.8000       352
    10.8200       342
    10.8400       360
    10.8600       332
    10.8800       332
    10.9000       278
    10.9200       336
    10.9400       304
    10.9600       346
    10.9800       318
    11.0000       306
    11.0200       340
    11.0400       336
    11.0600       294
    11.0800       332
    11.1000       332
    11.1200       348
    11.1400       316
    11.1600       326
    11.1800       374
    11.2000       330
    11.2200       298
    11.2400       328
    11.2600       300
    11.2800       310
    11.3000       328
    11.3200       302
    11.3400       348
    11.3600       368
    11.3800       324
    11.4000       322
    11.4200       316
    11.4400       294
    11.4600       346
    11.4800       334
    11.5000       292
    11.5200       298
    11.5400       298
    11.5600       296
    11.5800       302
    11.6000       298
    11.6200       304
    11.6400       296
    11.6600       316
    11.6800       352
    11.7000       312
    11.7200       314
    11.7400       308
    11.7600       358
    11.7800       310
    11.8000       300
    11.8200       292
    11.8400       324
    11.8600       316
    11.8800       302
    11.9000       316
    11.9200       326
    11.9400       308
    11.9600       320
    11.9800       306
    12.0000       306
    12.0200       296
    12.0400       314
    12.0600       344
    12.0800       322
    12.1000       310
    12.1200       328
    12.1400       330
    12.1600       304
    12.1800       340
    12.2000       350
    12.2200       322
    12.2400       294
    12.2600       310
    12.2800       314
    12.3000       320
    12.3200       274
    12.3400       300
    12.3600       340
    12.3800       298
    12.4000       292
    12.4200       308
    12.4400       268
    12.4600       280
    12.4800       282
    12.5000       296
    12.5200       312
    12.5400       286
    12.5600       262
    12.5800       266
    12.6000       278
    12.6200       276
    12.6400       296
    12.6600       274
    12.6800       294
    12.7000       294
    12.7200       296
    12.7400       310
    12.7600       246
    12.7800       276
    12.8000       258
    12.8200       274
    12.8400       286
    12.8600       254
    12.8800       266
    12.9000       278
    12.9200       254
    12.9400       272
    12.9600       228
    12.9800       264
    13.0000       236
    13.0200       254
    13.0400       260
    13.0600       266
    13.0800       288
    13.1000       240
    13.1200       260
    13.1400       272
    13.1600       248
    13.1800       272
    13.2000       260
    13.2200       232
    13.2400       268
    13.2600       238
    13.2800       260
    13.3000       264
    13.3200       298
    13.3400       276
    13.3600       278
    13.3800       262
    13.4000       264
    13.4200       244
    13.4400       274
    13.4600       252
    13.4800       230
    13.5000       278
    13.5200       268
    13.5400       260
    13.5600       268
    13.5800       216
    13.6000       272
    13.6200       232
    13.6400       252
    13.6600       240
    13.6800       262
    13.7000       286
    13.7200       218
    13.7400       246
    13.7600       244
    13.7800       244
    13.8000       260
    13.8200       262
    13.8400       222
    13.8600       236
    13.8800       242
    13.9000       252
    13.9200       242
    13.9400       254
    13.9600       212
    13.9800       250
    14.0000       266
    14.0200       246
    14.0400       274
    14.0600       250
    14.0800       250
    14.1000       242
    14.1200       244
    14.1400       238
    14.1600       210
    14.1800       244
    14.2000       254
    14.2200       214
    14.2400       238
    14.2600       258
    14.2800       238
    14.3000       248
    14.3200       266
    14.3400       224
    14.3600       218
    14.3800       236
    14.4000       222
    14.4200       206
    14.4400       236
    14.4600       234
    14.4800       194
    14.5000       248
    14.5200       230
    14.5400       238
    14.5600       228
    14.5800       240
    14.6000       216
    14.6200       240
    14.6400       218
    14.6600       232
    14.6800       254
    14.7000       234
    14.7200       250
    14.7400       226
    14.7600       226
    14.7800       234
    14.8000       236
    14.8200       260
    14.8400       238
    14.8600       194
    14.8800       232
    14.9000       264
    14.9200       242
    14.9400       242
    14.9600       296
    14.9800       254
    15.0000       236
    15.0200       242
    15.0400       252
    15.0600       256
    15.0800       240
    15.1000       250
    15.1200       256
    15.1400       242
    15.1600       238
    15.1800       256
    15.2000       230
    15.2200       234
    15.2400       232
    15.2600       250
    15.2800       244
    15.3000       270
    15.3200       200
    15.3400       224
    15.3600       240
    15.3800       212
    15.4000       202
    15.4200       234
    15.4400       230
    15.4600       218
    15.4800       226
    15.5000       220
    15.5200       208
    15.5400       234
    15.5600       218
    15.5800       220
    15.6000       258
    15.6200       212
    15.6400       210
    15.6600       216
    15.6800       214
    15.7000       220
    15.7200       210
    15.7400       224
    15.7600       202
    15.7800       222
    15.8000       208
    15.8200       210
    15.8400       242
    15.8600       226
    15.8800       204
    15.9000       238
    15.9200       212
    15.9400       242
    15.9600       222
    15.9800       198
    16.0000       196
    16.0200       222
    16.0400       220
    16.0600       212
    16.0800       234
    16.1000       196
    16.1200       220
    16.1400       202
    16.1600       234
    16.1800       190
    16.2000       204
    16.2200       224
    16.2400       222
    16.2600       218
    16.2800       216
    16.3000       254
    16.3200       224
    16.3400       230
    16.3600       224
    16.3800       230
    16.4000       212
    16.4200       232
    16.4400       190
    16.4600       224
    16.4800       202
    16.5000       194
    16.5200       214
    16.5400       220
    16.5600       228
    16.5800       210
    16.6000       220
    16.6200       210
    16.6400       234
    16.6600       198
    16.6800       216
    16.7000       212
    16.7200       216
    16.7400       192
    16.7600       234
    16.7800       220
    16.8000       188
    16.8200       202
    16.8400       220
    16.8600       214
    16.8800       182
    16.9000       238
    16.9200       222
    16.9400       218
    16.9600       210
    16.9800       256
    17.0000       232
    17.0200       246
    17.0400       254
    17.0600       250
    17.0800       230
    17.1000       254
    17.1200       266
    17.1400       244
    17.1600       272
    17.1800       266
    17.2000       268
    17.2200       262
    17.2400       258
    17.2600       268
    17.2800       242
    17.3000       276
    17.3200       268
    17.3400       276
    17.3600       306
    17.3800       262
    17.4000       248
    17.4200       296
    17.4400       278
    17.4600       278
    17.4800       240
    17.5000       252
    17.5200       236
    17.5400       232
    17.5600       214
    17.5800       236
    17.6000       214
    17.6200       232
    17.6400       240
    17.6600       224
    17.6800       208
    17.7000       204
    17.7200       222
    17.7400       214
    17.7600       228
    17.7800       196
    17.8000       210
    17.8200       204
    17.8400       196
    17.8600       198
    17.8800       196
    17.9000       210
    17.9200       222
    17.9400       206
    17.9600       200
    17.9800       230
    18.0000       230
    18.0200       214
    18.0400       204
    18.0600       206
    18.0800       186
    18.1000       188
    18.1200       204
    18.1400       218
    18.1600       182
    18.1800       182
    18.2000       196
    18.2200       210
    18.2400       186
    18.2600       210
    18.2800       236
    18.3000       200
    18.3200       224
    18.3400       234
    18.3600       232
    18.3800       198
    18.4000       196
    18.4200       202
    18.4400       212
    18.4600       238
    18.4800       224
    18.5000       190
    18.5200       256
    18.5400       222
    18.5600       204
    18.5800       240
    18.6000       206
    18.6200       238
    18.6400       238
    18.6600       216
    18.6800       256
    18.7000       252
    18.7200       258
    18.7400       248
    18.7600       246
    18.7800       224
    18.8000       260
    18.8200       226
    18.8400       248
    18.8600       242
    18.8800       274
    18.9000       266
    18.9200       276
    18.9400       260
    18.9600       286
    18.9800       290
    19.0000       286
    19.0200       308
    19.0400       304
    19.0600       336
    19.0800       394
    19.1000       344
    19.1200       410
    19.1400       450
    19.1600       492
    19.1800       446
    19.2000       550
    19.2200       612
    19.2400       728
    19.2600       748
    19.2800       814
    19.3000       854
    19.3200      1078
    19.3400      1162
    19.3600      1380
    19.3800      1554
    19.4000      1820
    19.4200      2226
    19.4400      2458
    19.4600      2854
    19.4800      3296
    19.5000      3810
    19.5200      4160
    19.5400      4286
    19.5600      4244
    19.5800      3896
    19.6000      3216
    19.6200      2708
    19.6400      2190
    19.6600      1770
    19.6800      1522
    19.7000      1352
    19.7200      1256
    19.7400      1224
    19.7600      1286
    19.7800      1346
    19.8000      1344
    19.8200      1636
    19.8400      1694
    19.8600      1862
    19.8800      2270
    19.9000      2496
    19.9200      2726
    19.9400      3080
    19.9600      3360
    19.9800      3280
    20.0000      3324
    20.0200      3258
    20.0400      2814
    20.0600      2312
    20.0800      1922
    20.1000      1498
    20.1200      1202
    20.1400       908
    20.1600       848
    20.1800       756
    20.2000       722
    20.2200       610
    20.2400       610
    20.2600       590
    20.2800       530
    20.3000       588
    20.3200       572
    20.3400       554
    20.3600       450
    20.3800       478
    20.4000       554
    20.4200       398
    20.4400       404
    20.4600       366
    20.4800       328
    20.5000       306
    20.5200       294
    20.5400       304
    20.5600       254
    20.5800       274
    20.6000       242
    20.6200       272
    20.6400       238
    20.6600       254
    20.6800       280
    20.7000       256
    20.7200       222
    20.7400       224
    20.7600       216
    20.7800       234
    20.8000       206
    20.8200       240
    20.8400       236
    20.8600       224
    20.8800       256
    20.9000       238
    20.9200       228
    20.9400       236
    20.9600       220
    20.9800       270
    21.0000       260
    21.0200       222
    21.0400       252
    21.0600       316
    21.0800       288
    21.1000       306
    21.1200       300
    21.1400       324
    21.1600       322
    21.1800       336
    21.2000       352
    21.2200       332
    21.2400       364
    21.2600       328
    21.2800       296
    21.3000       338
    21.3200       292
    21.3400       284
    21.3600       242
    21.3800       264
    21.4000       286
    21.4200       218
    21.4400       224
    21.4600       220
    21.4800       212
    21.5000       172
    21.5200       212
    21.5400       192
    21.5600       212
    21.5800       210
    21.6000       226
    21.6200       214
    21.6400       192
    21.6600       208
    21.6800       216
    21.7000       204
    21.7200       210
    21.7400       192
    21.7600       208
    21.7800       184
    21.8000       162
    21.8200       204
    21.8400       208
    21.8600       212
    21.8800       200
    21.9000       240
    21.9200       210
    21.9400       196
    21.9600       222
    21.9800       242
    22.0000       216
    22.0200       200
    22.0400       236
    22.0600       210
    22.0800       238
    22.1000       236
    22.1200       254
    22.1400       208
    22.1600       202
    22.1800       234
    22.2000       246
    22.2200       238
    22.2400       244
    22.2600       258
    22.2800       296
    22.3000       256
    22.3200       310
    22.3400       298
    22.3600       342
    22.3800       332
    22.4000       366
    22.4200       402
    22.4400       416
    22.4600       452
    22.4800       502
    22.5000       560
    22.5200       632
    22.5400       718
    22.5600       788
    22.5800       934
    22.6000      1062
    22.6200      1144
    22.6400      1306
    22.6600      1552
    22.6800      1790
    22.7000      2104
    22.7200      2490
    22.7400      2812
    22.7600      3416
    22.7800      4062
    22.8000      4692
    22.8200      5398
    22.8400      5932
    22.8600      6212
    22.8800      5898
    22.9000      5584
    22.9200      4660
    22.9400      3836
    22.9600      3038
    22.9800      2314
    23.0000      1886
    23.0200      1494
    23.0400      1274
    23.0600      1062
    23.0800       980
    23.1000       894
    23.1200       846
    23.1400       766
    23.1600       662
    23.1800       688
    23.2000       654
    23.2200       626
    23.2400       568
    23.2600       496
    23.2800       434
    23.3000       468
    23.3200       460
    23.3400       386
    23.3600       374
    23.3800       356
    23.4000       342
    23.4200       350
    23.4400       318
    23.4600       292
    23.4800       322
    23.5000       276
    23.5200       326
    23.5400       270
    23.5600       318
    23.5800       246
    23.6000       274
    23.6200       264
    23.6400       272
    23.6600       280
    23.6800       308
    23.7000       246
    23.7200       284
    23.7400       284
    23.7600       262
    23.7800       268
    23.8000       292
    23.8200       258
    23.8400       246
    23.8600       260
    23.8800       266
    23.9000       242
    23.9200       272
    23.9400       276
    23.9600       236
    23.9800       306
    24.0000       292
    24.0200       294
    24.0400       318
    24.0600       342
    24.0800       288
    24.1000       284
    24.1200       290
    24.1400       294
    24.1600       284
    24.1800       314
    24.2000       350
    24.2200       354
    24.2400       378
    24.2600       400
    24.2800       416
    24.3000       468
    24.3200       556
    24.3400       532
    24.3600       618
    24.3800       626
    24.4000       760
    24.4200       826
    24.4400       840
    24.4600       850
    24.4800       922
    24.5000       866
    24.5200       818
    24.5400       782
    24.5600       626
    24.5800       598
    24.6000       534
    24.6200       462
    24.6400       420
    24.6600       408
    24.6800       368
    24.7000       372
    24.7200       322
    24.7400       308
    24.7600       260
    24.7800       272
    24.8000       312
    24.8200       242
    24.8400       262
    24.8600       246
    24.8800       252
    24.9000       266
    24.9200       256
    24.9400       242
    24.9600       248
    24.9800       250
    25.0000       260
    25.0200       230
    25.0400       238
    25.0600       250
    25.0800       278
    25.1000       240
    25.1200       234
    25.1400       240
    25.1600       260
    25.1800       296
    25.2000       260
    25.2200       296
    25.2400       302
    25.2600       318
    25.2800       312
    25.3000       314
    25.3200       418
    25.3400       374
    25.3600       436
    25.3800       476
    25.4000       532
    25.4200       542
    25.4400       636
    25.4600       646
    25.4800       772
    25.5000       892
    25.5200       990
    25.5400      1070
    25.5600      1216
    25.5800      1302
    25.6000      1288
    25.6200      1344
    25.6400      1196
    25.6600      1058
    25.6800       950
    25.7000       756
    25.7200       694
    25.7400       566
    25.7600       462
    25.7800       456
    25.8000       370
    25.8200       354
    25.8400       330
    25.8600       288
    25.8800       290
    25.9000       298
    25.9200       288
    25.9400       290
    25.9600       232
    25.9800       268
    26.0000       264
    26.0200       268
    26.0400       256
    26.0600       280
    26.0800       302
    26.1000       328
    26.1200       312
    26.1400       298
    26.1600       336
    26.1800       340
    26.2000       322
    26.2200       344
    26.2400       400
    26.2600       430
    26.2800       446
    26.3000       486
    26.3200       502
    26.3400       562
    26.3600       628
    26.3800       668
    26.4000       660
    26.4200       698
    26.4400       812
    26.4600       702
    26.4800       788
    26.5000       832
    26.5200       796
    26.5400       848
    26.5600       872
    26.5800       864
    26.6000       914
    26.6200       884
    26.6400       904
    26.6600       934
    26.6800       818
    26.7000       858
    26.7200       772
    26.7400       748
    26.7600       684
    26.7800       650
    26.8000       548
    26.8200       510
    26.8400       494
    26.8600       434
    26.8800       406
    26.9000       348
    26.9200       386
    26.9400       362
    26.9600       322
    26.9800       306
    27.0000       320
    27.0200       304
    27.0400       310
    27.0600       350
    27.0800       316
    27.1000       330
    27.1200       320
    27.1400       314
    27.1600       302
    27.1800       288
    27.2000       326
    27.2200       300
    27.2400       266
    27.2600       310
    27.2800       286
    27.3000       294
    27.3200       242
    27.3400       284
    27.3600       286
    27.3800       286
    27.4000       294
    27.4200       320
    27.4400       286
    27.4600       276
    27.4800       270
    27.5000       326
    27.5200       312
    27.5400       302
    27.5600       280
    27.5800       320
    27.6000       284
    27.6200       292
    27.6400       310
    27.6600       268
    27.6800       254
    27.7000       250
    27.7200       290
    27.7400       298
    27.7600       278
    27.7800       258
    27.8000       278
    27.8200       352
    27.8400       354
    27.8600       326
    27.8800       358
    27.9000       390
    27.9200       438
    27.9400       426
    27.9600       490
    27.9800       496
    28.0000       580
    28.0200       624
    28.0400       656
    28.0600       776
    28.0800       872
    28.1000       976
    28.1200      1144
    28.1400      1396
    28.1600      1594
    28.1800      1918
    28.2000      2126
    28.2200      2508
    28.2400      2790
    28.2600      2968
    28.2800      2770
    28.3000      2810
    28.3200      2404
    28.3400      2208
    28.3600      1818
    28.3800      1514
    28.4000      1252
    28.4200       962
    28.4400       788
    28.4600       718
    28.4800       546
    28.5000       500
    28.5200       458
    28.5400       408
    28.5600       348
    28.5800       328
    28.6000       322
    28.6200       294
    28.6400       312
    28.6600       298
    28.6800       284
    28.7000       250
    28.7200       238
    28.7400       266
    28.7600       248
    28.7800       238
    28.8000       214
    28.8200       236
    28.8400       236
    28.8600       256
    28.8800       212
    28.9000       242
    28.9200       224
    28.9400       214
    28.9600       212
    28.9800       222
    29.0000       226
    29.0200       246
    29.0400       234
    29.0600       232
    29.0800       228
    29.1000       220
    29.1200       206
    29.1400       224
    29.1600       202
    29.1800       214
    29.2000       230
    29.2200       200
    29.2400       230
    29.2600       224
    29.2800       196
    29.3000       206
    29.3200       200
    29.3400       236
    29.3600       218
    29.3800       214
    29.4000       242
    29.4200       230
    29.4400       244
    29.4600       210
    29.4800       236
    29.5000       238
    29.5200       258
    29.5400       218
    29.5600       246
    29.5800       256
    29.6000       262
    29.6200       234
    29.6400       244
    29.6600       256
    29.6800       274
    29.7000       226
    29.7200       226
    29.7400       218
    29.7600       252
    29.7800       240
    29.8000       210
    29.8200       202
    29.8400       206
    29.8600       210
    29.8800       248
    29.9000       222
    29.9200       240
    29.9400       204
    29.9600       250
    29.9800       254
    30.0000       278
    30.0200       248
    30.0400       284
    30.0600       268
    30.0800       270
    30.1000       316
    30.1200       342
    30.1400       362
    30.1600       364
    30.1800       376
    30.2000       354
    30.2200       420
    30.2400       414
    30.2600       406
    30.2800       404
    30.3000       382
    30.3200       384
    30.3400       378
    30.3600       380
    30.3800       364
    30.4000       414
    30.4200       330
    30.4400       352
    30.4600       338
    30.4800       370
    30.5000       360
    30.5200       350
    30.5400       348
    30.5600       400
    30.5800       410
    30.6000       380
    30.6200       390
    30.6400       406
    30.6600       400
    30.6800       412
    30.7000       368
    30.7200       392
    30.7400       384
    30.7600       376
    30.7800       372
    30.8000       352
    30.8200       326
    30.8400       338
    30.8600       320
    30.8800       296
    30.9000       292
    30.9200       264
    30.9400       290
    30.9600       258
    30.9800       260
    31.0000       224
    31.0200       260
    31.0400       280
    31.0600       262
    31.0800       246
    31.1000       276
    31.1200       260
    31.1400       240
    31.1600       264
    31.1800       256
    31.2000       274
    31.2200       278
    31.2400       246
    31.2600       296
    31.2800       310
    31.3000       298
    31.3200       294
    31.3400       312
    31.3600       334
    31.3800       316
    31.4000       334
    31.4200       354
    31.4400       364
    31.4600       352
    31.4800       390
    31.5000       412
    31.5200       436
    31.5400       442
    31.5600       432
    31.5800       530
    31.6000       504
    31.6200       584
    31.6400       608
    31.6600       656
    31.6800       718
    31.7000       746
    31.7200       846
    31.7400       856
    31.7600      1028
    31.7800      1084
    31.8000      1246
    31.8200      1392
    31.8400      1502
    31.8600      1810
    31.8800      1918
    31.9000      2190
    31.9200      2524
    31.9400      2788
    31.9600      3036
    31.9800      3236
    32.0000      3268
    32.0200      3178
    32.0400      2948
    32.0600      2786
    32.0800      2504
    32.1000      2324
    32.1200      1984
    32.1400      1878
    32.1600      1718
    32.1800      1584
    32.2000      1640
    32.2200      1720
    32.2400      1770
    32.2600      1902
    32.2800      2046
    32.3000      2210
    32.3200      2568
    32.3400      2846
    32.3600      3308
    32.3800      3748
    32.4000      4368
    32.4200      5010
    32.4400      5808
    32.4600      6816
    32.4800      7870
    32.5000      8830
    32.5200      9610
    32.5400     10142
    32.5600     10138
    32.5800      9688
    32.6000      9260
    32.6200      8444
    32.6400      7382
    32.6600      6396
    32.6800      5630
    32.7000      4570
    32.7200      3810
    32.7400      3186
    32.7600      2578
    32.7800      2254
    32.8000      2002
    32.8200      1792
    32.8400      1548
    32.8600      1494
    32.8800      1434
    32.9000      1400
    32.9200      1380
    32.9400      1496
    32.9600      1462
    32.9800      1592
    33.0000      1684
    33.0200      1720
    33.0400      1826
    33.0600      1996
    33.0800      2000
    33.1000      2088
    33.1200      2000
    33.1400      1862
    33.1600      1674
    33.1800      1540
    33.2000      1346
    33.2200      1112
    33.2400       932
    33.2600       852
    33.2800       742
    33.3000       606
    33.3200       562
    33.3400       500
    33.3600       490
    33.3800       492
    33.4000       398
    33.4200       384
    33.4400       358
    33.4600       344
    33.4800       330
    33.5000       316
    33.5200       312
    33.5400       318
    33.5600       274
    33.5800       316
    33.6000       276
    33.6200       260
    33.6400       254
    33.6600       274
    33.6800       254
    33.7000       232
    33.7200       284
    33.7400       208
    33.7600       228
    33.7800       244
    33.8000       244
    33.8200       238
    33.8400       222
    33.8600       234
    33.8800       204
    33.9000       246
    33.9200       240
    33.9400       250
    33.9600       240
    33.9800       236
    34.0000       228
    34.0200       218
    34.0400       278
    34.0600       236
    34.0800       238
    34.1000       256
    34.1200       260
    34.1400       240
    34.1600       248
    34.1800       224
    34.2000       216
    34.2200       232
    34.2400       246
    34.2600       216
    34.2800       226
    34.3000       220
    34.3200       218
    34.3400       192
    34.3600       228
    34.3800       232
    34.4000       234
    34.4200       224
    34.4400       248
    34.4600       226
    34.4800       242
    34.5000       254
    34.5200       250
    34.5400       262
    34.5600       290
    34.5800       232
    34.6000       254
    34.6200       230
    34.6400       242
    34.6600       258
    34.6800       262
    34.7000       286
    34.7200       272
    34.7400       252
    34.7600       224
    34.7800       266
    34.8000       278
    34.8200       260
    34.8400       262
    34.8600       254
    34.8800       244
    34.9000       236
    34.9200       244
    34.9400       280
    34.9600       278
    34.9800       242
    35.0000       300
    35.0200       278
    35.0400       252
    35.0600       264
    35.0800       252
    35.1000       286
    35.1200       250
    35.1400       282
    35.1600       274
    35.1800       300
    35.2000       238
    35.2200       262
    35.2400       286
    35.2600       276
    35.2800       246
    35.3000       248
    35.3200       220
    35.3400       252
    35.3600       250
    35.3800       260
    35.4000       268
    35.4200       256
    35.4400       276
    35.4600       260
    35.4800       282
    35.5000       246
    35.5200       288
    35.5400       318
    35.5600       274
    35.5800       290
    35.6000       290
    35.6200       310
    35.6400       330
    35.6600       280
    35.6800       322
    35.7000       334
    35.7200       306
    35.7400       356
    35.7600       376
    35.7800       300
    35.8000       376
    35.8200       358
    35.8400       414
    35.8600       416
    35.8800       402
    35.9000       426
    35.9200       474
    35.9400       470
    35.9600       460
    35.9800       532
    36.0000       522
    36.0200       618
    36.0400       610
    36.0600       682
    36.0800       780
    36.1000       818
    36.1200       830
    36.1400       846
    36.1600       816
    36.1800       836
    36.2000       792
    36.2200       730
    36.2400       674
    36.2600       670
    36.2800       604
    36.3000       520
    36.3200       524
    36.3400       484
    36.3600       454
    36.3800       462
    36.4000       478
    36.4200       428
    36.4400       402
    36.4600       450
    36.4800       466
    36.5000       474
    36.5200       476
    36.5400       536
    36.5600       590
    36.5800       604
    36.6000       594
    36.6200       604
    36.6400       712
    36.6600       734
    36.6800       880
    36.7000       926
    36.7200      1070
    36.7400      1208
    36.7600      1374
    36.7800      1598
    36.8000      1812
    36.8200      2018
    36.8400      2272
    36.8600      2386
    36.8800      2552
    36.9000      2606
    36.9200      2570
    36.9400      2330
    36.9600      2256
    36.9800      2020
    37.0000      1858
    37.0200      1628
    37.0400      1454
    37.0600      1300
    37.0800      1078
    37.1000      1008
    37.1200       938
    37.1400       816
    37.1600       776
    37.1800       728
    37.2000       672
    37.2200       630
    37.2400       674
    37.2600       622
    37.2800       654
    37.3000       610
    37.3200       548
    37.3400       562
    37.3600       548
    37.3800       558
    37.4000       550
    37.4200       510
    37.4400       542
    37.4600       578
    37.4800       542
    37.5000       562
    37.5200       580
    37.5400       588
    37.5600       546
    37.5800       562
    37.6000       584
    37.6200       556
    37.6400       560
    37.6600       652
    37.6800       662
    37.7000       698
    37.7200       734
    37.7400       744
    37.7600       792
    37.7800       852
    37.8000       924
    37.8200       960
    37.8400      1046
    37.8600      1204
    37.8800      1474
    37.9000      1536
    37.9200      1816
    37.9400      2080
    37.9600      2242
    37.9800      2418
    38.0000      2584
    38.0200      2628
    38.0400      2598
    38.0600      2574
    38.0800      2402
    38.1000      2246
    38.1200      2166
    38.1400      2064
    38.1600      1910
    38.1800      1808
    38.2000      1748
    38.2200      1724
    38.2400      1678
    38.2600      1824
    38.2800      1934
    38.3000      2036
    38.3200      2292
    38.3400      2558
    38.3600      2844
    38.3800      3162
    38.4000      3706
    38.4200      4044
    38.4400      4474
    38.4600      4644
    38.4800      4974
    38.5000      4934
    38.5200      4990
    38.5400      5030
    38.5600      4864
    38.5800      4780
    38.6000      4716
    38.6200      4536
    38.6400      4308
    38.6600      4368
    38.6800      4384
    38.7000      4468
    38.7200      4176
    38.7400      4170
    38.7600      4052
    38.7800      3726
    38.8000      3430
    38.8200      3132
    38.8400      2856
    38.8600      2540
    38.8800      2214
    38.9000      1908
    38.9200      1768
    38.9400      1468
    38.9600      1288
    38.9800      1146
    39.0000      1044
    39.0200       952
    39.0400       936
    39.0600       934
    39.0800       828
    39.1000       806
    39.1200       760
    39.1400       736
    39.1600       704
    39.1800       730
    39.2000       694
    39.2200       716
    39.2400       742
    39.2600       690
    39.2800       736
    39.3000       680
    39.3200       746
    39.3400       754
    39.3600       744
    39.3800       756
    39.4000       804
    39.4200       832
    39.4400       860
    39.4600       952
    39.4800       996
    39.5000      1146
    39.5200      1286
    39.5400      1368
    39.5600      1520
    39.5800      1804
    39.6000      2014
    39.6200      2210
    39.6400      2474
    39.6600      2756
    39.6800      2884
    39.7000      2812
    39.7200      2748
    39.7400      2692
    39.7600      2546
    39.7800      2274
    39.8000      2052
    39.8200      1790
    39.8400      1590
    39.8600      1294
    39.8800      1222
    39.9000      1060
    39.9200       940
    39.9400       866
    39.9600       742
    39.9800       718
    40.0000       680
    40.0200       616
    40.0400       586
    40.0600       562
    40.0800       572
    40.1000       560
    40.1200       532
    40.1400       578
    40.1600       542
    40.1800       564
    40.2000       558
    40.2200       562
    40.2400       578
    40.2600       590
    40.2800       618
    40.3000       594
    40.3200       658
    40.3400       654
    40.3600       724
    40.3800       754
    40.4000       804
    40.4200       880
    40.4400       974
    40.4600      1004
    40.4800      1208
    40.5000      1312
    40.5200      1360
    40.5400      1544
    40.5600      1566
    40.5800      1624
    40.6000      1770
    40.6200      1644
    40.6400      1552
    40.6600      1538
    40.6800      1480
    40.7000      1338
    40.7200      1198
    40.7400      1166
    40.7600      1108
    40.7800       908
    40.8000       810
    40.8200       764
    40.8400       726
    40.8600       666
    40.8800       638
    40.9000       600
    40.9200       614
    40.9400       542
    40.9600       494
    40.9800       558
    41.0000       480
    41.0200       474
    41.0400       460
    41.0600       500
    41.0800       490
    41.1000       474
    41.1200       498
    41.1400       496
    41.1600       526
    41.1800       446
    41.2000       480
    41.2200       556
    41.2400       550
    41.2600       540
    41.2800       578
    41.3000       608
    41.3200       546
    41.3400       576
    41.3600       554
    41.3800       532
    41.4000       546
    41.4200       610
    41.4400       564
    41.4600       564
    41.4800       592
    41.5000       608
    41.5200       608
    41.5400       628
    41.5600       642
    41.5800       630
    41.6000       674
    41.6200       662
    41.6400       736
    41.6600       786
    41.6800       834
    41.7000       978
    41.7200      1072
    41.7400      1154
    41.7600      1286
    41.7800      1510
    41.8000      1642
    41.8200      1820
    41.8400      2014
    41.8600      2134
    41.8800      2248
    41.9000      2246
    41.9200      2236
    41.9400      2166
    41.9600      2054
    41.9800      1916
    42.0000      1832
    42.0200      1654
    42.0400      1464
    42.0600      1316
    42.0800      1216
    42.1000      1076
    42.1200       934
    42.1400       866
    42.1600       756
    42.1800       682
    42.2000       666
    42.2200       630
    42.2400       554
    42.2600       612
    42.2800       574
    42.3000       492
    42.3200       518
    42.3400       540
    42.3600       468
    42.3800       494
    42.4000       464
    42.4200       494
    42.4400       446
    42.4600       436
    42.4800       436
    42.5000       442
    42.5200       428
    42.5400       408
    42.5600       390
    42.5800       400
    42.6000       438
    42.6200       394
    42.6400       382
    42.6600       430
    42.6800       420
    42.7000       422
    42.7200       430
    42.7400       448
    42.7600       416
    42.7800       460
    42.8000       446
    42.8200       522
    42.8400       486
    42.8600       496
    42.8800       538
    42.9000       620
    42.9200       604
    42.9400       714
    42.9600       770
    42.9800       830
    43.0000       920
    43.0200      1020
    43.0400      1114
    43.0600      1302
    43.0800      1486
    43.1000      1620
    43.1200      1732
    43.1400      1866
    43.1600      2070
    43.1800      2142
    43.2000      2168
    43.2200      2202
    43.2400      2116
    43.2600      2002
    43.2800      1842
    43.3000      1744
    43.3200      1560
    43.3400      1416
    43.3600      1278
    43.3800      1126
    43.4000      1012
    43.4200       854
    43.4400       824
    43.4600       816
    43.4800       708
    43.5000       612
    43.5200       624
    43.5400       558
    43.5600       592
    43.5800       536
    43.6000       560
    43.6200       608
    43.6400       548
    43.6600       630
    43.6800       588
    43.7000       640
    43.7200       764
    43.7400       770
    43.7600       758
    43.7800       796
    43.8000       838
    43.8200       832
    43.8400       850
    43.8600       810
    43.8800       760
    43.9000       780
    43.9200       762
    43.9400       770
    43.9600       680
    43.9800       650
    44.0000       598
    44.0200       606
    44.0400       550
    44.0600       556
    44.0800       530
    44.1000       512
    44.1200       438
    44.1400       500
    44.1600       510
    44.1800       520
    44.2000       462
    44.2200       488
    44.2400       478
    44.2600       514
    44.2800       470
    44.3000       458
    44.3200       472
    44.3400       458
    44.3600       492
    44.3800       512
    44.4000       470
    44.4200       474
    44.4400       514
    44.4600       460
    44.4800       492
    44.5000       488
    44.5200       488
    44.5400       460
    44.5600       480
    44.5800       482
    44.6000       434
    44.6200       410
    44.6400       448
    44.6600       388
    44.6800       400
    44.7000       386
    44.7200       406
    44.7400       424
    44.7600       416
    44.7800       408
    44.8000       386
    44.8200       404
    44.8400       386
    44.8600       406
    44.8800       426
    44.9000       430
    44.9200       402
    44.9400       402
    44.9600       452
    44.9800       426
    45.0000       440
    45.0200       436
    45.0400       430
    45.0600       496
    45.0800       432
    45.1000       484
    45.1200       484
    45.1400       462
    45.1600       508
    45.1800       494
    45.2000       504
    45.2200       504
    45.2400       496
    45.2600       518
    45.2800       476
    45.3000       518
    45.3200       488
    45.3400       458
    45.3600       474
    45.3800       470
    45.4000       466
    45.4200       514
    45.4400       474
    45.4600       504
    45.4800       460
    45.5000       416
    45.5200       482
    45.5400       506
    45.5600       488
    45.5800       442
    45.6000       476
    45.6200       482
    45.6400       568
    45.6600       498
    45.6800       518
    45.7000       490
    45.7200       528
    45.7400       520
    45.7600       554
    45.7800       510
    45.8000       554
    45.8200       560
    45.8400       556
    45.8600       584
    45.8800       550
    45.9000       582
    45.9200       546
    45.9400       598
    45.9600       618
    45.9800       594
    46.0000       606
    46.0200       584
    46.0400       674
    46.0600       680
    46.0800       652
    46.1000       632
    46.1200       744
    46.1400       670
    46.1600       786
    46.1800       794
    46.2000       834
    46.2200       908
    46.2400       952
    46.2600      1018
    46.2800      1116
    46.3000      1160
    46.3200      1282
    46.3400      1378
    46.3600      1492
    46.3800      1674
    46.4000      1792
    46.4200      2112
    46.4400      2316
    46.4600      2666
    46.4800      2848
    46.5000      3398
    46.5200      3814
    46.5400      4350
    46.5600      5126
    46.5800      5660
    46.6000      6694
    46.6200      7608
    46.6400      8472
    46.6600      9320
    46.6800     10004
    46.7000     10618
    46.7200     10766
    46.7400     10438
    46.7600     10044
    46.7800      9384
    46.8000      8852
    46.8200      8222
    46.8400      7774
    46.8600      7166
    46.8800      6600
    46.9000      6020
    46.9200      5540
    46.9400      5204
    46.9600      4940
    46.9800      4704
    47.0000      4444
    47.0200      4240
    47.0400      3856
    47.0600      3628
    47.0800      3282
    47.1000      3152
    47.1200      2814
    47.1400      2588
    47.1600      2332
    47.1800      2080
    47.2000      1848
    47.2200      1732
    47.2400      1446
    47.2600      1378
    47.2800      1260
    47.3000      1146
    47.3200      1048
    47.3400      1054
    47.3600       952
    47.3800       906
    47.4000       828
    47.4200       848
    47.4400       740
    47.4600       768
    47.4800       748
    47.5000       672
    47.5200       730
    47.5400       724
    47.5600       674
    47.5800       670
    47.6000       650
    47.6200       718
    47.6400       712
    47.6600       742
    47.6800       766
    47.7000       806
    47.7200       854
    47.7400       864
    47.7600       970
    47.7800       974
    47.8000      1028
    47.8200      1100
    47.8400      1140
    47.8600      1124
    47.8800      1064
    47.9000      1076
    47.9200      1042
    47.9400      1060
    47.9600       988
    47.9800       938
    48.0000       902
    48.0200       940
    48.0400       932
    48.0600       930
    48.0800       970
    48.1000       936
    48.1200       996
    48.1400       990
    48.1600      1066
    48.1800      1074
    48.2000      1018
    48.2200      1094
    48.2400      1076
    48.2600      1096
    48.2800      1032
    48.3000       930
    48.3200       906
    48.3400       828
    48.3600       762
    48.3800       756
    48.4000       722
    48.4200       654
    48.4400       618
    48.4600       610
    48.4800       560
    48.5000       538
    48.5200       500
    48.5400       506
    48.5600       502
    48.5800       474
    48.6000       474
    48.6200       450
    48.6400       434
    48.6600       416
    48.6800       398
    48.7000       422
    48.7200       420
    48.7400       382
    48.7600       396
    48.7800       354
    48.8000       394
    48.8200       360
    48.8400       378
    48.8600       368
    48.8800       384
    48.9000       354
    48.9200       338
    48.9400       324
    48.9600       334
    48.9800       356
    49.0000       344
    49.0200       332
    49.0400       310
    49.0600       314
    49.0800       332
    49.1000       326
    49.1200       348
    49.1400       306
    49.1600       286
    49.1800       348
    49.2000       306
    49.2200       318
    49.2400       292
    49.2600       318
    49.2800       296
    49.3000       316
    49.3200       286
    49.3400       304
    49.3600       316
    49.3800       314
    49.4000       286
    49.4200       274
    49.4400       266
    49.4600       316
    49.4800       318
    49.5000       306
    49.5200       306
    49.5400       304
    49.5600       350
    49.5800       342
    49.6000       360
    49.6200       326
    49.6400       354
    49.6600       324
    49.6800       334
    49.7000       326
    49.7200       324
    49.7400       296
    49.7600       366
    49.7800       354
    49.8000       368
    49.8200       362
    49.8400       352
    49.8600       356
    49.8800       328
    49.9000       382
    49.9200       374
    49.9400       404
    49.9600       456
    49.9800       408
    50.0000       436
    50.0200       490
    50.0400       510
    50.0600       570
    50.0800       516
    50.1000       570
    50.1200       578
    50.1400       634
    50.1600       614
    50.1800       638
    50.2000       686
    50.2200       660
    50.2400       646
    50.2600       628
    50.2800       606
    50.3000       612
    50.3200       624
    50.3400       610
    50.3600       586
    50.3800       592
    50.4000       612
    50.4200       586
    50.4400       604
    50.4600       582
    50.4800       540
    50.5000       548
    50.5200       524
    50.5400       508
    50.5600       496
    50.5800       516
    50.6000       536
    50.6200       488
    50.6400       500
    50.6600       524
    50.6800       544
    50.7000       520
    50.7200       570
    50.7400       584
    50.7600       592
    50.7800       622
    50.8000       676
    50.8200       740
    50.8400       714
    50.8600       766
    50.8800       836
    50.9000       868
    50.9200       900
    50.9400       900
    50.9600       838
    50.9800       940
    51.0000       862
    51.0200       796
    51.0400       726
    51.0600       762
    51.0800       756
    51.1000       698
    51.1200       688
    51.1400       648
    51.1600       646
    51.1800       628
    51.2000       612
    51.2200       620
    51.2400       588
    51.2600       612
    51.2800       660
    51.3000       684
    51.3200       712
    51.3400       710
    51.3600       746
    51.3800       780
    51.4000       778
    51.4200       844
    51.4400       792
    51.4600       830
    51.4800       740
    51.5000       736
    51.5200       736
    51.5400       764
    51.5600       694
    51.5800       706
    51.6000       756
    51.6200       740
    51.6400       718
    51.6600       728
    51.6800       722
    51.7000       790
    51.7200       878
    51.7400       884
    51.7600       982
    51.7800       998
    51.8000      1056
    51.8200      1146
    51.8400      1124
    51.8600      1194
    51.8800      1180
    51.9000      1162
    51.9200      1254
    51.9400      1074
    51.9600      1088
    51.9800      1060
    52.0000      1014
    52.0200      1024
    52.0400       952
    52.0600       942
    52.0800       898
    52.1000       830
    52.1200       818
    52.1400       792
    52.1600       782
    52.1800       732
    52.2000       708
    52.2200       720
    52.2400       722
    52.2600       670
    52.2800       754
    52.3000       698
    52.3200       706
    52.3400       722
    52.3600       782
    52.3800       830
    52.4000       872
    52.4200       946
    52.4400       976
    52.4600      1110
    52.4800      1142
    52.5000      1326
    52.5200      1452
    52.5400      1540
    52.5600      1540
    52.5800      1536
    52.6000      1700
    52.6200      1694
    52.6400      1732
    52.6600      1674
    52.6800      1598
    52.7000      1486
    52.7200      1512
    52.7400      1446
    52.7600      1314
    52.7800      1294
    52.8000      1186
    52.8200      1172
    52.8400      1074
    52.8600       938
    52.8800       948
    52.9000       890
    52.9200       858
    52.9400       850
    52.9600       838
    52.9800       896
    53.0000       810
    53.0200       936
    53.0400       902
    53.0600      1000
    53.0800      1076
    53.1000      1184
    53.1200      1218
    53.1400      1314
    53.1600      1490
    53.1800      1750
    53.2000      1852
    53.2200      1928
    53.2400      2080
    53.2600      2038
    53.2800      2096
    53.3000      2056
    53.3200      1926
    53.3400      1746
    53.3600      1788
    53.3800      1652
    53.4000      1490
    53.4200      1464
    53.4400      1352
    53.4600      1168
    53.4800      1084
    53.5000       936
    53.5200       906
    53.5400       812
    53.5600       698
    53.5800       638
    53.6000       588
    53.6200       570
    53.6400       522
    53.6600       484
    53.6800       464
    53.7000       418
    53.7200       412
    53.7400       468
    53.7600       400
    53.7800       418
    53.8000       418
    53.8200       366
    53.8400       340
    53.8600       366
    53.8800       370
    53.9000       356
    53.9200       300
    53.9400       344
    53.9600       330
    53.9800       308
    54.0000       328
    54.0200       312
    54.0400       344
    54.0600       336
    54.0800       344
    54.1000       330
    54.1200       356
    54.1400       336
    54.1600       346
    54.1800       346
    54.2000       340
    54.2200       382
    54.2400       388
    54.2600       344
    54.2800       342
    54.3000       338
    54.3200       360
    54.3400       390
    54.3600       426
    54.3800       388
    54.4000       452
    54.4200       454
    54.4400       474
    54.4600       460
    54.4800       554
    54.5000       556
    54.5200       604
    54.5400       658
    54.5600       678
    54.5800       654
    54.6000       632
    54.6200       690
    54.6400       794
    54.6600       788
    54.6800       862
    54.7000       846
    54.7200       894
    54.7400       908
    54.7600       994
    54.7800       940
    54.8000       982
    54.8200       862
    54.8400       846
    54.8600       774
    54.8800       776
    54.9000       758
    54.9200       724
    54.9400       686
    54.9600       610
    54.9800       560
    55.0000       524
    55.0200       572
    55.0400       498
    55.0600       514
    55.0800       492
    55.1000       450
    55.1200       454
    55.1400       430
    55.1600       460
    55.1800       432
    55.2000       416
    55.2200       418
    55.2400       422
    55.2600       376
    55.2800       404
    55.3000       402
    55.3200       362
    55.3400       428
    55.3600       392
    55.3800       420
    55.4000       374
    55.4200       426
    55.4400       460
    55.4600       442
    55.4800       440
    55.5000       486
    55.5200       484
    55.5400       508
    55.5600       510
    55.5800       548
    55.6000       572
    55.6200       612
    55.6400       722
    55.6600       716
    55.6800       806
    55.7000       870
    55.7200       992
    55.7400       982
    55.7600       988
    55.7800       914
    55.8000       932
    55.8200       934
    55.8400       836
    55.8600       832
    55.8800       852
    55.9000       806
    55.9200       732
    55.9400       720
    55.9600       616
    55.9800       598
    56.0000       610
    56.0200       498
    56.0400       474
    56.0600       468
    56.0800       440
    56.1000       402
    56.1200       402
    56.1400       416
    56.1600       414
    56.1800       418
    56.2000       342
    56.2200       332
    56.2400       362
    56.2600       346
    56.2800       366
    56.3000       342
    56.3200       358
    56.3400       328
    56.3600       292
    56.3800       326
    56.4000       340
    56.4200       310
    56.4400       316
    56.4600       304
    56.4800       338
    56.5000       292
    56.5200       296
    56.5400       326
    56.5600       334
    56.5800       300
    56.6000       330
    56.6200       330
    56.6400       336
    56.6600       334
    56.6800       316
    56.7000       364
    56.7200       382
    56.7400       368
    56.7600       356
    56.7800       360
    56.8000       390
    56.8200       382
    56.8400       408
    56.8600       392
    56.8800       456
    56.9000       460
    56.9200       450
    56.9400       446
    56.9600       504
    56.9800       520
    57.0000       536
    57.0200       556
    57.0400       586
    57.0600       614
    57.0800       632
    57.1000       734
    57.1200       688
    57.1400       802
    57.1600       852
    57.1800       914
    57.2000      1096
    57.2200      1110
    57.2400      1254
    57.2600      1446
    57.2800      1512
    57.3000      1646
    57.3200      1730
    57.3400      1916
    57.3600      1992
    57.3800      1954
    57.4000      2134
    57.4200      2038
    57.4400      1844
    57.4600      1872
    57.4800      1902
    57.5000      1870
    57.5200      1854
    57.5400      1766
    57.5600      1750
    57.5800      1770
    57.6000      1778
    57.6200      1862
    57.6400      1850
    57.6600      1976
    57.6800      1948
    57.7000      1958
    57.7200      2076
    57.7400      2060
    57.7600      2072
    57.7800      1996
    57.8000      1956
    57.8200      1874
    57.8400      1786
    57.8600      1690
    57.8800      1612
    57.9000      1478
    57.9200      1512
    57.9400      1390
    57.9600      1274
    57.9800      1228
    58.0000      1104
    58.0200      1128
    58.0400       996
    58.0600       912
    58.0800       976
    58.1000       858
    58.1200       946
    58.1400       946
    58.1600       964
    58.1800       962
    58.2000      1008
    58.2200       954
    58.2400      1022
    58.2600      1106
    58.2800      1146
    58.3000      1300
    58.3200      1418
    58.3400      1436
    58.3600      1506
    58.3800      1680
    58.4000      1730
    58.4200      1944
    58.4400      2042
    58.4600      2224
    58.4800      2470
    58.5000      2494
    58.5200      2608
    58.5400      2706
    58.5600      2712
    58.5800      2934
    58.6000      3042
    58.6200      3256
    58.6400      3346
    58.6600      3488
    58.6800      3696
    58.7000      3722
    58.7200      3880
    58.7400      3812
    58.7600      3906
    58.7800      3800
    58.8000      3626
    58.8200      3470
    58.8400      3400
    58.8600      3258
    58.8800      2960
    58.9000      2894
    58.9200      2600
    58.9400      2530
    58.9600      2358
    58.9800      2114
    59.0000      1880
    59.0200      1690
    59.0400      1452
    59.0600      1404
    59.0800      1258
    59.1000      1190
    59.1200      1060
    59.1400      1004
    59.1600       894
    59.1800       804
    59.2000       814
    59.2200       734
    59.2400       690
    59.2600       682
    59.2800       640
    59.3000       632
    59.3200       536
    59.3400       534
    59.3600       574
    59.3800       536
    59.4000       536
    59.4200       510
    59.4400       488
    59.4600       490
    59.4800       470
    59.5000       452
    59.5200       430
    59.5400       438
    59.5600       432
    59.5800       412
    59.6000       416
    59.6200       428
    59.6400       376
    59.6600       380
    59.6800       402
    59.7000       414
    59.7200       420
    59.7400       386
    59.7600       364
    59.7800       404
    59.8000       366
    59.8200       368
    59.8400       392
    59.8600       396
    59.8800       356
    59.9000       356
    59.9200       370
    59.9400       372
    59.9600       400
    59.9800       390
    60.0000       358
    60.0200       348
    60.0400       370
    60.0600       344
    60.0800       350
    60.1000       358
    60.1200       366
    60.1400       370
    60.1600       376
    60.1800       350
    60.2000       360
    60.2200       334
    60.2400       356
    60.2600       392
    60.2800       334
    60.3000       368
    60.3200       390
    60.3400       352
    60.3600       368
    60.3800       336
    60.4000       360
    60.4200       396
    60.4400       384
    60.4600       396
    60.4800       384
    60.5000       340
    60.5200       350
    60.5400       386
    60.5600       406
    60.5800       374
    60.6000       400
    60.6200       366
    60.6400       378
    60.6600       366
    60.6800       366
    60.7000       374
    60.7200       386
    60.7400       398
    60.7600       390
    60.7800       372
    60.8000       444
    60.8200       422
    60.8400       400
    60.8600       410
    60.8800       416
    60.9000       414
    60.9200       466
    60.9400       444
    60.9600       460
    60.9800       506
    61.0000       510
    61.0200       462
    61.0400       566
    61.0600       512
    61.0800       544
    61.1000       512
    61.1200       608
    61.1400       548
    61.1600       570
    61.1800       616
    61.2000       550
    61.2200       574
    61.2400       564
    61.2600       520
    61.2800       550
    61.3000       550
    61.3200       554
    61.3400       560
    61.3600       538
    61.3800       560
    61.4000       526
    61.4200       584
    61.4400       582
    61.4600       584
    61.4800       566
    61.5000       576
    61.5200       598
    61.5400       598
    61.5600       600
    61.5800       582
    61.6000       612
    61.6200       566
    61.6400       578
    61.6600       608
    61.6800       568
    61.7000       512
    61.7200       560
    61.7400       532
    61.7600       494
    61.7800       538
    61.8000       572
    61.8200       524
    61.8400       494
    61.8600       552
    61.8800       528
    61.9000       522
    61.9200       556
    61.9400       564
    61.9600       584
    61.9800       588
    62.0000       576
    62.0200       616
    62.0400       634
    62.0600       594
    62.0800       680
    62.1000       622
    62.1200       622
    62.1400       612
    62.1600       618
    62.1800       612
    62.2000       648
    62.2200       590
    62.2400       552
    62.2600       578
    62.2800       590
    62.3000       566
    62.3200       588
    62.3400       594
    62.3600       542
    62.3800       520
    62.4000       526
    62.4200       498
    62.4400       526
    62.4600       494
    62.4800       490
    62.5000       450
    62.5200       502
    62.5400       430
    62.5600       404
    62.5800       420
    62.6000       400
    62.6200       404
    62.6400       410
    62.6600       388
    62.6800       372
    62.7000       372
    62.7200       350
    62.7400       344
    62.7600       330
    62.7800       320
    62.8000       302
    62.8200       344
    62.8400       302
    62.8600       276
    62.8800       260
    62.9000       244
    62.9200       270
    62.9400       260
    62.9600       272
    62.9800       296
    63.0000       252
    63.0200       250
    63.0400       280
    63.0600       264
    63.0800       252
    63.1000       238
    63.1200       258
    63.1400       228
    63.1600       256
    63.1800       214
    63.2000       240
    63.2200       242
    63.2400       232
    63.2600       222
    63.2800       234
    63.3000       252
    63.3200       254
    63.3400       228
    63.3600       242
    63.3800       246
    63.4000       256
    63.4200       232
    63.4400       242
    63.4600       240
    63.4800       232
    63.5000       238
    63.5200       262
    63.5400       248
    63.5600       258
    63.5800       276
    63.6000       288
    63.6200       310
    63.6400       344
    63.6600       340
    63.6800       312
    63.7000       402
    63.7200       354
    63.7400       394
    63.7600       440
    63.7800       470
    63.8000       490
    63.8200       526
    63.8400       486
    63.8600       484
    63.8800       500
    63.9000       462
    63.9200       536
    63.9400       476
    63.9600       484
    63.9800       456
    64.0000       456
    64.0200       400
    64.0400       420
    64.0600       386
    64.0800       396
    64.1000       370
    64.1200       302
    64.1400       340
    64.1600       302
    64.1800       284
    64.2000       270
    64.2200       270
    64.2400       250
    64.2600       252
    64.2800       238
    64.3000       214
    64.3200       222
    64.3400       258
    64.3600       244
    64.3800       236
    64.4000       230
    64.4200       246
    64.4400       258
    64.4600       262
    64.4800       240
    64.5000       228
    64.5200       242
    64.5400       216
    64.5600       228
    64.5800       220
    64.6000       198
    64.6200       230
    64.6400       234
    64.6600       214
    64.6800       208
    64.7000       244
    64.7200       254
    64.7400       210
    64.7600       226
    64.7800       246
    64.8000       254
    64.8200       246
    64.8400       252
    64.8600       250
    64.8800       260
    64.9000       246
    64.9200       242
    64.9400       282
    64.9600       274
    64.9800       262
    65.0000       296
    65.0200       302
    65.0400       314
    65.0600       304
    65.0800       296
    65.1000       360
    65.1200       374
    65.1400       382
    65.1600       352
    65.1800       400
    65.2000       454
    65.2200       438
    65.2400       456
    65.2600       464
    65.2800       470
    65.3000       482
    65.3200       462
    65.3400       444
    65.3600       486
    65.3800       494
    65.4000       426
    65.4200       454
    65.4400       444
    65.4600       418
    65.4800       430
    65.5000       388
    65.5200       392
    65.5400       382
    65.5600       368
    65.5800       334
    65.6000       344
    65.6200       296
    65.6400       304
    65.6600       290
    65.6800       292
    65.7000       310
    65.7200       266
    65.7400       234
    65.7600       236
    65.7800       232
    65.8000       260
    65.8200       244
    65.8400       246
    65.8600       244
    65.8800       276
    65.9000       250
    65.9200       256
    65.9400       244
    65.9600       244
    65.9800       240
    66.0000       246
    66.0200       264
    66.0400       270
    66.0600       264
    66.0800       236
    66.1000       258
    66.1200       254
    66.1400       290
    66.1600       274
    66.1800       288
    66.2000       286
    66.2200       284
    66.2400       256
    66.2600       314
    66.2800       296
    66.3000       278
    66.3200       282
    66.3400       310
    66.3600       306
    66.3800       310
    66.4000       326
    66.4200       384
    66.4400       340
    66.4600       352
    66.4800       420
    66.5000       360
    66.5200       376
    66.5400       420
    66.5600       430
    66.5800       430
    66.6000       446
    66.6200       480
    66.6400       458
    66.6600       522
    66.6800       510
    66.7000       506
    66.7200       584
    66.7400       572
    66.7600       572
    66.7800       584
    66.8000       674
    66.8200       726
    66.8400       648
    66.8600       706
    66.8800       732
    66.9000       730
    66.9200       722
    66.9400       748
    66.9600       666
    66.9800       646
    67.0000       666
    67.0200       622
    67.0400       580
    67.0600       580
    67.0800       564
    67.1000       546
    67.1200       492
    67.1400       518
    67.1600       492
    67.1800       414
    67.2000       406
    67.2200       412
    67.2400       412
    67.2600       402
    67.2800       402
    67.3000       356
    67.3200       368
    67.3400       352
    67.3600       318
    67.3800       328
    67.4000       326
    67.4200       336
    67.4400       326
    67.4600       308
    67.4800       320
    67.5000       370
    67.5200       324
    67.5400       334
    67.5600       320
    67.5800       338
    67.6000       360
    67.6200       340
    67.6400       336
    67.6600       344
    67.6800       400
    67.7000       370
    67.7200       400
    67.7400       410
    67.7600       418
    67.7800       448
    67.8000       450
    67.8200       460
    67.8400       506
    67.8600       524
    67.8800       534
    67.9000       586
    67.9200       600
    67.9400       674
    67.9600       744
    67.9800       734
    68.0000       846
    68.0200       964
    68.0400      1008
    68.0600      1106
    68.0800      1210
    68.1000      1210
    68.1200      1320
    68.1400      1364
    68.1600      1448
    68.1800      1388
    68.2000      1406
    68.2200      1426
    68.2400      1378
    68.2600      1356
    68.2800      1312
    68.3000      1244
    68.3200      1382
    68.3400      1312
    68.3600      1160
    68.3800      1130
    68.4000      1020
    68.4200      1018
    68.4400       942
    68.4600       962
    68.4800       864
    68.5000       846
    68.5200       776
    68.5400       754
    68.5600       712
    68.5800       720
    68.6000       668
    68.6200       702
    68.6400       622
    68.6600       680
    68.6800       612
    68.7000       608
    68.7200       536
    68.7400       554
    68.7600       540
    68.7800       522
    68.8000       446
    68.8200       480
    68.8400       474
    68.8600       458
    68.8800       466
    68.9000       442
    68.9200       428
    68.9400       424
    68.9600       398
    68.9800       394
    69.0000       396
    69.0200       396
    69.0400       410
    69.0600       362
    69.0800       384
    69.1000       368
    69.1200       396
    69.1400       382
    69.1600       408
    69.1800       430
    69.2000       436
    69.2200       426
    69.2400       490
    69.2600       462
    69.2800       464
    69.3000       466
    69.3200       510
    69.3400       488
    69.3600       592
    69.3800       566
    69.4000       616
    69.4200       600
    69.4400       638
    69.4600       592
    69.4800       572
    69.5000       576
    69.5200       550
    69.5400       566
    69.5600       558
    69.5800       546
    69.6000       508
    69.6200       436
    69.6400       494
    69.6600       472
    69.6800       440
    69.7000       406
    69.7200       400
    69.7400       370
    69.7600       384
    69.7800       334
    69.8000       338
    69.8200       278
    69.8400       294
    69.8600       304
    69.8800       280
    69.9000       262
    69.9200       256
    69.9400       266
    69.9600       276
    69.9800       276
    70.0000       234
    70.0200       246
    70.0400       220
    70.0600       218
    70.0800       222
    70.1000       212
    70.1200       252
    70.1400       228
    70.1600       224
    70.1800       232
    70.2000       234
    70.2200       196
    70.2400       218
    70.2600       246
    70.2800       220
    70.3000       232
    70.3200       220
    70.3400       224
    70.3600       208
    70.3800       230
    70.4000       236
    70.4200       232
    70.4400       234
    70.4600       234
    70.4800       218
    70.5000       248
    70.5200       268
    70.5400       260
    70.5600       292
    70.5800       270
    70.6000       282
    70.6200       272
    70.6400       290
    70.6600       280
    70.6800       258
    70.7000       248
    70.7200       258
    70.7400       248
    70.7600       244
    70.7800       236
    70.8000       244
    70.8200       270
    70.8400       252
    70.8600       238
    70.8800       246
    70.9000       260
    70.9200       274
    70.9400       232
    70.9600       230
    70.9800       240
    71.0000       256
    71.0200       250
    71.0400       244
    71.0600       272
    71.0800       274
    71.1000       270
    71.1200       302
    71.1400       290
    71.1600       302
    71.1800       318
    71.2000       340
    71.2200       352
    71.2400       318
    71.2600       374
    71.2800       412
    71.3000       414
    71.3200       490
    71.3400       502
    71.3600       556
    71.3800       538
    71.4000       546
    71.4200       596
    71.4400       606
    71.4600       634
    71.4800       656
    71.5000       650
    71.5200       696
    71.5400       674
    71.5600       688
    71.5800       712
    71.6000       760
    71.6200       736
    71.6400       640
    71.6600       700
    71.6800       702
    71.7000       692
    71.7200       692
    71.7400       664
    71.7600       676
    71.7800       640
    71.8000       634
    71.8200       564
    71.8400       588
    71.8600       558
    71.8800       520
    71.9000       552
    71.9200       528
    71.9400       508
    71.9600       558
    71.9800       534
    72.0000       500
    72.0200       500
    72.0400       488
    72.0600       458
    72.0800       486
    72.1000       536
    72.1200       502
    72.1400       508
    72.1600       522
    72.1800       518
    72.2000       482
    72.2200       532
    72.2400       464
    72.2600       562
    72.2800       540
    72.3000       550
    72.3200       532
    72.3400       504
    72.3600       508
    72.3800       488
    72.4000       486
    72.4200       496
    72.4400       452
    72.4600       468
    72.4800       422
    72.5000       436
    72.5200       420
    72.5400       392
    72.5600       398
    72.5800       356
    72.6000       406
    72.6200       358
    72.6400       368
    72.6600       342
    72.6800       294
    72.7000       346
    72.7200       288
    72.7400       306
    72.7600       284
    72.7800       342
    72.8000       312
    72.8200       284
    72.8400       332
    72.8600       340
    72.8800       336
    72.9000       330
    72.9200       326
    72.9400       326
    72.9600       288
    72.9800       298
    73.0000       286
    73.0200       334
    73.0400       282
    73.0600       278
    73.0800       296
    73.1000       248
    73.1200       264
    73.1400       260
    73.1600       218
    73.1800       248
    73.2000       236
    73.2200       264
    73.2400       244
    73.2600       238
    73.2800       204
    73.3000       240
    73.3200       202
    73.3400       210
    73.3600       232
    73.3800       226
    73.4000       214
    73.4200       216
    73.4400       226
    73.4600       200
    73.4800       218
    73.5000       214
    73.5200       196
    73.5400       234
    73.5600       214
    73.5800       192
    73.6000       214
    73.6200       214
    73.6400       208
    73.6600       218
    73.6800       256
    73.7000       266
    73.7200       224
    73.7400       218
    73.7600       236
    73.7800       232
    73.8000       226
    73.8200       248
    73.8400       224
    73.8600       192
    73.8800       258
    73.9000       214
    73.9200       224
    73.9400       256
    73.9600       236
    73.9800       266
    74.0000       300
    74.0200       276
    74.0400       284
    74.0600       266
    74.0800       306
    74.1000       292
    74.1200       322
    74.1400       300
    74.1600       322
    74.1800       306
    74.2000       308
    74.2200       322
    74.2400       312
    74.2600       280
    74.2800       298
    74.3000       260
    74.3200       306
    74.3400       264
    74.3600       266
    74.3800       258
    74.4000       282
    74.4200       226
    74.4400       294
    74.4600       246
    74.4800       212
    74.5000       218
    74.5200       216
    74.5400       228
    74.5600       214
    74.5800       230
    74.6000       192
    74.6200       210
    74.6400       192
    74.6600       202
    74.6800       246
    74.7000       178
    74.7200       216
    74.7400       218
    74.7600       202
    74.7800       198
    74.8000       218
    74.8200       184
    74.8400       204
    74.8600       186
    74.8800       210
    74.9000       206
    74.9200       192
    74.9400       202
    74.9600       224
    74.9800       216
    75.0000       216
    75.0200       216
    75.0400       194
    75.0600       186
    75.0800       188
    75.1000       202
    75.1200       206
    75.1400       196
    75.1600       238
    75.1800       166
    75.2000       196
    75.2200       190
    75.2400       200
    75.2600       198
    75.2800       178
    75.3000       216
    75.3200       196
    75.3400       206
    75.3600       212
    75.3800       210
    75.4000       232
    75.4200       224
    75.4400       180
    75.4600       202
    75.4800       194
    75.5000       228
    75.5200       212
    75.5400       240
    75.5600       224
    75.5800       236
    75.6000       242
    75.6200       234
    75.6400       254
    75.6600       278
    75.6800       300
    75.7000       302
    75.7200       306
    75.7400       316
    75.7600       316
    75.7800       338
    75.8000       324
    75.8200       354
    75.8400       328
    75.8600       328
    75.8800       316
    75.9000       354
    75.9200       360
    75.9400       366
    75.9600       350
    75.9800       340
    76.0000       336
    76.0200       330
    76.0400       340
    76.0600       332
    76.0800       322
    76.1000       298
    76.1200       292
    76.1400       298
    76.1600       306
    76.1800       314
    76.2000       296
    76.2200       298
    76.2400       312
    76.2600       338
    76.2800       304
    76.3000       320
    76.3200       356
    76.3400       320
    76.3600       362
    76.3800       356
    76.4000       354
    76.4200       346
    76.4400       350
    76.4600       376
    76.4800       338
    76.5000       352
    76.5200       352
    76.5400       408
    76.5600       372
    76.5800       386
    76.6000       392
    76.6200       382
    76.6400       396
    76.6600       406
    76.6800       468
    76.7000       440
    76.7200       424
    76.7400       410
    76.7600       414
    76.7800       412
    76.8000       392
    76.8200       336
    76.8400       356
    76.8600       400
    76.8800       338
    76.9000       352
    76.9200       364
    76.9400       332
    76.9600       344
    76.9800       374
    77.0000       328
    77.0200       312
    77.0400       348
    77.0600       348
    77.0800       348
    77.1000       340
    77.1200       318
    77.1400       340
    77.1600       318
    77.1800       360
    77.2000       388
    77.2200       378
    77.2400       348
    77.2600       386
    77.2800       424
    77.3000       414
    77.3200       424
    77.3400       458
    77.3600       484
    77.3800       490
    77.4000       520
    77.4200       542
    77.4400       612
    77.4600       644
    77.4800       644
    77.5000       724
    77.5200       790
    77.5400       844
    77.5600       868
    77.5800       884
    77.6000       912
    77.6200       974
    77.6400       982
    77.6600       988
    77.6800       952
    77.7000       952
    77.7200       922
    77.7400       886
    77.7600       868
    77.7800       874
    77.8000       918
    77.8200       838
    77.8400       886
    77.8600       776
    77.8800       782
    77.9000       760
    77.9200       678
    77.9400       652
    77.9600       600
    77.9800       586
    78.0000       580
    78.0200       520
    78.0400       496
    78.0600       498
    78.0800       492
    78.1000       450
    78.1200       406
    78.1400       440
    78.1600       416
    78.1800       426
    78.2000       408
    78.2200       384
    78.2400       396
    78.2600       322
    78.2800       404
    78.3000       372
    78.3200       376
    78.3400       382
    78.3600       380
    78.3800       416
    78.4000       414
    78.4200       408
    78.4400       408
    78.4600       426
    78.4800       430
    78.5000       434
    78.5200       462
    78.5400       472
    78.5600       456
    78.5800       430
    78.6000       492
    78.6200       428
    78.6400       444
    78.6600       472
    78.6800       486
    78.7000       496
    78.7200       436
    78.7400       452
    78.7600       458
    78.7800       408
    78.8000       416
    78.8200       396
    78.8400       414
    78.8600       460
    78.8800       374
    78.9000       376
    78.9200       342
    78.9400       368
    78.9600       348
    78.9800       334
    79.0000       316
    79.0200       314
    79.0400       304
    79.0600       306
    79.0800       306
    79.1000       288
    79.1200       290
    79.1400       296
    79.1600       284
    79.1800       276
    79.2000       310
    79.2200       264
    79.2400       224
    79.2600       234
    79.2800       238
    79.3000       240
    79.3200       234
    79.3400       234
    79.3600       260
    79.3800       262
    79.4000       254
    79.4200       210
    79.4400       268
    79.4600       240
    79.4800       248
    79.5000       248
    79.5200       236
    79.5400       270
    79.5600       240
    79.5800       272
    79.6000       298
    79.6200       252
    79.6400       272
    79.6600       274
    79.6800       286
    79.7000       274
    79.7200       310
    79.7400       260
    79.7600       282
    79.7800       272
    79.8000       282
    79.8200       250
    79.8400       264
    79.8600       270
    79.8800       302
    79.9000       288
    79.9200       268
    79.9400       286
    79.9600       242
    79.9800       268
    80.0000       256
    80.0200       230
    80.0400       274
    80.0600       238
    80.0800       248
    80.1000       268
    80.1200       246
    80.1400       234
    80.1600       252
    80.1800       226
    80.2000       258
    80.2200       236
    80.2400       246
    80.2600       262
    80.2800       224
    80.3000       246
    80.3200       254
    80.3400       208
    80.3600       228
    80.3800       250
    80.4000       228
    80.4200       218
    80.4400       280
    80.4600       230
    80.4800       214
    80.5000       212
    80.5200       236
    80.5400       200
    80.5600       220
    80.5800       212
    80.6000       204
    80.6200       222
    80.6400       218
    80.6600       212
    80.6800       218
    80.7000       202
    80.7200       210
    80.7400       208
    80.7600       198
    80.7800       200
    80.8000       200
    80.8200       186
    80.8400       196
    80.8600       210
    80.8800       192
    80.9000       202
    80.9200       186
    80.9400       226
    80.9600       212
    80.9800       224
    81.0000       200
    81.0200       214
    81.0400       218
    81.0600       204
    81.0800       224
    81.1000       230
    81.1200       230
    81.1400       276
    81.1600       220
    81.1800       236
    81.2000       256
    81.2200       250
    81.2400       230
    81.2600       264
    81.2800       278
    81.3000       274
    81.3200       292
    81.3400       262
    81.3600       286
    81.3800       240
    81.4000       284
    81.4200       280
    81.4400       292
    81.4600       250
    81.4800       238
    81.5000       272
    81.5200       246
    81.5400       262
    81.5600       270
    81.5800       256
    81.6000       260
    81.6200       280
    81.6400       256
    81.6600       262
    81.6800       254
    81.7000       262
    81.7200       264
    81.7400       250
    81.7600       252
    81.7800       212
    81.8000       264
    81.8200       282
    81.8400       258
    81.8600       246
    81.8800       256
    81.9000       274
    81.9200       272
    81.9400       256
    81.9600       282
    81.9800       292
    82.0000       284
    82.0200       258
    82.0400       282
    82.0600       258
    82.0800       282
    82.1000       316
    82.1200       280
    82.1400       290
    82.1600       306
    82.1800       298
    82.2000       340
    82.2200       324
    82.2400       346
    82.2600       358
    82.2800       338
    82.3000       338
    82.3200       322
    82.3400       354
    82.3600       352
    82.3800       326
    82.4000       288
    82.4200       310
    82.4400       342
    82.4600       328
    82.4800       356
    82.5000       348
    82.5200       376
    82.5400       370
    82.5600       382
    82.5800       402
    82.6000       384
    82.6200       328
    82.6400       374
    82.6600       398
    82.6800       386
    82.7000       404
    82.7200       412
    82.7400       434
    82.7600       408
    82.7800       454
    82.8000       422
    82.8200       430
    82.8400       418
    82.8600       416
    82.8800       424
    82.9000       380
    82.9200       404
    82.9400       412
    82.9600       402
    82.9800       358
    83.0000       376
    83.0200       388
    83.0400       430
    83.0600       404
    83.0800       394
    83.1000       432
    83.1200       404
    83.1400       378
    83.1600       416
    83.1800       394
    83.2000       378
    83.2200       430
    83.2400       392
    83.2600       380
    83.2800       400
    83.3000       376
    83.3200       396
    83.3400       390
    83.3600       376
    83.3800       374
    83.4000       352
    83.4200       376
    83.4400       388
    83.4600       346
    83.4800       398
    83.5000       360
    83.5200       352
    83.5400       374
    83.5600       338
    83.5800       330
    83.6000       312
    83.6200       294
    83.6400       296
    83.6600       306
    83.6800       344
    83.7000       316
    83.7200       332
    83.7400       294
    83.7600       290
    83.7800       300
    83.8000       298
    83.8200       290
    83.8400       282
    83.8600       298
    83.8800       288
    83.9000       310
    83.9200       324
    83.9400       296
    83.9600       284
    83.9800       270
    84.0000       262
    84.0200       272
    84.0400       268
    84.0600       310
    84.0800       300
    84.1000       270
    84.1200       270
    84.1400       234
    84.1600       264
    84.1800       286
    84.2000       310
    84.2200       252
    84.2400       244
    84.2600       262
    84.2800       270
    84.3000       262
    84.3200       252
    84.3400       246
    84.3600       252
    84.3800       238
    84.4000       244
    84.4200       228
    84.4400       234
    84.4600       262
    84.4800       196
    84.5000       214
    84.5200       234
    84.5400       210
    84.5600       220
    84.5800       208
    84.6000       226
    84.6200       222
    84.6400       218
    84.6600       198
    84.6800       218
    84.7000       216
    84.7200       214
    84.7400       224
    84.7600       210
    84.7800       248
    84.8000       248
    84.8200       192
    84.8400       226
    84.8600       224
    84.8800       234
    84.9000       220
    84.9200       180
    84.9400       220
    84.9600       216
    84.9800       234
    85.0000       216
    85.0200       216
    85.0400       200
    85.0600       198
    85.0800       188
    85.1000       210
    85.1200       236
    85.1400       202
    85.1600       236
    85.1800       196
    85.2000       240
    85.2200       218
    85.2400       206
    85.2600       214
    85.2800       192
    85.3000       210
    85.3200       228
    85.3400       244
    85.3600       240
    85.3800       258
    85.4000       248
    85.4200       270
    85.4400       272
    85.4600       254
    85.4800       248
    85.5000       272
    85.5200       272
    85.5400       260
    85.5600       272
    85.5800       264
    85.6000       284
    85.6200       256
    85.6400       256
    85.6600       272
    85.6800       244
    85.7000       264
    85.7200       228
    85.7400       240
    85.7600       256
    85.7800       248
    85.8000       210
    85.8200       252
    85.8400       250
    85.8600       222
    85.8800       216
    85.9000       204
    85.9200       204
    85.9400       206
    85.9600       210
    85.9800       210
    86.0000       200
    86.0200       178
    86.0400       180
    86.0600       214
    86.0800       204
    86.1000       204
    86.1200       204
    86.1400       218
    86.1600       198
    86.1800       212
    86.2000       208
    86.2200       196
    86.2400       190
    86.2600       184
    86.2800       190
    86.3000       188
    86.3200       198
    86.3400       210
    86.3600       198
    86.3800       184
    86.4000       214
    86.4200       198
    86.4400       220
    86.4600       212
    86.4800       212
    86.5000       202
    86.5200       208
    86.5400       222
    86.5600       208
    86.5800       246
    86.6000       248
    86.6200       260
    86.6400       236
    86.6600       244
    86.6800       278
    86.7000       252
    86.7200       266
    86.7400       270
    86.7600       282
    86.7800       272
    86.8000       284
    86.8200       352
    86.8400       322
    86.8600       334
    86.8800       346
    86.9000       346
    86.9200       334
    86.9400       342
    86.9600       332
    86.9800       364
    87.0000       336
    87.0200       382
    87.0400       364
    87.0600       396
    87.0800       404
    87.1000       384
    87.1200       406
    87.1400       420
    87.1600       418
    87.1800       422
    87.2000       402
    87.2200       394
    87.2400       424
    87.2600       448
    87.2800       450
    87.3000       486
    87.3200       510
    87.3400       440
    87.3600       514
    87.3800       452
    87.4000       456
    87.4200       486
    87.4400       474
    87.4600       484
    87.4800       496
    87.5000       476
    87.5200       464
    87.5400       480
    87.5600       440
    87.5800       424
    87.6000       442
    87.6200       464
    87.6400       478
    87.6600       480
    87.6800       448
    87.7000       452
    87.7200       460
    87.7400       442
    87.7600       446
    87.7800       406
    87.8000       430
    87.8200       394
    87.8400       390
    87.8600       406
    87.8800       384
    87.9000       390
    87.9200       390
    87.9400       386
    87.9600       388
    87.9800       380
    88.0000       372
    88.0200       414
    88.0400       352
    88.0600       358
    88.0800       384
    88.1000       350
    88.1200       314
    88.1400       338
    88.1600       320
    88.1800       336
    88.2000       354
    88.2200       302
    88.2400       304
    88.2600       322
    88.2800       306
    88.3000       286
    88.3200       300
    88.3400       298
    88.3600       302
    88.3800       298
    88.4000       288
    88.4200       292
    88.4400       288
    88.4600       272
    88.4800       254
    88.5000       274
    88.5200       268
    88.5400       260
    88.5600       276
    88.5800       294
    88.6000       264
    88.6200       270
    88.6400       310
    88.6600       270
    88.6800       264
    88.7000       268
    88.7200       272
    88.7400       276
    88.7600       272
    88.7800       296
    88.8000       286
    88.8200       266
    88.8400       258
    88.8600       236
    88.8800       224
    88.9000       278
    88.9200       264
    88.9400       228
    88.9600       282
    88.9800       262
    89.0000       242
    89.0200       256
    89.0400       262
    89.0600       238
    89.0800       236
    89.1000       274
    89.1200       204
    89.1400       244
    89.1600       222
    89.1800       252
    89.2000       254
    89.2200       222
    89.2400       280
    89.2600       258
    89.2800       220
    89.3000       248
    89.3200       234
    89.3400       242
    89.3600       284
    89.3800       262
    89.4000       266
    89.4200       264
    89.4400       306
    89.4600       278
    89.4800       284
    89.5000       258
    89.5200       266
    89.5400       272
    89.5600       250
    89.5800       260
    89.6000       276
    89.6200       310
    89.6400       276
    89.6600       264
    89.6800       300
    89.7000       254
    89.7200       282
    89.7400       300
    89.7600       268
    89.7800       278
    89.8000       294
    89.8200       286
    89.8400       274
    89.8600       290
    89.8800       294
    89.9000       256
    89.9200       306
    89.9400       302
    89.9600       292
    89.9800       322
    90.0000       312
