    10.0000       334
    10.0200       366
    10.0400       354
    10.0600       390
    10.0800       364
    10.1000       322
    10.1200       350
    10.1400       368
    10.1600       332
    10.1800       370
    10.2000       366
    10.2200       356
    10.2400       356
    10.2600       326
    10.2800       346
    10.3000       348
    10.3200       330
    10.3400       364
    10.3600       338
    10.3800       328
    10.4000       346
    10.4200       338
    10.4400       342
    10.4600       342
    10.4800       300
    10.5000       344
    10.5200       368
    10.5400       342
    10.5600       330
    10.5800       326
    10.6000       362
    10.6200       338
    10.6400       326
    10.6600       348
    10.6800       290
    10.7000       338
    10.7200       334
    10.7400       352
    10.7600       304
    10.7800       320
    10.8000       356
    10.8200       324
    10.8400       322
    10.8600       344
    10.8800       300
    10.9000       312
    10.9200       344
    10.9400       308
    10.9600       320
    10.9800       350
    11.0000       346
    11.0200       358
    11.0400       332
    11.0600       292
    11.0800       360
    11.1000       312
    11.1200       338
    11.1400       346
    11.1600       300
    11.1800       332
    11.2000       330
    11.2200       310
    11.2400       330
    11.2600       344
    11.2800       328
    11.3000       338
    11.3200       344
    11.3400       330
    11.3600       308
    11.3800       324
    11.4000       320
    11.4200       330
    11.4400       336
    11.4600       296
    11.4800       312
    11.5000       312
    11.5200       312
    11.5400       324
    11.5600       326
    11.5800       334
    11.6000       334
    11.6200       318
    11.6400       328
    11.6600       360
    11.6800       324
    11.7000       328
    11.7200       356
    11.7400       342
    11.7600       336
    11.7800       348
    11.8000       382
    11.8200       414
    11.8400       370
    11.8600       382
    11.8800       360
    11.9000       436
    11.9200       394
    11.9400       382
    11.9600       446
    11.9800       422
    12.0000       454
    12.0200       516
    12.0400       518
    12.0600       556
    12.0800       584
    12.1000       624
    12.1200       684
    12.1400       716
    12.1600       806
    12.1800       804
    12.2000       882
    12.2200       878
    12.2400       778
    12.2600       744
    12.2800       614
    12.3000       512
    12.3200       490
    12.3400       398
    12.3600       398
    12.3800       386
    12.4000       328
    12.4200       324
    12.4400       318
    12.4600       294
    12.4800       322
    12.5000       298
    12.5200       266
    12.5400       328
    12.5600       294
    12.5800       310
    12.6000       314
    12.6200       292
    12.6400       310
    12.6600       268
    12.6800       278
    12.7000       280
    12.7200       296
    12.7400       290
    12.7600       284
    12.7800       302
    12.8000       294
    12.8200       294
    12.8400       302
    12.8600       284
    12.8800       276
    12.9000       260
    12.9200       300
    12.9400       262
    12.9600       288
    12.9800       298
    13.0000       246
    13.0200       254
    13.0400       254
    13.0600       282
    13.0800       248
    13.1000       280
    13.1200       296
    13.1400       274
    13.1600       262
    13.1800       314
    13.2000       278
    13.2200       248
    13.2400       310
    13.2600       276
    13.2800       260
    13.3000       304
    13.3200       260
    13.3400       280
    13.3600       288
    13.3800       274
    13.4000       282
    13.4200       276
    13.4400       242
    13.4600       262
    13.4800       266
    13.5000       254
    13.5200       244
    13.5400       276
    13.5600       252
    13.5800       274
    13.6000       282
    13.6200       272
    13.6400       254
    13.6600       260
    13.6800       238
    13.7000       278
    13.7200       254
    13.7400       268
    13.7600       252
    13.7800       262
    13.8000       248
    13.8200       248
    13.8400       264
    13.8600       286
    13.8800       276
    13.9000       256
    13.9200       264
    13.9400       292
    13.9600       254
    13.9800       252
    14.0000       238
    14.0200       258
    14.0400       264
    14.0600       268
    14.0800       240
    14.1000       258
    14.1200       250
    14.1400       250
    14.1600       256
    14.1800       272
    14.2000       252
    14.2200       248
    14.2400       256
    14.2600       232
    14.2800       280
    14.3000       268
    14.3200       260
    14.3400       286
    14.3600       244
    14.3800       238
    14.4000       260
    14.4200       274
    14.4400       242
    14.4600       290
    14.4800       230
    14.5000       266
    14.5200       270
    14.5400       260
    14.5600       248
    14.5800       254
    14.6000       264
    14.6200       282
    14.6400       290
    14.6600       298
    14.6800       314
    14.7000       274
    14.7200       296
    14.7400       300
    14.7600       284
    14.7800       328
    14.8000       326
    14.8200       344
    14.8400       366
    14.8600       394
    14.8800       372
    14.9000       380
    14.9200       464
    14.9400       476
    14.9600       474
    14.9800       510
    15.0000       582
    15.0200       654
    15.0400       694
    15.0600       730
    15.0800       804
    15.1000       926
    15.1200       950
    15.1400      1042
    15.1600      1172
    15.1800      1262
    15.2000      1304
    15.2200      1326
    15.2400      1288
    15.2600      1198
    15.2800       898
    15.3000       736
    15.3200       594
    15.3400       484
    15.3600       402
    15.3800       384
    15.4000       312
    15.4200       296
    15.4400       278
    15.4600       260
    15.4800       304
    15.5000       284
    15.5200       256
    15.5400       288
    15.5600       260
    15.5800       288
    15.6000       222
    15.6200       238
    15.6400       248
    15.6600       232
    15.6800       284
    15.7000       220
    15.7200       236
    15.7400       266
    15.7600       238
    15.7800       228
    15.8000       264
    15.8200       220
    15.8400       252
    15.8600       260
    15.8800       248
    15.9000       230
    15.9200       240
    15.9400       252
    15.9600       266
    15.9800       256
    16.0000       258
    16.0200       222
    16.0400       276
    16.0600       262
    16.0800       244
    16.1000       244
    16.1200       276
    16.1400       264
    16.1600       238
    16.1800       232
    16.2000       254
    16.2200       284
    16.2400       274
    16.2600       264
    16.2800       258
    16.3000       286
    16.3200       282
    16.3400       288
    16.3600       312
    16.3800       276
    16.4000       258
    16.4200       278
    16.4400       272
    16.4600       250
    16.4800       256
    16.5000       284
    16.5200       244
    16.5400       304
    16.5600       292
    16.5800       300
    16.6000       272
    16.6200       294
    16.6400       298
    16.6600       310
    16.6800       408
    16.7000       366
    16.7200       408
    16.7400       418
    16.7600       418
    16.7800       502
    16.8000       482
    16.8200       566
    16.8400       596
    16.8600       664
    16.8800       734
    16.9000       846
    16.9200       892
    16.9400      1102
    16.9600      1304
    16.9800      1476
    17.0000      1608
    17.0200      1868
    17.0400      2048
    17.0600      2122
    17.0800      2034
    17.1000      1862
    17.1200      1592
    17.1400      1402
    17.1600      1142
    17.1800      1086
    17.2000       992
    17.2200       984
    17.2400       890
    17.2600       990
    17.2800       842
    17.3000       864
    17.3200       752
    17.3400       664
    17.3600       616
    17.3800       556
    17.4000       482
    17.4200       456
    17.4400       438
    17.4600       392
    17.4800       410
    17.5000       376
    17.5200       394
    17.5400       392
    17.5600       372
    17.5800       362
    17.6000       412
    17.6200       408
    17.6400       444
    17.6600       436
    17.6800       458
    17.7000       490
    17.7200       496
    17.7400       530
    17.7600       620
    17.7800       642
    17.8000       674
    17.8200       682
    17.8400       682
    17.8600       658
    17.8800       622
    17.9000       614
    17.9200       514
    17.9400       434
    17.9600       334
    17.9800       324
    18.0000       292
    18.0200       290
    18.0400       244
    18.0600       260
    18.0800       242
    18.1000       244
    18.1200       220
    18.1400       234
    18.1600       242
    18.1800       222
    18.2000       226
    18.2200       220
    18.2400       230
    18.2600       214
    18.2800       208
    18.3000       228
    18.3200       220
    18.3400       224
    18.3600       232
    18.3800       234
    18.4000       200
    18.4200       232
    18.4400       202
    18.4600       202
    18.4800       184
    18.5000       200
    18.5200       240
    18.5400       234
    18.5600       240
    18.5800       242
    18.6000       214
    18.6200       200
    18.6400       268
    18.6600       238
    18.6800       208
    18.7000       232
    18.7200       210
    18.7400       194
    18.7600       198
    18.7800       208
    18.8000       230
    18.8200       216
    18.8400       238
    18.8600       214
    18.8800       204
    18.9000       202
    18.9200       236
    18.9400       248
    18.9600       232
    18.9800       214
    19.0000       244
    19.0200       268
    19.0400       280
    19.0600       238
    19.0800       290
    19.1000       290
    19.1200       292
    19.1400       324
    19.1600       306
    19.1800       368
    19.2000       364
    19.2200       406
    19.2400       450
    19.2600       452
    19.2800       542
    19.3000       594
    19.3200       650
    19.3400       752
    19.3600       800
    19.3800       974
    19.4000      1086
    19.4200      1242
    19.4400      1528
    19.4600      1682
    19.4800      2026
    19.5000      2300
    19.5200      2462
    19.5400      2746
    19.5600      2690
    19.5800      2588
    19.6000      2230
    19.6200      1850
    19.6400      1432
    19.6600      1122
    19.6800       946
    19.7000       810
    19.7200       766
    19.7400       778
    19.7600       744
    19.7800       824
    19.8000       800
    19.8200       852
    19.8400       992
    19.8600      1078
    19.8800      1152
    19.9000      1368
    19.9200      1616
    19.9400      1744
    19.9600      1932
    19.9800      2084
    20.0000      2152
    20.0200      2004
    20.0400      1804
    20.0600      1568
    20.0800      1280
    20.1000       956
    20.1200       778
    20.1400       626
    20.1600       444
    20.1800       380
    20.2000       406
    20.2200       348
    20.2400       364
    20.2600       334
    20.2800       338
    20.3000       266
    20.3200       306
    20.3400       276
    20.3600       238
    20.3800       266
    20.4000       270
    20.4200       266
    20.4400       250
    20.4600       242
    20.4800       234
    20.5000       250
    20.5200       230
    20.5400       238
    20.5600       240
    20.5800       252
    20.6000       272
    20.6200       270
    20.6400       228
    20.6600       268
    20.6800       244
    20.7000       282
    20.7200       270
    20.7400       278
    20.7600       274
    20.7800       308
    20.8000       264
    20.8200       346
    20.8400       360
    20.8600       370
    20.8800       404
    20.9000       434
    20.9200       472
    20.9400       550
    20.9600       610
    20.9800       632
    21.0000       754
    21.0200       830
    21.0400       976
    21.0600      1110
    21.0800      1360
    21.1000      1550
    21.1200      1756
    21.1400      1996
    21.1600      2306
    21.1800      2570
    21.2000      2648
    21.2200      2730
    21.2400      2724
    21.2600      2580
    21.2800      2252
    21.3000      1982
    21.3200      1572
    21.3400      1310
    21.3600      1048
    21.3800       828
    21.4000       700
    21.4200       592
    21.4400       482
    21.4600       430
    21.4800       376
    21.5000       338
    21.5200       298
    21.5400       324
    21.5600       262
    21.5800       312
    21.6000       238
    21.6200       250
    21.6400       232
    21.6600       248
    21.6800       254
    21.7000       232
    21.7200       234
    21.7400       218
    21.7600       248
    21.7800       200
    21.8000       194
    21.8200       236
    21.8400       214
    21.8600       214
    21.8800       200
    21.9000       220
    21.9200       198
    21.9400       212
    21.9600       196
    21.9800       188
    22.0000       210
    22.0200       202
    22.0400       212
    22.0600       226
    22.0800       220
    22.1000       216
    22.1200       238
    22.1400       242
    22.1600       244
    22.1800       220
    22.2000       204
    22.2200       202
    22.2400       222
    22.2600       210
    22.2800       240
    22.3000       228
    22.3200       218
    22.3400       248
    22.3600       238
    22.3800       260
    22.4000       284
    22.4200       304
    22.4400       290
    22.4600       324
    22.4800       368
    22.5000       364
    22.5200       408
    22.5400       440
    22.5600       502
    22.5800       544
    22.6000       642
    22.6200       688
    22.6400       768
    22.6600       896
    22.6800      1040
    22.7000      1142
    22.7200      1438
    22.7400      1662
    22.7600      2022
    22.7800      2344
    22.8000      2772
    22.8200      3122
    22.8400      3482
    22.8600      3688
    22.8800      3826
    22.9000      3514
    22.9200      3010
    22.9400      2562
    22.9600      2056
    22.9800      1550
    23.0000      1172
    23.0200       936
    23.0400       764
    23.0600       656
    23.0800       570
    23.1000       550
    23.1200       480
    23.1400       450
    23.1600       406
    23.1800       424
    23.2000       422
    23.2200       374
    23.2400       332
    23.2600       318
    23.2800       292
    23.3000       318
    23.3200       242
    23.3400       302
    23.3600       258
    23.3800       286
    23.4000       230
    23.4200       228
    23.4400       278
    23.4600       258
    23.4800       252
    23.5000       262
    23.5200       246
    23.5400       230
    23.5600       248
    23.5800       218
    23.6000       230
    23.6200       246
    23.6400       208
    23.6600       234
    23.6800       224
    23.7000       234
    23.7200       244
    23.7400       232
    23.7600       250
    23.7800       228
    23.8000       236
    23.8200       258
    23.8400       238
    23.8600       270
    23.8800       278
    23.9000       244
    23.9200       246
    23.9400       234
    23.9600       246
    23.9800       274
    24.0000       248
    24.0200       246
    24.0400       226
    24.0600       304
    24.0800       260
    24.1000       278
    24.1200       284
    24.1400       300
    24.1600       296
    24.1800       322
    24.2000       316
    24.2200       340
    24.2400       342
    24.2600       352
    24.2800       410
    24.3000       476
    24.3200       490
    24.3400       562
    24.3600       636
    24.3800       696
    24.4000       808
    24.4200       928
    24.4400      1010
    24.4600      1184
    24.4800      1352
    24.5000      1428
    24.5200      1558
    24.5400      1614
    24.5600      1728
    24.5800      1648
    24.6000      1580
    24.6200      1398
    24.6400      1260
    24.6600      1100
    24.6800      1026
    24.7000       932
    24.7200       886
    24.7400       800
    24.7600       754
    24.7800       688
    24.8000       704
    24.8200       676
    24.8400       578
    24.8600       586
    24.8800       514
    24.9000       504
    24.9200       514
    24.9400       454
    24.9600       400
    24.9800       444
    25.0000       416
    25.0200       448
    25.0400       428
    25.0600       436
    25.0800       498
    25.1000       486
    25.1200       518
    25.1400       514
    25.1600       576
    25.1800       588
    25.2000       658
    25.2200       702
    25.2400       768
    25.2600       830
    25.2800       944
    25.3000      1010
    25.3200      1036
    25.3400      1168
    25.3600      1148
    25.3800      1118
    25.4000      1088
    25.4200       996
    25.4400       940
    25.4600       960
    25.4800       920
    25.5000       926
    25.5200       948
    25.5400       942
    25.5600      1022
    25.5800      1038
    25.6000      1064
    25.6200      1066
    25.6400      1010
    25.6600       902
    25.6800       882
    25.7000       674
    25.7200       618
    25.7400       528
    25.7600       492
    25.7800       466
    25.8000       398
    25.8200       354
    25.8400       372
    25.8600       372
    25.8800       320
    25.9000       334
    25.9200       322
    25.9400       330
    25.9600       326
    25.9800       318
    26.0000       288
    26.0200       268
    26.0400       332
    26.0600       294
    26.0800       290
    26.1000       306
    26.1200       282
    26.1400       250
    26.1600       308
    26.1800       260
    26.2000       292
    26.2200       314
    26.2400       274
    26.2600       298
    26.2800       268
    26.3000       286
    26.3200       268
    26.3400       278
    26.3600       286
    26.3800       332
    26.4000       310
    26.4200       308
    26.4400       306
    26.4600       266
    26.4800       306
    26.5000       316
    26.5200       306
    26.5400       260
    26.5600       298
    26.5800       276
    26.6000       302
    26.6200       308
    26.6400       278
    26.6600       324
    26.6800       290
    26.7000       296
    26.7200       342
    26.7400       328
    26.7600       296
    26.7800       282
    26.8000       276
    26.8200       304
    26.8400       282
    26.8600       272
    26.8800       256
    26.9000       236
    26.9200       260
    26.9400       302
    26.9600       258
    26.9800       272
    27.0000       302
    27.0200       286
    27.0400       284
    27.0600       286
    27.0800       310
    27.1000       314
    27.1200       332
    27.1400       356
    27.1600       384
    27.1800       390
    27.2000       428
    27.2200       402
    27.2400       494
    27.2600       550
    27.2800       598
    27.3000       676
    27.3200       712
    27.3400       866
    27.3600       986
    27.3800      1096
    27.4000      1258
    27.4200      1360
    27.4400      1498
    27.4600      1574
    27.4800      1734
    27.5000      1676
    27.5200      1620
    27.5400      1616
    27.5600      1460
    27.5800      1398
    27.6000      1236
    27.6200      1068
    27.6400       930
    27.6600       818
    27.6800       752
    27.7000       614
    27.7200       576
    27.7400       504
    27.7600       442
    27.7800       436
    27.8000       362
    27.8200       340
    27.8400       364
    27.8600       344
    27.8800       318
    27.9000       270
    27.9200       328
    27.9400       310
    27.9600       286
    27.9800       306
    28.0000       268
    28.0200       236
    28.0400       276
    28.0600       260
    28.0800       254
    28.1000       236
    28.1200       234
    28.1400       270
    28.1600       258
    28.1800       256
    28.2000       248
    28.2200       224
    28.2400       242
    28.2600       268
    28.2800       262
    28.3000       264
    28.3200       242
    28.3400       260
    28.3600       242
    28.3800       250
    28.4000       270
    28.4200       274
    28.4400       284
    28.4600       292
    28.4800       274
    28.5000       288
    28.5200       264
    28.5400       306
    28.5600       250
    28.5800       290
    28.6000       324
    28.6200       358
    28.6400       334
    28.6600       348
    28.6800       380
    28.7000       410
    28.7200       362
    28.7400       408
    28.7600       386
    28.7800       372
    28.8000       376
    28.8200       350
    28.8400       362
    28.8600       294
    28.8800       276
    28.9000       282
    28.9200       292
    28.9400       272
    28.9600       240
    28.9800       252
    29.0000       286
    29.0200       288
    29.0400       238
    29.0600       256
    29.0800       284
    29.1000       258
    29.1200       256
    29.1400       282
    29.1600       266
    29.1800       228
    29.2000       274
    29.2200       292
    29.2400       308
    29.2600       278
    29.2800       308
    29.3000       312
    29.3200       342
    29.3400       324
    29.3600       368
    29.3800       408
    29.4000       414
    29.4200       454
    29.4400       446
    29.4600       480
    29.4800       516
    29.5000       582
    29.5200       620
    29.5400       608
    29.5600       750
    29.5800       720
    29.6000       750
    29.6200       876
    29.6400       954
    29.6600       984
    29.6800      1106
    29.7000      1102
    29.7200      1054
    29.7400      1028
    29.7600       964
    29.7800       904
    29.8000       822
    29.8200       780
    29.8400       742
    29.8600       580
    29.8800       638
    29.9000       626
    29.9200       642
    29.9400       660
    29.9600       764
    29.9800       782
    30.0000       942
    30.0200      1030
    30.0400      1150
    30.0600      1350
    30.0800      1540
    30.1000      1784
    30.1200      2004
    30.1400      2364
    30.1600      2648
    30.1800      2710
    30.2000      2782
    30.2200      2752
    30.2400      2586
    30.2600      2502
    30.2800      2356
    30.3000      2116
    30.3200      1966
    30.3400      1772
    30.3600      1622
    30.3800      1546
    30.4000      1538
    30.4200      1492
    30.4400      1654
    30.4600      1676
    30.4800      1822
    30.5000      1956
    30.5200      2224
    30.5400      2432
    30.5600      2752
    30.5800      3098
    30.6000      3652
    30.6200      4028
    30.6400      4562
    30.6600      5044
    30.6800      5460
    30.7000      5834
    30.7200      5790
    30.7400      5428
    30.7600      5098
    30.7800      4452
    30.8000      3832
    30.8200      3344
    30.8400      2586
    30.8600      2076
    30.8800      1714
    30.9000      1404
    30.9200      1136
    30.9400       944
    30.9600       856
    30.9800       778
    31.0000       672
    31.0200       590
    31.0400       574
    31.0600       522
    31.0800       488
    31.1000       496
    31.1200       466
    31.1400       408
    31.1600       382
    31.1800       386
    31.2000       384
    31.2200       358
    31.2400       330
    31.2600       338
    31.2800       326
    31.3000       322
    31.3200       300
    31.3400       348
    31.3600       324
    31.3800       296
    31.4000       312
    31.4200       296
    31.4400       330
    31.4600       318
    31.4800       312
    31.5000       302
    31.5200       310
    31.5400       342
    31.5600       344
    31.5800       304
    31.6000       332
    31.6200       374
    31.6400       322
    31.6600       388
    31.6800       402
    31.7000       408
    31.7200       466
    31.7400       494
    31.7600       558
    31.7800       616
    31.8000       642
    31.8200       730
    31.8400       800
    31.8600       904
    31.8800      1042
    31.9000      1136
    31.9200      1456
    31.9400      1536
    31.9600      1806
    31.9800      1956
    32.0000      2038
    32.0200      2018
    32.0400      1886
    32.0600      1802
    32.0800      1530
    32.1000      1364
    32.1200      1210
    32.1400      1048
    32.1600      1008
    32.1800       932
    32.2000       912
    32.2200       906
    32.2400       956
    32.2600       972
    32.2800      1008
    32.3000      1172
    32.3200      1314
    32.3400      1536
    32.3600      1708
    32.3800      2066
    32.4000      2372
    32.4200      2888
    32.4400      3372
    32.4600      3938
    32.4800      4922
    32.5000      5480
    32.5200      5892
    32.5400      6506
    32.5600      6748
    32.5800      6644
    32.6000      6398
    32.6200      6018
    32.6400      5346
    32.6600      4730
    32.6800      3974
    32.7000      3412
    32.7200      2908
    32.7400      2396
    32.7600      2098
    32.7800      1776
    32.8000      1444
    32.8200      1232
    32.8400      1114
    32.8600      1056
    32.8800      1010
    32.9000       954
    32.9200       880
    32.9400       876
    32.9600       934
    32.9800       980
    33.0000       970
    33.0200      1164
    33.0400      1208
    33.0600      1282
    33.0800      1304
    33.1000      1398
    33.1200      1438
    33.1400      1318
    33.1600      1128
    33.1800      1156
    33.2000       960
    33.2200       828
    33.2400       732
    33.2600       578
    33.2800       538
    33.3000       472
    33.3200       448
    33.3400       398
    33.3600       356
    33.3800       346
    33.4000       336
    33.4200       336
    33.4400       324
    33.4600       258
    33.4800       290
    33.5000       286
    33.5200       290
    33.5400       280
    33.5600       274
    33.5800       234
    33.6000       234
    33.6200       232
    33.6400       238
    33.6600       288
    33.6800       234
    33.7000       248
    33.7200       250
    33.7400       262
    33.7600       226
    33.7800       256
    33.8000       238
    33.8200       232
    33.8400       244
    33.8600       234
    33.8800       246
    33.9000       240
    33.9200       246
    33.9400       242
    33.9600       252
    33.9800       254
    34.0000       252
    34.0200       236
    34.0400       254
    34.0600       240
    34.0800       246
    34.1000       266
    34.1200       234
    34.1400       252
    34.1600       250
    34.1800       254
    34.2000       258
    34.2200       260
    34.2400       252
    34.2600       254
    34.2800       290
    34.3000       320
    34.3200       330
    34.3400       344
    34.3600       356
    34.3800       398
    34.4000       470
    34.4200       456
    34.4400       542
    34.4600       588
    34.4800       578
    34.5000       596
    34.5200       514
    34.5400       578
    34.5600       526
    34.5800       460
    34.6000       488
    34.6200       440
    34.6400       386
    34.6600       382
    34.6800       380
    34.7000       320
    34.7200       376
    34.7400       338
    34.7600       340
    34.7800       320
    34.8000       352
    34.8200       328
    34.8400       372
    34.8600       316
    34.8800       310
    34.9000       362
    34.9200       354
    34.9400       372
    34.9600       344
    34.9800       376
    35.0000       364
    35.0200       410
    35.0400       398
    35.0600       392
    35.0800       454
    35.1000       380
    35.1200       440
    35.1400       412
    35.1600       390
    35.1800       354
    35.2000       334
    35.2200       318
    35.2400       328
    35.2600       298
    35.2800       278
    35.3000       276
    35.3200       288
    35.3400       246
    35.3600       292
    35.3800       244
    35.4000       264
    35.4200       266
    35.4400       248
    35.4600       276
    35.4800       226
    35.5000       244
    35.5200       250
    35.5400       258
    35.5600       280
    35.5800       294
    35.6000       280
    35.6200       252
    35.6400       306
    35.6600       288
    35.6800       288
    35.7000       256
    35.7200       282
    35.7400       326
    35.7600       276
    35.7800       332
    35.8000       326
    35.8200       312
    35.8400       350
    35.8600       366
    35.8800       396
    35.9000       380
    35.9200       426
    35.9400       468
    35.9600       454
    35.9800       490
    36.0000       544
    36.0200       570
    36.0400       618
    36.0600       714
    36.0800       806
    36.1000       816
    36.1200       888
    36.1400       966
    36.1600       940
    36.1800       956
    36.2000       924
    36.2200       782
    36.2400       716
    36.2600       670
    36.2800       622
    36.3000       558
    36.3200       518
    36.3400       428
    36.3600       400
    36.3800       424
    36.4000       368
    36.4200       366
    36.4400       362
    36.4600       340
    36.4800       396
    36.5000       362
    36.5200       360
    36.5400       372
    36.5600       420
    36.5800       430
    36.6000       412
    36.6200       444
    36.6400       458
    36.6600       532
    36.6800       558
    36.7000       618
    36.7200       700
    36.7400       780
    36.7600       812
    36.7800       944
    36.8000      1174
    36.8200      1318
    36.8400      1470
    36.8600      1634
    36.8800      1674
    36.9000      1854
    36.9200      1784
    36.9400      1752
    36.9600      1716
    36.9800      1558
    37.0000      1496
    37.0200      1304
    37.0400      1276
    37.0600      1190
    37.0800      1164
    37.1000      1122
    37.1200      1036
    37.1400      1082
    37.1600      1002
    37.1800      1050
    37.2000      1058
    37.2200      1034
    37.2400      1022
    37.2600       902
    37.2800       888
    37.3000       840
    37.3200       790
    37.3400       766
    37.3600       686
    37.3800       660
    37.4000       650
    37.4200       586
    37.4400       570
    37.4600       604
    37.4800       570
    37.5000       492
    37.5200       554
    37.5400       532
    37.5600       516
    37.5800       502
    37.6000       548
    37.6200       570
    37.6400       552
    37.6600       582
    37.6800       602
    37.7000       680
    37.7200       648
    37.7400       660
    37.7600       680
    37.7800       680
    37.8000       740
    37.8200       780
    37.8400       822
    37.8600       886
    37.8800       936
    37.9000      1056
    37.9200      1156
    37.9400      1244
    37.9600      1462
    37.9800      1534
    38.0000      1656
    38.0200      1688
    38.0400      1810
    38.0600      1680
    38.0800      1724
    38.1000      1564
    38.1200      1440
    38.1400      1430
    38.1600      1266
    38.1800      1180
    38.2000      1178
    38.2200      1106
    38.2400      1190
    38.2600      1196
    38.2800      1214
    38.3000      1276
    38.3200      1548
    38.3400      1652
    38.3600      1936
    38.3800      2224
    38.4000      2478
    38.4200      2814
    38.4400      3242
    38.4600      3492
    38.4800      3748
    38.5000      4046
    38.5200      4282
    38.5400      4350
    38.5600      4502
    38.5800      4610
    38.6000      4662
    38.6200      4878
    38.6400      4986
    38.6600      5220
    38.6800      5284
    38.7000      5320
    38.7200      5094
    38.7400      4876
    38.7600      4616
    38.7800      4326
    38.8000      3814
    38.8200      3418
    38.8400      3138
    38.8600      2574
    38.8800      2232
    38.9000      2044
    38.9200      1758
    38.9400      1504
    38.9600      1322
    38.9800      1332
    39.0000      1118
    39.0200      1100
    39.0400      1050
    39.0600      1072
    39.0800      1036
    39.1000      1068
    39.1200      1030
    39.1400      1040
    39.1600      1068
    39.1800      1034
    39.2000      1160
    39.2200      1088
    39.2400      1070
    39.2600      1112
    39.2800      1164
    39.3000      1158
    39.3200      1116
    39.3400      1164
    39.3600      1184
    39.3800      1210
    39.4000      1180
    39.4200      1172
    39.4400      1248
    39.4600      1162
    39.4800      1246
    39.5000      1192
    39.5200      1236
    39.5400      1294
    39.5600      1290
    39.5800      1344
    39.6000      1488
    39.6200      1634
    39.6400      1726
    39.6600      1868
    39.6800      2022
    39.7000      2074
    39.7200      2054
    39.7400      1898
    39.7600      1764
    39.7800      1646
    39.8000      1510
    39.8200      1368
    39.8400      1222
    39.8600      1072
    39.8800       890
    39.9000       844
    39.9200       740
    39.9400       668
    39.9600       664
    39.9800       612
    40.0000       586
    40.0200       592
    40.0400       568
    40.0600       608
    40.0800       586
    40.1000       662
    40.1200       636
    40.1400       660
    40.1600       658
    40.1800       754
    40.2000       756
    40.2200       776
    40.2400       786
    40.2600       788
    40.2800       816
    40.3000       792
    40.3200       802
    40.3400       774
    40.3600       772
    40.3800       824
    40.4000       814
    40.4200       898
    40.4400       890
    40.4600      1000
    40.4800      1082
    40.5000      1252
    40.5200      1322
    40.5400      1364
    40.5600      1512
    40.5800      1540
    40.6000      1572
    40.6200      1590
    40.6400      1510
    40.6600      1478
    40.6800      1432
    40.7000      1328
    40.7200      1274
    40.7400      1064
    40.7600      1022
    40.7800       918
    40.8000       816
    40.8200       796
    40.8400       702
    40.8600       648
    40.8800       624
    40.9000       598
    40.9200       604
    40.9400       564
    40.9600       642
    40.9800       614
    41.0000       638
    41.0200       638
    41.0400       730
    41.0600       794
    41.0800       784
    41.1000       918
    41.1200      1018
    41.1400      1096
    41.1600      1248
    41.1800      1354
    41.2000      1608
    41.2200      1660
    41.2400      1854
    41.2600      2040
    41.2800      2090
    41.3000      2108
    41.3200      2178
    41.3400      2144
    41.3600      2076
    41.3800      2034
    41.4000      1980
    41.4200      1958
    41.4400      1880
    41.4600      1786
    41.4800      1704
    41.5000      1752
    41.5200      1828
    41.5400      1748
    41.5600      1710
    41.5800      1756
    41.6000      1650
    41.6200      1482
    41.6400      1364
    41.6600      1348
    41.6800      1348
    41.7000      1252
    41.7200      1172
    41.7400      1170
    41.7600      1158
    41.7800      1194
    41.8000      1266
    41.8200      1390
    41.8400      1350
    41.8600      1510
    41.8800      1576
    41.9000      1662
    41.9200      1662
    41.9400      1578
    41.9600      1542
    41.9800      1422
    42.0000      1270
    42.0200      1184
    42.0400      1060
    42.0600      1016
    42.0800       930
    42.1000       794
    42.1200       692
    42.1400       588
    42.1600       586
    42.1800       520
    42.2000       450
    42.2200       484
    42.2400       418
    42.2600       428
    42.2800       390
    42.3000       410
    42.3200       384
    42.3400       370
    42.3600       376
    42.3800       362
    42.4000       366
    42.4200       334
    42.4400       380
    42.4600       366
    42.4800       356
    42.5000       328
    42.5200       384
    42.5400       360
    42.5600       350
    42.5800       338
    42.6000       332
    42.6200       370
    42.6400       340
    42.6600       330
    42.6800       394
    42.7000       350
    42.7200       328
    42.7400       352
    42.7600       306
    42.7800       378
    42.8000       394
    42.8200       366
    42.8400       372
    42.8600       398
    42.8800       430
    42.9000       446
    42.9200       464
    42.9400       510
    42.9600       538
    42.9800       530
    43.0000       620
    43.0200       658
    43.0400       754
    43.0600       812
    43.0800       930
    43.1000      1066
    43.1200      1242
    43.1400      1364
    43.1600      1456
    43.1800      1642
    43.2000      1666
    43.2200      1756
    43.2400      1692
    43.2600      1634
    43.2800      1568
    43.3000      1502
    43.3200      1358
    43.3400      1300
    43.3600      1158
    43.3800       974
    43.4000       980
    43.4200       812
    43.4400       706
    43.4600       620
    43.4800       592
    43.5000       586
    43.5200       514
    43.5400       536
    43.5600       480
    43.5800       470
    43.6000       528
    43.6200       452
    43.6400       478
    43.6600       482
    43.6800       478
    43.7000       484
    43.7200       506
    43.7400       572
    43.7600       614
    43.7800       602
    43.8000       684
    43.8200       590
    43.8400       646
    43.8600       610
    43.8800       590
    43.9000       612
    43.9200       608
    43.9400       568
    43.9600       526
    43.9800       518
    44.0000       484
    44.0200       504
    44.0400       398
    44.0600       424
    44.0800       398
    44.1000       380
    44.1200       372
    44.1400       388
    44.1600       410
    44.1800       364
    44.2000       386
    44.2200       424
    44.2400       422
    44.2600       390
    44.2800       404
    44.3000       416
    44.3200       450
    44.3400       462
    44.3600       452
    44.3800       420
    44.4000       426
    44.4200       390
    44.4400       434
    44.4600       404
    44.4800       428
    44.5000       372
    44.5200       428
    44.5400       404
    44.5600       408
    44.5800       412
    44.6000       402
    44.6200       392
    44.6400       408
    44.6600       460
    44.6800       446
    44.7000       534
    44.7200       468
    44.7400       550
    44.7600       544
    44.7800       614
    44.8000       640
    44.8200       734
    44.8400       812
    44.8600       936
    44.8800       986
    44.9000      1146
    44.9200      1298
    44.9400      1434
    44.9600      1664
    44.9800      1794
    45.0000      1874
    45.0200      2030
    45.0400      2116
    45.0600      2260
    45.0800      2300
    45.1000      2404
    45.1200      2454
    45.1400      2466
    45.1600      2540
    45.1800      2500
    45.2000      2500
    45.2200      2434
    45.2400      2488
    45.2600      2418
    45.2800      2312
    45.3000      2198
    45.3200      2112
    45.3400      1988
    45.3600      1982
    45.3800      1790
    45.4000      1766
    45.4200      1664
    45.4400      1582
    45.4600      1524
    45.4800      1334
    45.5000      1372
    45.5200      1154
    45.5400      1222
    45.5600      1086
    45.5800      1076
    45.6000       982
    45.6200       948
    45.6400       902
    45.6600       836
    45.6800       742
    45.7000       858
    45.7200       754
    45.7400       786
    45.7600       796
    45.7800       772
    45.8000       754
    45.8200       776
    45.8400       746
    45.8600       736
    45.8800       740
    45.9000       752
    45.9200       698
    45.9400       768
    45.9600       740
    45.9800       680
    46.0000       718
    46.0200       684
    46.0400       652
    46.0600       708
    46.0800       646
    46.1000       616
    46.1200       640
    46.1400       650
    46.1600       600
    46.1800       624
    46.2000       642
    46.2200       686
    46.2400       696
    46.2600       730
    46.2800       724
    46.3000       816
    46.3200       858
    46.3400       898
    46.3600       946
    46.3800      1036
    46.4000      1048
    46.4200      1210
    46.4400      1380
    46.4600      1506
    46.4800      1696
    46.5000      1920
    46.5200      2230
    46.5400      2460
    46.5600      2952
    46.5800      3276
    46.6000      3830
    46.6200      4530
    46.6400      5206
    46.6600      5608
    46.6800      6230
    46.7000      6522
    46.7200      6784
    46.7400      6606
    46.7600      6468
    46.7800      5958
    46.8000      5636
    46.8200      5116
    46.8400      4644
    46.8600      4098
    46.8800      3648
    46.9000      3096
    46.9200      2502
    46.9400      2300
    46.9600      1824
    46.9800      1612
    47.0000      1416
    47.0200      1248
    47.0400      1050
    47.0600      1036
    47.0800       940
    47.1000       844
    47.1200       768
    47.1400       700
    47.1600       668
    47.1800       606
    47.2000       668
    47.2200       586
    47.2400       554
    47.2600       490
    47.2800       478
    47.3000       450
    47.3200       478
    47.3400       466
    47.3600       498
    47.3800       456
    47.4000       454
    47.4200       424
    47.4400       408
    47.4600       424
    47.4800       418
    47.5000       414
    47.5200       402
    47.5400       408
    47.5600       414
    47.5800       418
    47.6000       434
    47.6200       400
    47.6400       456
    47.6600       476
    47.6800       456
    47.7000       476
    47.7200       536
    47.7400       520
    47.7600       572
    47.7800       646
    47.8000       590
    47.8200       678
    47.8400       752
    47.8600       714
    47.8800       656
    47.9000       658
    47.9200       664
    47.9400       678
    47.9600       628
    47.9800       638
    48.0000       590
    48.0200       620
    48.0400       564
    48.0600       566
    48.0800       596
    48.1000       600
    48.1200       656
    48.1400       648
    48.1600       716
    48.1800       784
    48.2000       806
    48.2200       796
    48.2400       856
    48.2600       862
    48.2800       870
    48.3000       818
    48.3200       870
    48.3400       838
    48.3600       868
    48.3800       862
    48.4000       910
    48.4200       950
    48.4400       988
    48.4600      1024
    48.4800      1108
    48.5000      1190
    48.5200      1256
    48.5400      1352
    48.5600      1398
    48.5800      1392
    48.6000      1474
    48.6200      1462
    48.6400      1540
    48.6600      1424
    48.6800      1380
    48.7000      1362
    48.7200      1350
    48.7400      1240
    48.7600      1198
    48.7800      1078
    48.8000      1074
    48.8200      1004
    48.8400       926
    48.8600       888
    48.8800       786
    48.9000       704
    48.9200       682
    48.9400       604
    48.9600       628
    48.9800       564
    49.0000       508
    49.0200       472
    49.0400       466
    49.0600       464
    49.0800       462
    49.1000       436
    49.1200       358
    49.1400       366
    49.1600       336
    49.1800       380
    49.2000       312
    49.2200       346
    49.2400       348
    49.2600       320
    49.2800       344
    49.3000       318
    49.3200       314
    49.3400       316
    49.3600       258
    49.3800       290
    49.4000       304
    49.4200       318
    49.4400       312
    49.4600       300
    49.4800       302
    49.5000       320
    49.5200       274
    49.5400       310
    49.5600       326
    49.5800       288
    49.6000       280
    49.6200       320
    49.6400       338
    49.6600       338
    49.6800       306
    49.7000       330
    49.7200       352
    49.7400       326
    49.7600       312
    49.7800       330
    49.8000       374
    49.8200       350
    49.8400       370
    49.8600       360
    49.8800       420
    49.9000       388
    49.9200       380
    49.9400       414
    49.9600       444
    49.9800       456
    50.0000       470
    50.0200       492
    50.0400       584
    50.0600       668
    50.0800       656
    50.1000       726
    50.1200       806
    50.1400       828
    50.1600       952
    50.1800      1022
    50.2000      1094
    50.2200      1272
    50.2400      1334
    50.2600      1452
    50.2800      1510
    50.3000      1584
    50.3200      1660
    50.3400      1652
    50.3600      1630
    50.3800      1576
    50.4000      1614
    50.4200      1626
    50.4400      1570
    50.4600      1474
    50.4800      1430
    50.5000      1382
    50.5200      1340
    50.5400      1276
    50.5600      1218
    50.5800      1210
    50.6000      1198
    50.6200      1104
    50.6400      1166
    50.6600      1228
    50.6800      1264
    50.7000      1314
    50.7200      1366
    50.7400      1512
    50.7600      1620
    50.7800      1732
    50.8000      1818
    50.8200      1974
    50.8400      2002
    50.8600      1976
    50.8800      1950
    50.9000      1840
    50.9200      1880
    50.9400      1734
    50.9600      1782
    50.9800      1596
    51.0000      1564
    51.0200      1372
    51.0400      1268
    51.0600      1154
    51.0800      1044
    51.1000       942
    51.1200       928
    51.1400       820
    51.1600       786
    51.1800       760
    51.2000       690
    51.2200       654
    51.2400       678
    51.2600       692
    51.2800       684
    51.3000       634
    51.3200       664
    51.3400       674
    51.3600       728
    51.3800       646
    51.4000       724
    51.4200       772
    51.4400       736
    51.4600       762
    51.4800       686
    51.5000       702
    51.5200       756
    51.5400       688
    51.5600       700
    51.5800       760
    51.6000       796
    51.6200       782
    51.6400       740
    51.6600       796
    51.6800       756
    51.7000       858
    51.7200       870
    51.7400       952
    51.7600       956
    51.7800      1034
    51.8000      1128
    51.8200      1164
    51.8400      1260
    51.8600      1326
    51.8800      1324
    51.9000      1476
    51.9200      1384
    51.9400      1486
    51.9600      1544
    51.9800      1604
    52.0000      1714
    52.0200      1784
    52.0400      1792
    52.0600      1798
    52.0800      1732
    52.1000      1784
    52.1200      1644
    52.1400      1512
    52.1600      1356
    52.1800      1338
    52.2000      1228
    52.2200      1106
    52.2400      1102
    52.2600       964
    52.2800       910
    52.3000       852
    52.3200       802
    52.3400       730
    52.3600       734
    52.3800       748
    52.4000       762
    52.4200       812
    52.4400       810
    52.4600       890
    52.4800       942
    52.5000       920
    52.5200      1130
    52.5400      1142
    52.5600      1148
    52.5800      1190
    52.6000      1294
    52.6200      1318
    52.6400      1188
    52.6600      1260
    52.6800      1272
    52.7000      1266
    52.7200      1296
    52.7400      1178
    52.7600      1168
    52.7800      1118
    52.8000      1118
    52.8200      1070
    52.8400       868
    52.8600       888
    52.8800       856
    52.9000       792
    52.9200       800
    52.9400       694
    52.9600       776
    52.9800       654
    53.0000       666
    53.0200       650
    53.0400       740
    53.0600       730
    53.0800       756
    53.1000       766
    53.1200       804
    53.1400       940
    53.1600      1086
    53.1800      1110
    53.2000      1216
    53.2200      1334
    53.2400      1376
    53.2600      1434
    53.2800      1392
    53.3000      1398
    53.3200      1408
    53.3400      1378
    53.3600      1298
    53.3800      1200
    53.4000      1182
    53.4200      1088
    53.4400      1006
    53.4600       962
    53.4800       822
    53.5000       790
    53.5200       740
    53.5400       686
    53.5600       656
    53.5800       626
    53.6000       584
    53.6200       584
    53.6400       602
    53.6600       554
    53.6800       556
    53.7000       566
    53.7200       546
    53.7400       490
    53.7600       524
    53.7800       488
    53.8000       500
    53.8200       468
    53.8400       452
    53.8600       448
    53.8800       476
    53.9000       462
    53.9200       458
    53.9400       440
    53.9600       450
    53.9800       420
    54.0000       444
    54.0200       420
    54.0400       424
    54.0600       376
    54.0800       396
    54.1000       444
    54.1200       426
    54.1400       412
    54.1600       434
    54.1800       484
    54.2000       478
    54.2200       560
    54.2400       462
    54.2600       538
    54.2800       558
    54.3000       540
    54.3200       524
    54.3400       600
    54.3600       542
    54.3800       558
    54.4000       566
    54.4200       594
    54.4400       684
    54.4600       686
    54.4800       696
    54.5000       706
    54.5200       770
    54.5400       756
    54.5600       796
    54.5800       790
    54.6000       802
    54.6200       832
    54.6400       810
    54.6600       842
    54.6800       852
    54.7000       884
    54.7200       932
    54.7400       846
    54.7600       914
    54.7800       952
    54.8000       918
    54.8200       882
    54.8400       832
    54.8600       808
    54.8800       816
    54.9000       778
    54.9200       834
    54.9400       822
    54.9600       784
    54.9800       822
    55.0000       846
    55.0200       876
    55.0400       866
    55.0600       944
    55.0800       992
    55.1000      1034
    55.1200      1010
    55.1400      1074
    55.1600      1102
    55.1800      1144
    55.2000      1148
    55.2200      1170
    55.2400      1102
    55.2600      1110
    55.2800      1096
    55.3000      1064
    55.3200      1034
    55.3400      1002
    55.3600       952
    55.3800       998
    55.4000       918
    55.4200       868
    55.4400       754
    55.4600       764
    55.4800       738
    55.5000       712
    55.5200       678
    55.5400       598
    55.5600       582
    55.5800       594
    55.6000       532
    55.6200       522
    55.6400       476
    55.6600       454
    55.6800       430
    55.7000       376
    55.7200       382
    55.7400       378
    55.7600       366
    55.7800       364
    55.8000       324
    55.8200       334
    55.8400       294
    55.8600       314
    55.8800       268
    55.9000       336
    55.9200       312
    55.9400       306
    55.9600       290
    55.9800       336
    56.0000       284
    56.0200       250
    56.0400       266
    56.0600       286
    56.0800       284
    56.1000       306
    56.1200       320
    56.1400       280
    56.1600       310
    56.1800       306
    56.2000       290
    56.2200       304
    56.2400       322
    56.2600       296
    56.2800       304
    56.3000       318
    56.3200       310
    56.3400       298
    56.3600       290
    56.3800       314
    56.4000       312
    56.4200       328
    56.4400       332
    56.4600       358
    56.4800       350
    56.5000       356
    56.5200       380
    56.5400       338
    56.5600       412
    56.5800       322
    56.6000       376
    56.6200       406
    56.6400       398
    56.6600       452
    56.6800       442
    56.7000       452
    56.7200       486
    56.7400       476
    56.7600       552
    56.7800       540
    56.8000       534
    56.8200       564
    56.8400       602
    56.8600       618
    56.8800       614
    56.9000       574
    56.9200       626
    56.9400       654
    56.9600       584
    56.9800       530
    57.0000       576
    57.0200       582
    57.0400       612
    57.0600       554
    57.0800       588
    57.1000       608
    57.1200       590
    57.1400       634
    57.1600       622
    57.1800       636
    57.2000       704
    57.2200       780
    57.2400       844
    57.2600       956
    57.2800      1052
    57.3000      1192
    57.3200      1198
    57.3400      1334
    57.3600      1390
    57.3800      1486
    57.4000      1470
    57.4200      1480
    57.4400      1452
    57.4600      1310
    57.4800      1286
    57.5000      1334
    57.5200      1172
    57.5400      1230
    57.5600      1182
    57.5800      1224
    57.6000      1236
    57.6200      1158
    57.6400      1238
    57.6600      1226
    57.6800      1272
    57.7000      1330
    57.7200      1364
    57.7400      1374
    57.7600      1316
    57.7800      1346
    57.8000      1342
    57.8200      1258
    57.8400      1194
    57.8600      1154
    57.8800      1102
    57.9000      1052
    57.9200      1000
    57.9400       940
    57.9600       858
    57.9800       792
    58.0000       778
    58.0200       672
    58.0400       688
    58.0600       606
    58.0800       630
    58.1000       608
    58.1200       672
    58.1400       654
    58.1600       618
    58.1800       670
    58.2000       674
    58.2200       708
    58.2400       776
    58.2600       786
    58.2800       866
    58.3000       846
    58.3200       926
    58.3400       982
    58.3600      1070
    58.3800      1082
    58.4000      1200
    58.4200      1214
    58.4400      1270
    58.4600      1516
    58.4800      1548
    58.5000      1516
    58.5200      1662
    58.5400      1760
    58.5600      1900
    58.5800      1970
    58.6000      1998
    58.6200      2094
    58.6400      2194
    58.6600      2344
    58.6800      2394
    58.7000      2580
    58.7200      2572
    58.7400      2624
    58.7600      2686
    58.7800      2622
    58.8000      2524
    58.8200      2520
    58.8400      2352
    58.8600      2266
    58.8800      2114
    58.9000      2020
    58.9200      1978
    58.9400      1758
    58.9600      1664
    58.9800      1522
    59.0000      1376
    59.0200      1258
    59.0400      1212
    59.0600      1074
    59.0800      1034
    59.1000       952
    59.1200       856
    59.1400       870
    59.1600       896
    59.1800       798
    59.2000       832
    59.2200       822
    59.2400       842
    59.2600       848
    59.2800       878
    59.3000       884
    59.3200      1050
    59.3400      1056
    59.3600      1140
    59.3800      1286
    59.4000      1376
    59.4200      1392
    59.4400      1440
    59.4600      1584
    59.4800      1506
    59.5000      1448
    59.5200      1454
    59.5400      1402
    59.5600      1442
    59.5800      1402
    59.6000      1314
    59.6200      1326
    59.6400      1296
    59.6600      1324
    59.6800      1222
    59.7000      1256
    59.7200      1134
    59.7400      1124
    59.7600      1136
    59.7800      1106
    59.8000      1046
    59.8200      1070
    59.8400      1048
    59.8600       946
    59.8800       958
    59.9000       960
    59.9200       880
    59.9400       878
    59.9600       848
    59.9800       804
    60.0000       740
    60.0200       710
    60.0400       724
    60.0600       690
    60.0800       650
    60.1000       590
    60.1200       570
    60.1400       552
    60.1600       588
    60.1800       496
    60.2000       488
    60.2200       458
    60.2400       484
    60.2600       442
    60.2800       428
    60.3000       412
    60.3200       404
    60.3400       396
    60.3600       394
    60.3800       382
    60.4000       390
    60.4200       364
    60.4400       344
    60.4600       364
    60.4800       394
    60.5000       382
    60.5200       378
    60.5400       396
    60.5600       382
    60.5800       360
    60.6000       340
    60.6200       362
    60.6400       354
    60.6600       350
    60.6800       364
    60.7000       400
    60.7200       356
    60.7400       380
    60.7600       364
    60.7800       406
    60.8000       390
    60.8200       398
    60.8400       384
    60.8600       420
    60.8800       456
    60.9000       432
    60.9200       478
    60.9400       476
    60.9600       510
    60.9800       532
    61.0000       516
    61.0200       540
    61.0400       582
    61.0600       638
    61.0800       654
    61.1000       634
    61.1200       668
    61.1400       694
    61.1600       708
    61.1800       730
    61.2000       762
    61.2200       744
    61.2400       760
    61.2600       752
    61.2800       766
    61.3000       818
    61.3200       782
    61.3400       778
    61.3600       880
    61.3800       776
    61.4000       790
    61.4200       830
    61.4400       892
    61.4600      1008
    61.4800       912
    61.5000      1010
    61.5200      1012
    61.5400       996
    61.5600      1080
    61.5800      1118
    61.6000      1120
    61.6200      1200
    61.6400      1212
    61.6600      1244
    61.6800      1216
    61.7000      1238
    61.7200      1212
    61.7400      1102
    61.7600      1110
    61.7800      1024
    61.8000       990
    61.8200       920
    61.8400       900
    61.8600       862
    61.8800       802
    61.9000       756
    61.9200       734
    61.9400       758
    61.9600       718
    61.9800       690
    62.0000       664
    62.0200       638
    62.0400       616
    62.0600       552
    62.0800       548
    62.1000       586
    62.1200       558
    62.1400       532
    62.1600       580
    62.1800       564
    62.2000       528
    62.2200       534
    62.2400       506
    62.2600       490
    62.2800       484
    62.3000       468
    62.3200       464
    62.3400       504
    62.3600       492
    62.3800       426
    62.4000       394
    62.4200       428
    62.4400       388
    62.4600       450
    62.4800       402
    62.5000       390
    62.5200       366
    62.5400       336
    62.5600       410
    62.5800       398
    62.6000       362
    62.6200       396
    62.6400       390
    62.6600       388
    62.6800       386
    62.7000       416
    62.7200       458
    62.7400       436
    62.7600       408
    62.7800       372
    62.8000       438
    62.8200       436
    62.8400       394
    62.8600       420
    62.8800       366
    62.9000       368
    62.9200       348
    62.9400       344
    62.9600       376
    62.9800       352
    63.0000       340
    63.0200       314
    63.0400       328
    63.0600       298
    63.0800       284
    63.1000       258
    63.1200       308
    63.1400       302
    63.1600       266
    63.1800       266
    63.2000       282
    63.2200       282
    63.2400       268
    63.2600       258
    63.2800       270
    63.3000       252
    63.3200       254
    63.3400       284
    63.3600       262
    63.3800       262
    63.4000       250
    63.4200       256
    63.4400       292
    63.4600       298
    63.4800       306
    63.5000       272
    63.5200       276
    63.5400       306
    63.5600       322
    63.5800       340
    63.6000       322
    63.6200       330
    63.6400       344
    63.6600       374
    63.6800       390
    63.7000       416
    63.7200       438
    63.7400       502
    63.7600       514
    63.7800       532
    63.8000       538
    63.8200       586
    63.8400       648
    63.8600       668
    63.8800       670
    63.9000       748
    63.9200       706
    63.9400       728
    63.9600       694
    63.9800       748
    64.0000       668
    64.0200       666
    64.0400       660
    64.0600       616
    64.0800       640
    64.1000       626
    64.1200       580
    64.1400       576
    64.1600       552
    64.1800       546
    64.2000       472
    64.2200       426
    64.2400       432
    64.2600       404
    64.2800       384
    64.3000       354
    64.3200       356
    64.3400       352
    64.3600       312
    64.3800       316
    64.4000       306
    64.4200       290
    64.4400       282
    64.4600       288
    64.4800       236
    64.5000       264
    64.5200       280
    64.5400       274
    64.5600       246
    64.5800       268
    64.6000       236
    64.6200       230
    64.6400       254
    64.6600       246
    64.6800       244
    64.7000       254
    64.7200       256
    64.7400       250
    64.7600       236
    64.7800       242
    64.8000       252
    64.8200       268
    64.8400       212
    64.8600       224
    64.8800       240
    64.9000       224
    64.9200       258
    64.9400       214
    64.9600       274
    64.9800       288
    65.0000       248
    65.0200       240
    65.0400       280
    65.0600       270
    65.0800       284
    65.1000       298
    65.1200       318
    65.1400       354
    65.1600       356
    65.1800       332
    65.2000       394
    65.2200       398
    65.2400       382
    65.2600       436
    65.2800       416
    65.3000       424
    65.3200       454
    65.3400       460
    65.3600       456
    65.3800       434
    65.4000       414
    65.4200       416
    65.4400       426
    65.4600       444
    65.4800       442
    65.5000       436
    65.5200       442
    65.5400       378
    65.5600       414
    65.5800       408
    65.6000       402
    65.6200       408
    65.6400       378
    65.6600       354
    65.6800       360
    65.7000       356
    65.7200       338
    65.7400       360
    65.7600       346
    65.7800       330
    65.8000       324
    65.8200       324
    65.8400       348
    65.8600       298
    65.8800       302
    65.9000       328
    65.9200       298
    65.9400       310
    65.9600       280
    65.9800       286
    66.0000       264
    66.0200       280
    66.0400       274
    66.0600       260
    66.0800       276
    66.1000       264
    66.1200       284
    66.1400       266
    66.1600       286
    66.1800       246
    66.2000       250
    66.2200       274
    66.2400       276
    66.2600       284
    66.2800       298
    66.3000       346
    66.3200       296
    66.3400       328
    66.3600       306
    66.3800       302
    66.4000       338
    66.4200       338
    66.4400       332
    66.4600       346
    66.4800       384
    66.5000       396
    66.5200       358
    66.5400       374
    66.5600       370
    66.5800       414
    66.6000       406
    66.6200       464
    66.6400       452
    66.6600       514
    66.6800       470
    66.7000       562
    66.7200       540
    66.7400       618
    66.7600       624
    66.7800       654
    66.8000       702
    66.8200       756
    66.8400       740
    66.8600       812
    66.8800       860
    66.9000       870
    66.9200       906
    66.9400       906
    66.9600       926
    66.9800       930
    67.0000       910
    67.0200       960
    67.0400       860
    67.0600       828
    67.0800       836
    67.1000       832
    67.1200       818
    67.1400       736
    67.1600       726
    67.1800       694
    67.2000       634
    67.2200       596
    67.2400       600
    67.2600       514
    67.2800       564
    67.3000       504
    67.3200       508
    67.3400       436
    67.3600       458
    67.3800       432
    67.4000       428
    67.4200       386
    67.4400       366
    67.4600       338
    67.4800       380
    67.5000       354
    67.5200       306
    67.5400       346
    67.5600       348
    67.5800       314
    67.6000       332
    67.6200       334
    67.6400       310
    67.6600       320
    67.6800       326
    67.7000       328
    67.7200       338
    67.7400       288
    67.7600       322
    67.7800       334
    67.8000       324
    67.8200       382
    67.8400       360
    67.8600       374
    67.8800       412
    67.9000       430
    67.9200       452
    67.9400       452
    67.9600       538
    67.9800       570
    68.0000       618
    68.0200       644
    68.0400       722
    68.0600       792
    68.0800       796
    68.1000       852
    68.1200       988
    68.1400      1030
    68.1600      1068
    68.1800       982
    68.2000      1056
    68.2200      1102
    68.2400      1046
    68.2600      1006
    68.2800      1018
    68.3000      1012
    68.3200       942
    68.3400       902
    68.3600       896
    68.3800       848
    68.4000       802
    68.4200       772
    68.4400       732
    68.4600       716
    68.4800       690
    68.5000       648
    68.5200       592
    68.5400       566
    68.5600       558
    68.5800       576
    68.6000       518
    68.6200       508
    68.6400       490
    68.6600       430
    68.6800       424
    68.7000       390
    68.7200       388
    68.7400       434
    68.7600       378
    68.7800       410
    68.8000       368
    68.8200       326
    68.8400       338
    68.8600       330
    68.8800       316
    68.9000       352
    68.9200       306
    68.9400       350
    68.9600       294
    68.9800       314
    69.0000       314
    69.0200       322
    69.0400       298
    69.0600       318
    69.0800       296
    69.1000       296
    69.1200       320
    69.1400       340
    69.1600       326
    69.1800       368
    69.2000       382
    69.2200       362
    69.2400       392
    69.2600       416
    69.2800       442
    69.3000       454
    69.3200       480
    69.3400       484
    69.3600       514
    69.3800       490
    69.4000       458
    69.4200       486
    69.4400       524
    69.4600       514
    69.4800       532
    69.5000       518
    69.5200       474
    69.5400       480
    69.5600       470
    69.5800       466
    69.6000       422
    69.6200       438
    69.6400       360
    69.6600       406
    69.6800       408
    69.7000       372
    69.7200       400
    69.7400       334
    69.7600       314
    69.7800       370
    69.8000       332
    69.8200       346
    69.8400       340
    69.8600       358
    69.8800       388
    69.9000       340
    69.9200       358
    69.9400       364
    69.9600       380
    69.9800       372
    70.0000       386
    70.0200       346
    70.0400       326
    70.0600       348
    70.0800       320
    70.1000       314
    70.1200       328
    70.1400       314
    70.1600       322
    70.1800       332
    70.2000       288
    70.2200       302
    70.2400       294
    70.2600       284
    70.2800       262
    70.3000       264
    70.3200       270
    70.3400       240
    70.3600       224
    70.3800       260
    70.4000       258
    70.4200       224
    70.4400       222
    70.4600       222
    70.4800       226
    70.5000       232
    70.5200       204
    70.5400       232
    70.5600       236
    70.5800       246
    70.6000       240
    70.6200       254
    70.6400       252
    70.6600       246
    70.6800       240
    70.7000       218
    70.7200       222
    70.7400       240
    70.7600       226
    70.7800       236
    70.8000       236
    70.8200       232
    70.8400       204
    70.8600       232
    70.8800       236
    70.9000       244
    70.9200       222
    70.9400       184
    70.9600       222
    70.9800       212
    71.0000       196
    71.0200       204
    71.0400       240
    71.0600       232
    71.0800       232
    71.1000       208
    71.1200       222
    71.1400       226
    71.1600       236
    71.1800       242
    71.2000       252
    71.2200       240
    71.2400       236
    71.2600       244
    71.2800       310
    71.3000       298
    71.3200       318
    71.3400       326
    71.3600       394
    71.3800       408
    71.4000       408
    71.4200       414
    71.4400       422
    71.4600       452
    71.4800       512
    71.5000       492
    71.5200       566
    71.5400       506
    71.5600       520
    71.5800       586
    71.6000       556
    71.6200       502
    71.6400       486
    71.6600       496
    71.6800       552
    71.7000       514
    71.7200       492
    71.7400       494
    71.7600       508
    71.7800       462
    71.8000       418
    71.8200       454
    71.8400       410
    71.8600       418
    71.8800       404
    71.9000       428
    71.9200       422
    71.9400       396
    71.9600       392
    71.9800       416
    72.0000       396
    72.0200       360
    72.0400       390
    72.0600       388
    72.0800       406
    72.1000       374
    72.1200       386
    72.1400       418
    72.1600       412
    72.1800       352
    72.2000       444
    72.2200       408
    72.2400       446
    72.2600       444
    72.2800       470
    72.3000       502
    72.3200       482
    72.3400       474
    72.3600       508
    72.3800       506
    72.4000       488
    72.4200       496
    72.4400       532
    72.4600       494
    72.4800       514
    72.5000       532
    72.5200       532
    72.5400       562
    72.5600       490
    72.5800       540
    72.6000       542
    72.6200       592
    72.6400       612
    72.6600       576
    72.6800       550
    72.7000       556
    72.7200       568
    72.7400       584
    72.7600       582
    72.7800       578
    72.8000       526
    72.8200       522
    72.8400       568
    72.8600       552
    72.8800       542
    72.9000       502
    72.9200       488
    72.9400       504
    72.9600       484
    72.9800       472
    73.0000       476
    73.0200       444
    73.0400       440
    73.0600       406
    73.0800       412
    73.1000       406
    73.1200       368
    73.1400       376
    73.1600       348
    73.1800       298
    73.2000       318
    73.2200       350
    73.2400       326
    73.2600       330
    73.2800       306
    73.3000       316
    73.3200       290
    73.3400       272
    73.3600       266
    73.3800       254
    73.4000       260
    73.4200       270
    73.4400       262
    73.4600       250
    73.4800       240
    73.5000       230
    73.5200       238
    73.5400       242
    73.5600       272
    73.5800       250
    73.6000       272
    73.6200       236
    73.6400       256
    73.6600       262
    73.6800       266
    73.7000       236
    73.7200       270
    73.7400       254
    73.7600       226
    73.7800       244
    73.8000       220
    73.8200       272
    73.8400       250
    73.8600       248
    73.8800       276
    73.9000       266
    73.9200       248
    73.9400       264
    73.9600       252
    73.9800       244
    74.0000       288
    74.0200       294
    74.0400       296
    74.0600       288
    74.0800       274
    74.1000       266
    74.1200       298
    74.1400       272
    74.1600       268
    74.1800       294
    74.2000       278
    74.2200       260
    74.2400       266
    74.2600       270
    74.2800       286
    74.3000       264
    74.3200       256
    74.3400       260
    74.3600       268
    74.3800       262
    74.4000       220
    74.4200       234
    74.4400       232
    74.4600       220
    74.4800       206
    74.5000       208
    74.5200       204
    74.5400       200
    74.5600       172
    74.5800       188
    74.6000       212
    74.6200       196
    74.6400       202
    74.6600       196
    74.6800       200
    74.7000       206
    74.7200       190
    74.7400       172
    74.7600       162
    74.7800       174
    74.8000       182
    74.8200       180
    74.8400       204
    74.8600       164
    74.8800       204
    74.9000       174
    74.9200       194
    74.9400       210
    74.9600       210
    74.9800       178
    75.0000       196
    75.0200       236
    75.0400       190
    75.0600       226
    75.0800       210
    75.1000       222
    75.1200       236
    75.1400       232
    75.1600       248
    75.1800       250
    75.2000       258
    75.2200       264
    75.2400       240
    75.2600       226
    75.2800       232
    75.3000       218
    75.3200       258
    75.3400       248
    75.3600       262
    75.3800       280
    75.4000       270
    75.4200       264
    75.4400       254
    75.4600       248
    75.4800       272
    75.5000       258
    75.5200       256
    75.5400       272
    75.5600       286
    75.5800       292
    75.6000       290
    75.6200       282
    75.6400       244
    75.6600       258
    75.6800       234
    75.7000       240
    75.7200       248
    75.7400       234
    75.7600       262
    75.7800       258
    75.8000       240
    75.8200       244
    75.8400       246
    75.8600       246
    75.8800       230
    75.9000       240
    75.9200       262
    75.9400       246
    75.9600       244
    75.9800       244
    76.0000       236
    76.0200       238
    76.0400       240
    76.0600       212
    76.0800       244
    76.1000       220
    76.1200       230
    76.1400       254
    76.1600       230
    76.1800       248
    76.2000       258
    76.2200       288
    76.2400       262
    76.2600       264
    76.2800       272
    76.3000       292
    76.3200       300
    76.3400       316
    76.3600       316
    76.3800       312
    76.4000       312
    76.4200       328
    76.4400       342
    76.4600       334
    76.4800       366
    76.5000       348
    76.5200       372
    76.5400       378
    76.5600       402
    76.5800       400
    76.6000       410
    76.6200       380
    76.6400       454
    76.6600       462
    76.6800       408
    76.7000       422
    76.7200       400
    76.7400       416
    76.7600       456
    76.7800       404
    76.8000       420
    76.8200       458
    76.8400       360
    76.8600       384
    76.8800       386
    76.9000       378
    76.9200       368
    76.9400       356
    76.9600       372
    76.9800       364
    77.0000       350
    77.0200       354
    77.0400       358
    77.0600       338
    77.0800       338
    77.1000       328
    77.1200       296
    77.1400       322
    77.1600       324
    77.1800       330
    77.2000       330
    77.2200       344
    77.2400       362
    77.2600       334
    77.2800       318
    77.3000       418
    77.3200       386
    77.3400       364
    77.3600       368
    77.3800       408
    77.4000       396
    77.4200       448
    77.4400       452
    77.4600       476
    77.4800       498
    77.5000       528
    77.5200       556
    77.5400       602
    77.5600       626
    77.5800       674
    77.6000       720
    77.6200       676
    77.6400       702
    77.6600       740
    77.6800       728
    77.7000       742
    77.7200       702
    77.7400       680
    77.7600       710
    77.7800       704
    77.8000       668
    77.8200       652
    77.8400       634
    77.8600       664
    77.8800       612
    77.9000       646
    77.9200       580
    77.9400       562
    77.9600       522
    77.9800       506
    78.0000       466
    78.0200       436
    78.0400       450
    78.0600       468
    78.0800       416
    78.1000       420
    78.1200       366
    78.1400       376
    78.1600       370
    78.1800       402
    78.2000       344
    78.2200       356
    78.2400       340
    78.2600       346
    78.2800       334
    78.3000       310
    78.3200       344
    78.3400       358
    78.3600       310
    78.3800       314
    78.4000       368
    78.4200       328
    78.4400       328
    78.4600       372
    78.4800       384
    78.5000       358
    78.5200       340
    78.5400       380
    78.5600       362
    78.5800       372
    78.6000       372
    78.6200       378
    78.6400       360
    78.6600       378
    78.6800       400
    78.7000       414
    78.7200       396
    78.7400       390
    78.7600       392
    78.7800       412
    78.8000       396
    78.8200       382
    78.8400       356
    78.8600       390
    78.8800       356
    78.9000       378
    78.9200       330
    78.9400       370
    78.9600       332
    78.9800       358
    79.0000       338
    79.0200       322
    79.0400       284
    79.0600       304
    79.0800       290
    79.1000       278
    79.1200       282
    79.1400       314
    79.1600       276
    79.1800       240
    79.2000       266
    79.2200       272
    79.2400       268
    79.2600       266
    79.2800       262
    79.3000       270
    79.3200       236
    79.3400       250
    79.3600       266
    79.3800       294
    79.4000       274
    79.4200       242
    79.4400       256
    79.4600       286
    79.4800       244
    79.5000       264
    79.5200       242
    79.5400       278
    79.5600       256
    79.5800       256
    79.6000       270
    79.6200       284
    79.6400       262
    79.6600       262
    79.6800       252
    79.7000       282
    79.7200       248
    79.7400       268
    79.7600       256
    79.7800       250
    79.8000       238
    79.8200       218
    79.8400       278
    79.8600       246
    79.8800       250
    79.9000       242
    79.9200       248
    79.9400       252
    79.9600       260
    79.9800       218
    80.0000       240
    80.0200       234
    80.0400       230
    80.0600       252
    80.0800       254
    80.1000       278
    80.1200       214
    80.1400       254
    80.1600       240
    80.1800       290
    80.2000       240
    80.2200       260
    80.2400       236
    80.2600       232
    80.2800       242
    80.3000       268
    80.3200       260
    80.3400       276
    80.3600       284
    80.3800       294
    80.4000       298
    80.4200       312
    80.4400       282
    80.4600       292
    80.4800       324
    80.5000       310
    80.5200       324
    80.5400       270
    80.5600       318
    80.5800       300
    80.6000       300
    80.6200       276
    80.6400       316
    80.6600       312
    80.6800       270
    80.7000       290
    80.7200       288
    80.7400       286
    80.7600       252
    80.7800       248
    80.8000       262
    80.8200       252
    80.8400       276
    80.8600       248
    80.8800       258
    80.9000       224
    80.9200       234
    80.9400       236
    80.9600       214
    80.9800       238
    81.0000       236
    81.0200       246
    81.0400       224
    81.0600       244
    81.0800       230
    81.1000       220
    81.1200       228
    81.1400       204
    81.1600       218
    81.1800       276
    81.2000       236
    81.2200       226
    81.2400       224
    81.2600       262
    81.2800       260
    81.3000       212
    81.3200       248
    81.3400       254
    81.3600       250
    81.3800       222
    81.4000       292
    81.4200       252
    81.4400       216
    81.4600       236
    81.4800       260
    81.5000       236
    81.5200       234
    81.5400       262
    81.5600       246
    81.5800       252
    81.6000       264
    81.6200       260
    81.6400       254
    81.6600       280
    81.6800       248
    81.7000       272
    81.7200       290
    81.7400       262
    81.7600       260
    81.7800       270
    81.8000       302
    81.8200       276
    81.8400       268
    81.8600       298
    81.8800       270
    81.9000       292
    81.9200       284
    81.9400       308
    81.9600       310
    81.9800       340
    82.0000       300
    82.0200       304
    82.0400       306
    82.0600       330
    82.0800       352
    82.1000       374
    82.1200       316
    82.1400       328
    82.1600       350
    82.1800       332
    82.2000       328
    82.2200       324
    82.2400       372
    82.2600       332
    82.2800       404
    82.3000       310
    82.3200       356
    82.3400       364
    82.3600       372
    82.3800       380
    82.4000       400
    82.4200       384
    82.4400       354
    82.4600       354
    82.4800       354
    82.5000       362
    82.5200       402
    82.5400       376
    82.5600       392
    82.5800       396
    82.6000       410
    82.6200       420
    82.6400       458
    82.6600       454
    82.6800       486
    82.7000       466
    82.7200       524
    82.7400       496
    82.7600       542
    82.7800       542
    82.8000       584
    82.8200       614
    82.8400       606
    82.8600       582
    82.8800       604
    82.9000       636
    82.9200       656
    82.9400       678
    82.9600       694
    82.9800       734
    83.0000       658
    83.0200       692
    83.0400       660
    83.0600       670
    83.0800       588
    83.1000       608
    83.1200       640
    83.1400       616
    83.1600       546
    83.1800       584
    83.2000       548
    83.2200       576
    83.2400       562
    83.2600       522
    83.2800       488
    83.3000       524
    83.3200       484
    83.3400       464
    83.3600       470
    83.3800       476
    83.4000       470
    83.4200       408
    83.4400       398
    83.4600       380
    83.4800       392
    83.5000       388
    83.5200       348
    83.5400       342
    83.5600       348
    83.5800       336
    83.6000       378
    83.6200       370
    83.6400       314
    83.6600       348
    83.6800       292
    83.7000       298
    83.7200       318
    83.7400       286
    83.7600       264
    83.7800       246
    83.8000       290
    83.8200       298
    83.8400       272
    83.8600       268
    83.8800       282
    83.9000       294
    83.9200       262
    83.9400       284
    83.9600       302
    83.9800       282
    84.0000       280
    84.0200       310
    84.0400       282
    84.0600       294
    84.0800       326
    84.1000       316
    84.1200       294
    84.1400       334
    84.1600       310
    84.1800       310
    84.2000       286
    84.2200       308
    84.2400       306
    84.2600       306
    84.2800       288
    84.3000       306
    84.3200       350
    84.3400       350
    84.3600       302
    84.3800       330
    84.4000       324
    84.4200       314
    84.4400       322
    84.4600       354
    84.4800       300
    84.5000       318
    84.5200       306
    84.5400       318
    84.5600       340
    84.5800       314
    84.6000       316
    84.6200       296
    84.6400       258
    84.6600       264
    84.6800       314
    84.7000       300
    84.7200       330
    84.7400       304
    84.7600       314
    84.7800       262
    84.8000       310
    84.8200       294
    84.8400       290
    84.8600       326
    84.8800       270
    84.9000       288
    84.9200       294
    84.9400       292
    84.9600       254
    84.9800       254
    85.0000       308
    85.0200       282
    85.0400       274
    85.0600       258
    85.0800       284
    85.1000       252
    85.1200       282
    85.1400       252
    85.1600       264
    85.1800       260
    85.2000       272
    85.2200       274
    85.2400       234
    85.2600       268
    85.2800       276
    85.3000       270
    85.3200       248
    85.3400       260
    85.3600       248
    85.3800       246
    85.4000       270
    85.4200       296
    85.4400       286
    85.4600       280
    85.4800       286
    85.5000       280
    85.5200       278
    85.5400       310
    85.5600       310
    85.5800       284
    85.6000       276
    85.6200       284
    85.6400       274
    85.6600       258
    85.6800       292
    85.7000       306
    85.7200       276
    85.7400       256
    85.7600       266
    85.7800       262
    85.8000       278
    85.8200       276
    85.8400       260
    85.8600       292
    85.8800       296
    85.9000       236
    85.9200       252
    85.9400       252
    85.9600       242
    85.9800       212
    86.0000       226
    86.0200       254
    86.0400       230
    86.0600       220
    86.0800       268
    86.1000       222
    86.1200       246
    86.1400       232
    86.1600       202
    86.1800       242
    86.2000       232
    86.2200       208
    86.2400       232
    86.2600       214
    86.2800       254
    86.3000       238
    86.3200       218
    86.3400       236
    86.3600       228
    86.3800       228
    86.4000       230
    86.4200       218
    86.4400       210
    86.4600       208
    86.4800       216
    86.5000       250
    86.5200       236
    86.5400       256
    86.5600       246
    86.5800       250
    86.6000       236
    86.6200       246
    86.6400       262
    86.6600       254
    86.6800       262
    86.7000       260
    86.7200       286
    86.7400       288
    86.7600       278
    86.7800       298
    86.8000       302
    86.8200       298
    86.8400       344
    86.8600       324
    86.8800       338
    86.9000       384
    86.9200       324
    86.9400       396
    86.9600       372
    86.9800       380
    87.0000       378
    87.0200       394
    87.0400       362
    87.0600       332
    87.0800       382
    87.1000       342
    87.1200       374
    87.1400       344
    87.1600       340
    87.1800       300
    87.2000       294
    87.2200       308
    87.2400       310
    87.2600       306
    87.2800       324
    87.3000       298
    87.3200       294
    87.3400       338
    87.3600       292
    87.3800       284
    87.4000       262
    87.4200       290
    87.4400       284
    87.4600       286
    87.4800       258
    87.5000       276
    87.5200       264
    87.5400       300
    87.5600       304
    87.5800       294
    87.6000       284
    87.6200       290
    87.6400       324
    87.6600       306
    87.6800       298
    87.7000       370
    87.7200       324
    87.7400       368
    87.7600       362
    87.7800       356
    87.8000       380
    87.8200       400
    87.8400       396
    87.8600       424
    87.8800       388
    87.9000       430
    87.9200       406
    87.9400       444
    87.9600       386
    87.9800       424
    88.0000       436
    88.0200       406
    88.0400       396
    88.0600       432
    88.0800       432
    88.1000       426
    88.1200       464
    88.1400       432
    88.1600       430
    88.1800       436
    88.2000       454
    88.2200       458
    88.2400       482
    88.2600       444
    88.2800       404
    88.3000       416
    88.3200       448
    88.3400       408
    88.3600       428
    88.3800       434
    88.4000       468
    88.4200       404
    88.4400       434
    88.4600       390
    88.4800       406
    88.5000       396
    88.5200       460
    88.5400       388
    88.5600       424
    88.5800       414
    88.6000       428
    88.6200       440
    88.6400       390
    88.6600       410
    88.6800       346
    88.7000       388
    88.7200       354
    88.7400       392
    88.7600       360
    88.7800       360
    88.8000       346
    88.8200       358
    88.8400       350
    88.8600       330
    88.8800       320
    88.9000       338
    88.9200       306
    88.9400       304
    88.9600       316
    88.9800       270
    89.0000       292
    89.0200       288
    89.0400       268
    89.0600       252
    89.0800       268
    89.1000       262
    89.1200       224
    89.1400       264
    89.1600       222
    89.1800       236
    89.2000       238
    89.2200       230
    89.2400       254
    89.2600       204
    89.2800       264
    89.3000       228
    89.3200       246
    89.3400       258
    89.3600       260
    89.3800       252
    89.4000       248
    89.4200       282
    89.4400       230
    89.4600       250
    89.4800       250
    89.5000       262
    89.5200       236
    89.5400       232
    89.5600       238
    89.5800       268
    89.6000       266
    89.6200       256
    89.6400       270
    89.6600       242
    89.6800       262
    89.7000       294
    89.7200       266
    89.7400       266
    89.7600       282
    89.7800       238
    89.8000       278
    89.8200       296
    89.8400       252
    89.8600       258
    89.8800       304
    89.9000       262
    89.9200       298
    89.9400       256
    89.9600       236
    89.9800       304
    90.0000       308
