    10.0000       356
    10.0200       376
    10.0400       346
    10.0600       348
    10.0800       376
    10.1000       376
    10.1200       350
    10.1400       428
    10.1600       360
    10.1800       358
    10.2000       338
    10.2200       342
    10.2400       398
    10.2600       356
    10.2800       362
    10.3000       338
    10.3200       358
    10.3400       336
    10.3600       334
    10.3800       336
    10.4000       352
    10.4200       328
    10.4400       334
    10.4600       344
    10.4800       358
    10.5000       366
    10.5200       306
    10.5400       344
    10.5600       316
    10.5800       354
    10.6000       346
    10.6200       352
    10.6400       316
    10.6600       348
    10.6800       330
    10.7000       324
    10.7200       350
    10.7400       320
    10.7600       340
    10.7800       320
    10.8000       316
    10.8200       308
    10.8400       314
    10.8600       316
    10.8800       314
    10.9000       330
    10.9200       318
    10.9400       336
    10.9600       324
    10.9800       360
    11.0000       318
    11.0200       320
    11.0400       318
    11.0600       322
    11.0800       324
    11.1000       314
    11.1200       326
    11.1400       314
    11.1600       322
    11.1800       304
    11.2000       352
    11.2200       328
    11.2400       318
    11.2600       330
    11.2800       308
    11.3000       344
    11.3200       320
    11.3400       304
    11.3600       328
    11.3800       326
    11.4000       320
    11.4200       382
    11.4400       346
    11.4600       318
    11.4800       380
    11.5000       326
    11.5200       322
    11.5400       326
    11.5600       342
    11.5800       340
    11.6000       354
    11.6200       280
    11.6400       322
    11.6600       286
    11.6800       324
    11.7000       350
    11.7200       350
    11.7400       342
    11.7600       328
    11.7800       358
    11.8000       360
    11.8200       344
    11.8400       360
    11.8600       340
    11.8800       416
    11.9000       402
    11.9200       414
    11.9400       418
    11.9600       456
    11.9800       472
    12.0000       486
    12.0200       468
    12.0400       524
    12.0600       536
    12.0800       572
    12.1000       660
    12.1200       656
    12.1400       798
    12.1600       786
    12.1800       824
    12.2000       862
    12.2200       840
    12.2400       750
    12.2600       674
    12.2800       562
    12.3000       480
    12.3200       474
    12.3400       388
    12.3600       362
    12.3800       364
    12.4000       314
    12.4200       308
    12.4400       332
    12.4600       342
    12.4800       276
    12.5000       298
    12.5200       304
    12.5400       308
    12.5600       286
    12.5800       324
    12.6000       298
    12.6200       324
    12.6400       294
    12.6600       292
    12.6800       330
    12.7000       302
    12.7200       304
    12.7400       316
    12.7600       278
    12.7800       284
    12.8000       292
    12.8200       310
    12.8400       290
    12.8600       294
    12.8800       326
    12.9000       288
    12.9200       278
    12.9400       248
    12.9600       292
    12.9800       270
    13.0000       286
    13.0200       274
    13.0400       284
    13.0600       278
    13.0800       308
    13.1000       276
    13.1200       250
    13.1400       276
    13.1600       278
    13.1800       270
    13.2000       264
    13.2200       276
    13.2400       280
    13.2600       300
    13.2800       260
    13.3000       292
    13.3200       258
    13.3400       284
    13.3600       284
    13.3800       250
    13.4000       278
    13.4200       270
    13.4400       258
    13.4600       296
    13.4800       264
    13.5000       254
    13.5200       254
    13.5400       264
    13.5600       266
    13.5800       270
    13.6000       242
    13.6200       250
    13.6400       258
    13.6600       286
    13.6800       276
    13.7000       248
    13.7200       246
    13.7400       262
    13.7600       262
    13.7800       250
    13.8000       248
    13.8200       244
    13.8400       268
    13.8600       250
    13.8800       242
    13.9000       282
    13.9200       242
    13.9400       272
    13.9600       286
    13.9800       248
    14.0000       264
    14.0200       240
    14.0400       284
    14.0600       286
    14.0800       276
    14.1000       236
    14.1200       262
    14.1400       274
    14.1600       270
    14.1800       252
    14.2000       246
    14.2200       248
    14.2400       254
    14.2600       228
    14.2800       252
    14.3000       262
    14.3200       232
    14.3400       236
    14.3600       246
    14.3800       250
    14.4000       258
    14.4200       258
    14.4400       262
    14.4600       258
    14.4800       238
    14.5000       242
    14.5200       258
    14.5400       224
    14.5600       294
    14.5800       254
    14.6000       270
    14.6200       294
    14.6400       254
    14.6600       248
    14.6800       296
    14.7000       270
    14.7200       318
    14.7400       288
    14.7600       294
    14.7800       322
    14.8000       308
    14.8200       310
    14.8400       304
    14.8600       314
    14.8800       398
    14.9000       410
    14.9200       400
    14.9400       408
    14.9600       454
    14.9800       536
    15.0000       554
    15.0200       594
    15.0400       636
    15.0600       660
    15.0800       736
    15.1000       822
    15.1200       866
    15.1400       922
    15.1600      1032
    15.1800      1062
    15.2000      1122
    15.2200      1096
    15.2400      1006
    15.2600       830
    15.2800       670
    15.3000       574
    15.3200       464
    15.3400       366
    15.3600       392
    15.3800       366
    15.4000       314
    15.4200       320
    15.4400       302
    15.4600       284
    15.4800       264
    15.5000       276
    15.5200       254
    15.5400       262
    15.5600       284
    15.5800       266
    15.6000       220
    15.6200       240
    15.6400       268
    15.6600       258
    15.6800       234
    15.7000       282
    15.7200       234
    15.7400       252
    15.7600       258
    15.7800       232
    15.8000       228
    15.8200       252
    15.8400       232
    15.8600       248
    15.8800       224
    15.9000       236
    15.9200       236
    15.9400       256
    15.9600       216
    15.9800       220
    16.0000       272
    16.0200       246
    16.0400       240
    16.0600       248
    16.0800       258
    16.1000       262
    16.1200       294
    16.1400       276
    16.1600       262
    16.1800       296
    16.2000       238
    16.2200       272
    16.2400       286
    16.2600       276
    16.2800       270
    16.3000       296
    16.3200       258
    16.3400       284
    16.3600       254
    16.3800       262
    16.4000       240
    16.4200       252
    16.4400       244
    16.4600       240
    16.4800       250
    16.5000       254
    16.5200       268
    16.5400       272
    16.5600       248
    16.5800       256
    16.6000       300
    16.6200       304
    16.6400       308
    16.6600       290
    16.6800       352
    16.7000       340
    16.7200       358
    16.7400       414
    16.7600       392
    16.7800       448
    16.8000       486
    16.8200       478
    16.8400       548
    16.8600       574
    16.8800       670
    16.9000       778
    16.9200       836
    16.9400       906
    16.9600      1060
    16.9800      1196
    17.0000      1396
    17.0200      1476
    17.0400      1672
    17.0600      1586
    17.0800      1532
    17.1000      1366
    17.1200      1192
    17.1400      1092
    17.1600      1008
    17.1800      1012
    17.2000       938
    17.2200       936
    17.2400       820
    17.2600       844
    17.2800       856
    17.3000       774
    17.3200       712
    17.3400       614
    17.3600       566
    17.3800       538
    17.4000       486
    17.4200       438
    17.4400       410
    17.4600       390
    17.4800       404
    17.5000       416
    17.5200       360
    17.5400       378
    17.5600       338
    17.5800       360
    17.6000       382
    17.6200       370
    17.6400       374
    17.6600       400
    17.6800       392
    17.7000       424
    17.7200       458
    17.7400       496
    17.7600       416
    17.7800       526
    17.8000       546
    17.8200       550
    17.8400       556
    17.8600       552
    17.8800       522
    17.9000       460
    17.9200       424
    17.9400       378
    17.9600       310
    17.9800       272
    18.0000       294
    18.0200       270
    18.0400       246
    18.0600       244
    18.0800       230
    18.1000       246
    18.1200       236
    18.1400       214
    18.1600       224
    18.1800       236
    18.2000       194
    18.2200       232
    18.2400       218
    18.2600       204
    18.2800       220
    18.3000       208
    18.3200       208
    18.3400       206
    18.3600       206
    18.3800       224
    18.4000       228
    18.4200       232
    18.4400       196
    18.4600       190
    18.4800       200
    18.5000       206
    18.5200       212
    18.5400       228
    18.5600       230
    18.5800       234
    18.6000       218
    18.6200       212
    18.6400       220
    18.6600       218
    18.6800       222
    18.7000       230
    18.7200       214
    18.7400       212
    18.7600       200
    18.7800       214
    18.8000       204
    18.8200       234
    18.8400       206
    18.8600       256
    18.8800       250
    18.9000       270
    18.9200       232
    18.9400       220
    18.9600       242
    18.9800       248
    19.0000       264
    19.0200       290
    19.0400       266
    19.0600       276
    19.0800       282
    19.1000       288
    19.1200       326
    19.1400       332
    19.1600       374
    19.1800       382
    19.2000       406
    19.2200       484
    19.2400       470
    19.2600       550
    19.2800       580
    19.3000       684
    19.3200       744
    19.3400       814
    19.3600       878
    19.3800      1136
    19.4000      1208
    19.4200      1392
    19.4400      1658
    19.4600      1824
    19.4800      2110
    19.5000      2528
    19.5200      2716
    19.5400      2788
    19.5600      2776
    19.5800      2536
    19.6000      2088
    19.6200      1706
    19.6400      1320
    19.6600      1130
    19.6800       940
    19.7000       842
    19.7200       838
    19.7400       842
    19.7600       844
    19.7800       848
    19.8000      1002
    19.8200       976
    19.8400      1072
    19.8600      1326
    19.8800      1440
    19.9000      1570
    19.9200      1840
    19.9400      2028
    19.9600      2180
    19.9800      2210
    20.0000      2222
    20.0200      1976
    20.0400      1752
    20.0600      1466
    20.0800      1150
    20.1000       948
    20.1200       740
    20.1400       616
    20.1600       484
    20.1800       396
    20.2000       428
    20.2200       388
    20.2400       376
    20.2600       364
    20.2800       362
    20.3000       324
    20.3200       324
    20.3400       330
    20.3600       326
    20.3800       296
    20.4000       294
    20.4200       276
    20.4400       270
    20.4600       296
    20.4800       268
    20.5000       230
    20.5200       240
    20.5400       232
    20.5600       262
    20.5800       248
    20.6000       290
    20.6200       240
    20.6400       226
    20.6600       264
    20.6800       264
    20.7000       292
    20.7200       254
    20.7400       268
    20.7600       290
    20.7800       316
    20.8000       352
    20.8200       346
    20.8400       362
    20.8600       400
    20.8800       408
    20.9000       456
    20.9200       522
    20.9400       578
    20.9600       626
    20.9800       698
    21.0000       784
    21.0200       866
    21.0400       998
    21.0600      1156
    21.0800      1318
    21.1000      1482
    21.1200      1644
    21.1400      1956
    21.1600      2240
    21.1800      2326
    21.2000      2424
    21.2200      2464
    21.2400      2362
    21.2600      2318
    21.2800      1948
    21.3000      1780
    21.3200      1438
    21.3400      1210
    21.3600       998
    21.3800       798
    21.4000       714
    21.4200       630
    21.4400       530
    21.4600       454
    21.4800       386
    21.5000       380
    21.5200       326
    21.5400       344
    21.5600       318
    21.5800       296
    21.6000       284
    21.6200       258
    21.6400       242
    21.6600       264
    21.6800       246
    21.7000       252
    21.7200       258
    21.7400       238
    21.7600       220
    21.7800       232
    21.8000       200
    21.8200       206
    21.8400       242
    21.8600       230
    21.8800       232
    21.9000       214
    21.9200       206
    21.9400       214
    21.9600       208
    21.9800       208
    22.0000       218
    22.0200       218
    22.0400       224
    22.0600       220
    22.0800       196
    22.1000       222
    22.1200       202
    22.1400       234
    22.1600       236
    22.1800       226
    22.2000       216
    22.2200       222
    22.2400       256
    22.2600       242
    22.2800       242
    22.3000       272
    22.3200       254
    22.3400       240
    22.3600       258
    22.3800       266
    22.4000       336
    22.4200       312
    22.4400       326
    22.4600       384
    22.4800       394
    22.5000       438
    22.5200       460
    22.5400       530
    22.5600       556
    22.5800       652
    22.6000       668
    22.6200       826
    22.6400       878
    22.6600      1046
    22.6800      1232
    22.7000      1350
    22.7200      1582
    22.7400      1848
    22.7600      2226
    22.7800      2640
    22.8000      3182
    22.8200      3496
    22.8400      3790
    22.8600      4012
    22.8800      3866
    22.9000      3508
    22.9200      2908
    22.9400      2450
    22.9600      1994
    22.9800      1442
    23.0000      1210
    23.0200       926
    23.0400       818
    23.0600       744
    23.0800       620
    23.1000       596
    23.1200       530
    23.1400       518
    23.1600       440
    23.1800       422
    23.2000       424
    23.2200       378
    23.2400       404
    23.2600       344
    23.2800       356
    23.3000       340
    23.3200       318
    23.3400       300
    23.3600       286
    23.3800       314
    23.4000       276
    23.4200       278
    23.4400       250
    23.4600       256
    23.4800       244
    23.5000       212
    23.5200       268
    23.5400       298
    23.5600       244
    23.5800       234
    23.6000       216
    23.6200       244
    23.6400       266
    23.6600       248
    23.6800       226
    23.7000       244
    23.7200       252
    23.7400       242
    23.7600       260
    23.7800       228
    23.8000       252
    23.8200       248
    23.8400       246
    23.8600       248
    23.8800       264
    23.9000       242
    23.9200       234
    23.9400       278
    23.9600       282
    23.9800       274
    24.0000       264
    24.0200       282
    24.0400       250
    24.0600       258
    24.0800       266
    24.1000       280
    24.1200       282
    24.1400       314
    24.1600       306
    24.1800       350
    24.2000       378
    24.2200       360
    24.2400       402
    24.2600       414
    24.2800       444
    24.3000       518
    24.3200       552
    24.3400       564
    24.3600       694
    24.3800       740
    24.4000       870
    24.4200       948
    24.4400      1074
    24.4600      1212
    24.4800      1378
    24.5000      1462
    24.5200      1524
    24.5400      1546
    24.5600      1614
    24.5800      1554
    24.6000      1458
    24.6200      1350
    24.6400      1194
    24.6600      1080
    24.6800       992
    24.7000       860
    24.7200       820
    24.7400       738
    24.7600       722
    24.7800       678
    24.8000       636
    24.8200       564
    24.8400       528
    24.8600       482
    24.8800       452
    24.9000       480
    24.9200       424
    24.9400       434
    24.9600       410
    24.9800       428
    25.0000       476
    25.0200       480
    25.0400       434
    25.0600       476
    25.0800       480
    25.1000       494
    25.1200       494
    25.1400       522
    25.1600       510
    25.1800       624
    25.2000       592
    25.2200       602
    25.2400       696
    25.2600       746
    25.2800       798
    25.3000       868
    25.3200       900
    25.3400       912
    25.3600       884
    25.3800       922
    25.4000       906
    25.4200       872
    25.4400       828
    25.4600       884
    25.4800       898
    25.5000       928
    25.5200       936
    25.5400       994
    25.5600      1072
    25.5800      1108
    25.6000      1092
    25.6200      1078
    25.6400      1006
    25.6600       902
    25.6800       784
    25.7000       704
    25.7200       622
    25.7400       542
    25.7600       500
    25.7800       466
    25.8000       388
    25.8200       390
    25.8400       356
    25.8600       368
    25.8800       380
    25.9000       346
    25.9200       326
    25.9400       286
    25.9600       322
    25.9800       324
    26.0000       304
    26.0200       300
    26.0400       306
    26.0600       258
    26.0800       342
    26.1000       286
    26.1200       276
    26.1400       314
    26.1600       272
    26.1800       310
    26.2000       284
    26.2200       280
    26.2400       318
    26.2600       304
    26.2800       300
    26.3000       314
    26.3200       308
    26.3400       320
    26.3600       300
    26.3800       350
    26.4000       366
    26.4200       344
    26.4400       308
    26.4600       354
    26.4800       362
    26.5000       366
    26.5200       330
    26.5400       346
    26.5600       360
    26.5800       360
    26.6000       312
    26.6200       360
    26.6400       366
    26.6600       352
    26.6800       328
    26.7000       374
    26.7200       342
    26.7400       336
    26.7600       312
    26.7800       334
    26.8000       290
    26.8200       308
    26.8400       282
    26.8600       274
    26.8800       292
    26.9000       280
    26.9200       252
    26.9400       248
    26.9600       270
    26.9800       306
    27.0000       268
    27.0200       296
    27.0400       294
    27.0600       294
    27.0800       332
    27.1000       350
    27.1200       388
    27.1400       368
    27.1600       404
    27.1800       426
    27.2000       450
    27.2200       462
    27.2400       534
    27.2600       590
    27.2800       624
    27.3000       736
    27.3200       760
    27.3400       902
    27.3600       948
    27.3800      1128
    27.4000      1188
    27.4200      1282
    27.4400      1348
    27.4600      1476
    27.4800      1522
    27.5000      1476
    27.5200      1460
    27.5400      1324
    27.5600      1302
    27.5800      1216
    27.6000      1126
    27.6200       966
    27.6400       908
    27.6600       848
    27.6800       734
    27.7000       658
    27.7200       566
    27.7400       522
    27.7600       494
    27.7800       458
    27.8000       392
    27.8200       384
    27.8400       330
    27.8600       350
    27.8800       332
    27.9000       318
    27.9200       302
    27.9400       304
    27.9600       270
    27.9800       284
    28.0000       258
    28.0200       270
    28.0400       274
    28.0600       258
    28.0800       224
    28.1000       256
    28.1200       256
    28.1400       234
    28.1600       268
    28.1800       254
    28.2000       234
    28.2200       268
    28.2400       262
    28.2600       296
    28.2800       246
    28.3000       240
    28.3200       260
    28.3400       256
    28.3600       266
    28.3800       294
    28.4000       266
    28.4200       254
    28.4400       276
    28.4600       260
    28.4800       246
    28.5000       260
    28.5200       258
    28.5400       252
    28.5600       294
    28.5800       268
    28.6000       266
    28.6200       300
    28.6400       336
    28.6600       324
    28.6800       366
    28.7000       366
    28.7200       350
    28.7400       338
    28.7600       318
    28.7800       340
    28.8000       302
    28.8200       304
    28.8400       292
    28.8600       274
    28.8800       288
    28.9000       266
    28.9200       282
    28.9400       282
    28.9600       268
    28.9800       260
    29.0000       258
    29.0200       278
    29.0400       282
    29.0600       254
    29.0800       258
    29.1000       296
    29.1200       244
    29.1400       300
    29.1600       256
    29.1800       280
    29.2000       284
    29.2200       320
    29.2400       288
    29.2600       318
    29.2800       336
    29.3000       318
    29.3200       342
    29.3400       366
    29.3600       358
    29.3800       374
    29.4000       402
    29.4200       408
    29.4400       380
    29.4600       468
    29.4800       424
    29.5000       524
    29.5200       524
    29.5400       558
    29.5600       614
    29.5800       674
    29.6000       712
    29.6200       750
    29.6400       766
    29.6600       884
    29.6800       866
    29.7000       846
    29.7200       888
    29.7400       840
    29.7600       754
    29.7800       700
    29.8000       690
    29.8200       640
    29.8400       604
    29.8600       622
    29.8800       570
    29.9000       554
    29.9200       610
    29.9400       708
    29.9600       778
    29.9800       824
    30.0000       932
    30.0200      1090
    30.0400      1198
    30.0600      1394
    30.0800      1586
    30.1000      1822
    30.1200      1946
    30.1400      2242
    30.1600      2328
    30.1800      2418
    30.2000      2454
    30.2200      2420
    30.2400      2452
    30.2600      2188
    30.2800      2208
    30.3000      1966
    30.3200      1940
    30.3400      1780
    30.3600      1630
    30.3800      1658
    30.4000      1530
    30.4200      1588
    30.4400      1646
    30.4600      1722
    30.4800      1846
    30.5000      2018
    30.5200      1956
    30.5400      2202
    30.5600      2484
    30.5800      2750
    30.6000      3112
    30.6200      3252
    30.6400      3672
    30.6600      3930
    30.6800      4224
    30.7000      4402
    30.7200      4256
    30.7400      3898
    30.7600      3512
    30.7800      3170
    30.8000      2760
    30.8200      2260
    30.8400      1860
    30.8600      1626
    30.8800      1296
    30.9000      1068
    30.9200       876
    30.9400       810
    30.9600       700
    30.9800       682
    31.0000       632
    31.0200       580
    31.0400       542
    31.0600       514
    31.0800       458
    31.1000       466
    31.1200       386
    31.1400       394
    31.1600       380
    31.1800       348
    31.2000       348
    31.2200       322
    31.2400       322
    31.2600       324
    31.2800       310
    31.3000       310
    31.3200       338
    31.3400       292
    31.3600       346
    31.3800       304
    31.4000       292
    31.4200       300
    31.4400       330
    31.4600       296
    31.4800       320
    31.5000       328
    31.5200       352
    31.5400       348
    31.5600       338
    31.5800       324
    31.6000       398
    31.6200       384
    31.6400       386
    31.6600       360
    31.6800       462
    31.7000       462
    31.7200       478
    31.7400       538
    31.7600       604
    31.7800       658
    31.8000       744
    31.8200       820
    31.8400       990
    31.8600      1004
    31.8800      1204
    31.9000      1392
    31.9200      1534
    31.9400      1714
    31.9600      2068
    31.9800      2116
    32.0000      2056
    32.0200      2024
    32.0400      2054
    32.0600      1820
    32.0800      1576
    32.1000      1476
    32.1200      1238
    32.1400      1214
    32.1600      1126
    32.1800      1046
    32.2000      1006
    32.2200      1076
    32.2400      1142
    32.2600      1226
    32.2800      1282
    32.3000      1386
    32.3200      1562
    32.3400      1854
    32.3600      1988
    32.3800      2410
    32.4000      2814
    32.4200      3294
    32.4400      3914
    32.4600      4536
    32.4800      5196
    32.5000      5842
    32.5200      6306
    32.5400      6760
    32.5600      6964
    32.5800      6952
    32.6000      6458
    32.6200      5838
    32.6400      5342
    32.6600      4556
    32.6800      3936
    32.7000      3286
    32.7200      2834
    32.7400      2406
    32.7600      2094
    32.7800      1728
    32.8000      1518
    32.8200      1444
    32.8400      1206
    32.8600      1178
    32.8800      1080
    32.9000      1062
    32.9200      1022
    32.9400      1004
    32.9600      1046
    32.9800      1102
    33.0000      1218
    33.0200      1300
    33.0400      1368
    33.0600      1448
    33.0800      1450
    33.1000      1452
    33.1200      1434
    33.1400      1278
    33.1600      1178
    33.1800      1028
    33.2000       928
    33.2200       836
    33.2400       700
    33.2600       646
    33.2800       556
    33.3000       524
    33.3200       412
    33.3400       438
    33.3600       368
    33.3800       354
    33.4000       326
    33.4200       314
    33.4400       332
    33.4600       308
    33.4800       254
    33.5000       282
    33.5200       276
    33.5400       266
    33.5600       282
    33.5800       278
    33.6000       274
    33.6200       254
    33.6400       284
    33.6600       254
    33.6800       266
    33.7000       250
    33.7200       252
    33.7400       230
    33.7600       226
    33.7800       234
    33.8000       256
    33.8200       270
    33.8400       250
    33.8600       196
    33.8800       222
    33.9000       268
    33.9200       256
    33.9400       218
    33.9600       220
    33.9800       262
    34.0000       254
    34.0200       226
    34.0400       226
    34.0600       260
    34.0800       238
    34.1000       232
    34.1200       240
    34.1400       264
    34.1600       260
    34.1800       260
    34.2000       258
    34.2200       220
    34.2400       268
    34.2600       246
    34.2800       246
    34.3000       310
    34.3200       294
    34.3400       330
    34.3600       332
    34.3800       368
    34.4000       378
    34.4200       434
    34.4400       418
    34.4600       486
    34.4800       468
    34.5000       494
    34.5200       526
    34.5400       466
    34.5600       428
    34.5800       442
    34.6000       420
    34.6200       408
    34.6400       392
    34.6600       374
    34.6800       328
    34.7000       350
    34.7200       342
    34.7400       374
    34.7600       346
    34.7800       334
    34.8000       342
    34.8200       328
    34.8400       370
    34.8600       364
    34.8800       344
    34.9000       378
    34.9200       350
    34.9400       406
    34.9600       404
    34.9800       388
    35.0000       414
    35.0200       392
    35.0400       410
    35.0600       450
    35.0800       428
    35.1000       426
    35.1200       442
    35.1400       460
    35.1600       406
    35.1800       360
    35.2000       378
    35.2200       346
    35.2400       320
    35.2600       312
    35.2800       278
    35.3000       300
    35.3200       298
    35.3400       250
    35.3600       294
    35.3800       276
    35.4000       254
    35.4200       282
    35.4400       260
    35.4600       292
    35.4800       278
    35.5000       278
    35.5200       276
    35.5400       270
    35.5600       284
    35.5800       290
    35.6000       292
    35.6200       292
    35.6400       310
    35.6600       286
    35.6800       286
    35.7000       264
    35.7200       306
    35.7400       310
    35.7600       326
    35.7800       320
    35.8000       316
    35.8200       320
    35.8400       348
    35.8600       358
    35.8800       370
    35.9000       400
    35.9200       410
    35.9400       406
    35.9600       492
    35.9800       454
    36.0000       522
    36.0200       596
    36.0400       630
    36.0600       692
    36.0800       774
    36.1000       828
    36.1200       856
    36.1400       866
    36.1600       856
    36.1800       826
    36.2000       766
    36.2200       746
    36.2400       694
    36.2600       576
    36.2800       572
    36.3000       526
    36.3200       478
    36.3400       412
    36.3600       396
    36.3800       406
    36.4000       390
    36.4200       374
    36.4400       364
    36.4600       368
    36.4800       370
    36.5000       428
    36.5200       434
    36.5400       378
    36.5600       422
    36.5800       438
    36.6000       484
    36.6200       500
    36.6400       502
    36.6600       576
    36.6800       636
    36.7000       634
    36.7200       772
    36.7400       864
    36.7600       920
    36.7800      1138
    36.8000      1224
    36.8200      1400
    36.8400      1580
    36.8600      1702
    36.8800      1804
    36.9000      1840
    36.9200      1756
    36.9400      1730
    36.9600      1682
    36.9800      1524
    37.0000      1438
    37.0200      1348
    37.0400      1222
    37.0600      1120
    37.0800      1062
    37.1000      1048
    37.1200      1028
    37.1400      1014
    37.1600      1044
    37.1800       960
    37.2000       926
    37.2200       936
    37.2400       972
    37.2600       832
    37.2800       808
    37.3000       786
    37.3200       782
    37.3400       730
    37.3600       734
    37.3800       674
    37.4000       672
    37.4200       630
    37.4400       596
    37.4600       526
    37.4800       626
    37.5000       582
    37.5200       570
    37.5400       584
    37.5600       574
    37.5800       598
    37.6000       568
    37.6200       630
    37.6400       634
    37.6600       714
    37.6800       744
    37.7000       690
    37.7200       734
    37.7400       752
    37.7600       766
    37.7800       828
    37.8000       854
    37.8200       844
    37.8400       874
    37.8600       930
    37.8800      1114
    37.9000      1130
    37.9200      1236
    37.9400      1368
    37.9600      1526
    37.9800      1642
    38.0000      1758
    38.0200      1804
    38.0400      1826
    38.0600      1738
    38.0800      1614
    38.1000      1600
    38.1200      1556
    38.1400      1394
    38.1600      1354
    38.1800      1292
    38.2000      1246
    38.2200      1286
    38.2400      1264
    38.2600      1314
    38.2800      1378
    38.3000      1478
    38.3200      1772
    38.3400      1898
    38.3600      2096
    38.3800      2442
    38.4000      2712
    38.4200      2966
    38.4400      3496
    38.4600      3748
    38.4800      3936
    38.5000      3976
    38.5200      4070
    38.5400      4144
    38.5600      4308
    38.5800      4506
    38.6000      4418
    38.6200      4482
    38.6400      4564
    38.6600      4772
    38.6800      4824
    38.7000      4516
    38.7200      4560
    38.7400      4324
    38.7600      4234
    38.7800      3626
    38.8000      3466
    38.8200      3044
    38.8400      2702
    38.8600      2382
    38.8800      2048
    38.9000      1886
    38.9200      1626
    38.9400      1460
    38.9600      1320
    38.9800      1158
    39.0000      1092
    39.0200      1064
    39.0400      1076
    39.0600      1100
    39.0800      1022
    39.1000      1042
    39.1200      1042
    39.1400       986
    39.1600      1016
    39.1800      1030
    39.2000       982
    39.2200      1008
    39.2400      1010
    39.2600      1078
    39.2800      1046
    39.3000      1058
    39.3200      1076
    39.3400      1064
    39.3600      1116
    39.3800      1128
    39.4000      1108
    39.4200      1128
    39.4400      1150
    39.4600      1154
    39.4800      1196
    39.5000      1264
    39.5200      1220
    39.5400      1202
    39.5600      1326
    39.5800      1438
    39.6000      1544
    39.6200      1680
    39.6400      1928
    39.6600      1990
    39.6800      2040
    39.7000      2138
    39.7200      2054
    39.7400      1970
    39.7600      1804
    39.7800      1586
    39.8000      1556
    39.8200      1358
    39.8400      1236
    39.8600      1080
    39.8800       886
    39.9000       868
    39.9200       798
    39.9400       724
    39.9600       668
    39.9800       578
    40.0000       660
    40.0200       612
    40.0400       574
    40.0600       614
    40.0800       610
    40.1000       628
    40.1200       622
    40.1400       614
    40.1600       662
    40.1800       660
    40.2000       678
    40.2200       720
    40.2400       760
    40.2600       696
    40.2800       758
    40.3000       748
    40.3200       790
    40.3400       744
    40.3600       712
    40.3800       776
    40.4000       860
    40.4200       910
    40.4400      1016
    40.4600      1002
    40.4800      1108
    40.5000      1222
    40.5200      1278
    40.5400      1420
    40.5600      1520
    40.5800      1518
    40.6000      1508
    40.6200      1530
    40.6400      1512
    40.6600      1446
    40.6800      1374
    40.7000      1220
    40.7200      1202
    40.7400      1062
    40.7600      1024
    40.7800       902
    40.8000       866
    40.8200       722
    40.8400       686
    40.8600       686
    40.8800       674
    40.9000       620
    40.9200       620
    40.9400       640
    40.9600       638
    40.9800       670
    41.0000       720
    41.0200       756
    41.0400       786
    41.0600       848
    41.0800       860
    41.1000       976
    41.1200      1052
    41.1400      1152
    41.1600      1258
    41.1800      1320
    41.2000      1540
    41.2200      1658
    41.2400      1760
    41.2600      1766
    41.2800      1874
    41.3000      1786
    41.3200      1956
    41.3400      1956
    41.3600      1858
    41.3800      1864
    41.4000      1776
    41.4200      1746
    41.4400      1680
    41.4600      1586
    41.4800      1552
    41.5000      1576
    41.5200      1564
    41.5400      1538
    41.5600      1508
    41.5800      1344
    41.6000      1422
    41.6200      1280
    41.6400      1250
    41.6600      1232
    41.6800      1198
    41.7000      1084
    41.7200      1168
    41.7400      1134
    41.7600      1216
    41.7800      1246
    41.8000      1324
    41.8200      1412
    41.8400      1442
    41.8600      1550
    41.8800      1618
    41.9000      1680
    41.9200      1688
    41.9400      1622
    41.9600      1556
    41.9800      1464
    42.0000      1256
    42.0200      1202
    42.0400      1064
    42.0600      1010
    42.0800       852
    42.1000       832
    42.1200       724
    42.1400       628
    42.1600       590
    42.1800       528
    42.2000       486
    42.2200       470
    42.2400       466
    42.2600       484
    42.2800       418
    42.3000       460
    42.3200       432
    42.3400       384
    42.3600       386
    42.3800       380
    42.4000       388
    42.4200       374
    42.4400       390
    42.4600       370
    42.4800       362
    42.5000       356
    42.5200       390
    42.5400       388
    42.5600       346
    42.5800       370
    42.6000       374
    42.6200       332
    42.6400       364
    42.6600       358
    42.6800       344
    42.7000       368
    42.7200       356
    42.7400       380
    42.7600       396
    42.7800       392
    42.8000       430
    42.8200       378
    42.8400       456
    42.8600       468
    42.8800       418
    42.9000       486
    42.9200       502
    42.9400       512
    42.9600       572
    42.9800       618
    43.0000       662
    43.0200       776
    43.0400       834
    43.0600       926
    43.0800      1048
    43.1000      1208
    43.1200      1326
    43.1400      1486
    43.1600      1612
    43.1800      1652
    43.2000      1692
    43.2200      1740
    43.2400      1708
    43.2600      1674
    43.2800      1626
    43.3000      1498
    43.3200      1392
    43.3400      1312
    43.3600      1152
    43.3800      1090
    43.4000       976
    43.4200       854
    43.4400       804
    43.4600       708
    43.4800       664
    43.5000       606
    43.5200       554
    43.5400       558
    43.5600       504
    43.5800       498
    43.6000       476
    43.6200       458
    43.6400       498
    43.6600       538
    43.6800       508
    43.7000       554
    43.7200       558
    43.7400       570
    43.7600       624
    43.7800       620
    43.8000       626
    43.8200       602
    43.8400       648
    43.8600       610
    43.8800       626
    43.9000       604
    43.9200       586
    43.9400       622
    43.9600       538
    43.9800       506
    44.0000       520
    44.0200       504
    44.0400       436
    44.0600       462
    44.0800       424
    44.1000       430
    44.1200       402
    44.1400       412
    44.1600       420
    44.1800       386
    44.2000       428
    44.2200       398
    44.2400       412
    44.2600       432
    44.2800       436
    44.3000       442
    44.3200       480
    44.3400       396
    44.3600       450
    44.3800       438
    44.4000       418
    44.4200       446
    44.4400       400
    44.4600       430
    44.4800       440
    44.5000       412
    44.5200       418
    44.5400       392
    44.5600       436
    44.5800       434
    44.6000       452
    44.6200       438
    44.6400       426
    44.6600       456
    44.6800       472
    44.7000       526
    44.7200       560
    44.7400       556
    44.7600       588
    44.7800       680
    44.8000       722
    44.8200       770
    44.8400       826
    44.8600       952
    44.8800      1058
    44.9000      1148
    44.9200      1182
    44.9400      1324
    44.9600      1440
    44.9800      1628
    45.0000      1792
    45.0200      1842
    45.0400      1926
    45.0600      2028
    45.0800      2110
    45.1000      2130
    45.1200      2160
    45.1400      2216
    45.1600      2230
    45.1800      2148
    45.2000      2126
    45.2200      2256
    45.2400      2088
    45.2600      2048
    45.2800      1950
    45.3000      1892
    45.3200      1786
    45.3400      1706
    45.3600      1576
    45.3800      1606
    45.4000      1518
    45.4200      1416
    45.4400      1386
    45.4600      1324
    45.4800      1190
    45.5000      1178
    45.5200      1154
    45.5400      1062
    45.5600       990
    45.5800       978
    45.6000       888
    45.6200       840
    45.6400       840
    45.6600       778
    45.6800       754
    45.7000       738
    45.7200       770
    45.7400       774
    45.7600       806
    45.7800       734
    45.8000       830
    45.8200       784
    45.8400       778
    45.8600       826
    45.8800       826
    45.9000       794
    45.9200       774
    45.9400       758
    45.9600       772
    45.9800       730
    46.0000       760
    46.0200       770
    46.0400       728
    46.0600       662
    46.0800       644
    46.1000       648
    46.1200       668
    46.1400       626
    46.1600       684
    46.1800       732
    46.2000       702
    46.2200       740
    46.2400       770
    46.2600       802
    46.2800       830
    46.3000       830
    46.3200       856
    46.3400       938
    46.3600      1054
    46.3800      1180
    46.4000      1210
    46.4200      1358
    46.4400      1514
    46.4600      1662
    46.4800      1900
    46.5000      2148
    46.5200      2384
    46.5400      2788
    46.5600      3228
    46.5800      3728
    46.6000      4250
    46.6200      5018
    46.6400      5436
    46.6600      5944
    46.6800      6428
    46.7000      6638
    46.7200      6774
    46.7400      6740
    46.7600      6368
    46.7800      5926
    46.8000      5522
    46.8200      5114
    46.8400      4564
    46.8600      4100
    46.8800      3588
    46.9000      3092
    46.9200      2662
    46.9400      2234
    46.9600      2012
    46.9800      1670
    47.0000      1478
    47.0200      1292
    47.0400      1212
    47.0600      1114
    47.0800       990
    47.1000       872
    47.1200       844
    47.1400       824
    47.1600       736
    47.1800       692
    47.2000       632
    47.2200       596
    47.2400       582
    47.2600       608
    47.2800       538
    47.3000       558
    47.3200       532
    47.3400       488
    47.3600       498
    47.3800       488
    47.4000       480
    47.4200       458
    47.4400       462
    47.4600       450
    47.4800       496
    47.5000       486
    47.5200       466
    47.5400       464
    47.5600       462
    47.5800       466
    47.6000       440
    47.6200       430
    47.6400       444
    47.6600       472
    47.6800       556
    47.7000       520
    47.7200       562
    47.7400       584
    47.7600       604
    47.7800       644
    47.8000       678
    47.8200       702
    47.8400       732
    47.8600       714
    47.8800       744
    47.9000       702
    47.9200       668
    47.9400       732
    47.9600       644
    47.9800       658
    48.0000       674
    48.0200       656
    48.0400       648
    48.0600       652
    48.0800       710
    48.1000       678
    48.1200       680
    48.1400       738
    48.1600       776
    48.1800       786
    48.2000       804
    48.2200       848
    48.2400       824
    48.2600       872
    48.2800       836
    48.3000       874
    48.3200       810
    48.3400       884
    48.3600       860
    48.3800       902
    48.4000       906
    48.4200       954
    48.4400      1036
    48.4600      1058
    48.4800      1112
    48.5000      1206
    48.5200      1180
    48.5400      1182
    48.5600      1168
    48.5800      1238
    48.6000      1238
    48.6200      1302
    48.6400      1250
    48.6600      1234
    48.6800      1218
    48.7000      1128
    48.7200      1194
    48.7400      1128
    48.7600      1106
    48.7800      1064
    48.8000      1014
    48.8200       948
    48.8400       880
    48.8600       816
    48.8800       746
    48.9000       724
    48.9200       692
    48.9400       646
    48.9600       600
    48.9800       582
    49.0000       508
    49.0200       472
    49.0400       502
    49.0600       446
    49.0800       478
    49.1000       410
    49.1200       452
    49.1400       424
    49.1600       406
    49.1800       362
    49.2000       408
    49.2200       360
    49.2400       334
    49.2600       328
    49.2800       314
    49.3000       330
    49.3200       326
    49.3400       342
    49.3600       322
    49.3800       310
    49.4000       308
    49.4200       314
    49.4400       302
    49.4600       312
    49.4800       326
    49.5000       314
    49.5200       336
    49.5400       268
    49.5600       322
    49.5800       330
    49.6000       336
    49.6200       348
    49.6400       328
    49.6600       338
    49.6800       350
    49.7000       344
    49.7200       340
    49.7400       368
    49.7600       374
    49.7800       352
    49.8000       352
    49.8200       368
    49.8400       390
    49.8600       398
    49.8800       412
    49.9000       404
    49.9200       434
    49.9400       454
    49.9600       488
    49.9800       506
    50.0000       524
    50.0200       542
    50.0400       616
    50.0600       648
    50.0800       730
    50.1000       742
    50.1200       820
    50.1400       876
    50.1600       960
    50.1800      1028
    50.2000      1104
    50.2200      1224
    50.2400      1252
    50.2600      1294
    50.2800      1386
    50.3000      1442
    50.3200      1506
    50.3400      1494
    50.3600      1526
    50.3800      1560
    50.4000      1518
    50.4200      1452
    50.4400      1414
    50.4600      1438
    50.4800      1356
    50.5000      1340
    50.5200      1392
    50.5400      1216
    50.5600      1178
    50.5800      1212
    50.6000      1158
    50.6200      1158
    50.6400      1178
    50.6600      1152
    50.6800      1170
    50.7000      1182
    50.7200      1292
    50.7400      1370
    50.7600      1414
    50.7800      1538
    50.8000      1474
    50.8200      1684
    50.8400      1666
    50.8600      1662
    50.8800      1692
    50.9000      1538
    50.9200      1562
    50.9400      1582
    50.9600      1396
    50.9800      1366
    51.0000      1274
    51.0200      1210
    51.0400      1150
    51.0600      1094
    51.0800       938
    51.1000       954
    51.1200       868
    51.1400       738
    51.1600       792
    51.1800       732
    51.2000       710
    51.2200       738
    51.2400       668
    51.2600       714
    51.2800       702
    51.3000       680
    51.3200       726
    51.3400       744
    51.3600       726
    51.3800       714
    51.4000       818
    51.4200       776
    51.4400       792
    51.4600       750
    51.4800       784
    51.5000       742
    51.5200       770
    51.5400       740
    51.5600       716
    51.5800       778
    51.6000       796
    51.6200       758
    51.6400       720
    51.6600       800
    51.6800       770
    51.7000       786
    51.7200       912
    51.7400       900
    51.7600       958
    51.7800      1050
    51.8000      1148
    51.8200      1144
    51.8400      1204
    51.8600      1254
    51.8800      1248
    51.9000      1286
    51.9200      1362
    51.9400      1396
    51.9600      1404
    51.9800      1462
    52.0000      1498
    52.0200      1450
    52.0400      1526
    52.0600      1548
    52.0800      1466
    52.1000      1398
    52.1200      1380
    52.1400      1316
    52.1600      1176
    52.1800      1062
    52.2000      1090
    52.2200      1000
    52.2400       986
    52.2600       924
    52.2800       848
    52.3000       796
    52.3200       808
    52.3400       792
    52.3600       732
    52.3800       778
    52.4000       802
    52.4200       796
    52.4400       902
    52.4600       970
    52.4800      1046
    52.5000      1022
    52.5200      1100
    52.5400      1184
    52.5600      1248
    52.5800      1342
    52.6000      1276
    52.6200      1352
    52.6400      1424
    52.6600      1306
    52.6800      1286
    52.7000      1290
    52.7200      1268
    52.7400      1220
    52.7600      1132
    52.7800      1074
    52.8000      1032
    52.8200       976
    52.8400       930
    52.8600       916
    52.8800       818
    52.9000       810
    52.9200       818
    52.9400       736
    52.9600       742
    52.9800       736
    53.0000       744
    53.0200       716
    53.0400       734
    53.0600       756
    53.0800       816
    53.1000       932
    53.1200       988
    53.1400      1038
    53.1600      1092
    53.1800      1242
    53.2000      1262
    53.2200      1404
    53.2400      1514
    53.2600      1416
    53.2800      1566
    53.3000      1458
    53.3200      1478
    53.3400      1398
    53.3600      1298
    53.3800      1214
    53.4000      1222
    53.4200      1126
    53.4400      1042
    53.4600       940
    53.4800       890
    53.5000       804
    53.5200       740
    53.5400       732
    53.5600       668
    53.5800       632
    53.6000       604
    53.6200       536
    53.6400       526
    53.6600       546
    53.6800       556
    53.7000       554
    53.7200       512
    53.7400       496
    53.7600       502
    53.7800       500
    53.8000       472
    53.8200       488
    53.8400       460
    53.8600       430
    53.8800       454
    53.9000       484
    53.9200       472
    53.9400       412
    53.9600       448
    53.9800       414
    54.0000       398
    54.0200       422
    54.0400       396
    54.0600       388
    54.0800       432
    54.1000       396
    54.1200       410
    54.1400       428
    54.1600       430
    54.1800       434
    54.2000       450
    54.2200       466
    54.2400       452
    54.2600       476
    54.2800       538
    54.3000       526
    54.3200       528
    54.3400       544
    54.3600       528
    54.3800       558
    54.4000       554
    54.4200       592
    54.4400       634
    54.4600       596
    54.4800       652
    54.5000       656
    54.5200       706
    54.5400       720
    54.5600       744
    54.5800       746
    54.6000       742
    54.6200       810
    54.6400       856
    54.6600       868
    54.6800       856
    54.7000       836
    54.7200       922
    54.7400       900
    54.7600       930
    54.7800       902
    54.8000       872
    54.8200       874
    54.8400       870
    54.8600       836
    54.8800       808
    54.9000       796
    54.9200       784
    54.9400       848
    54.9600       846
    54.9800       816
    55.0000       828
    55.0200       878
    55.0400       860
    55.0600       914
    55.0800       850
    55.1000       946
    55.1200       964
    55.1400       998
    55.1600      1040
    55.1800      1048
    55.2000      1050
    55.2200       990
    55.2400       984
    55.2600      1010
    55.2800      1000
    55.3000       900
    55.3200       920
    55.3400       840
    55.3600       878
    55.3800       824
    55.4000       882
    55.4200       784
    55.4400       718
    55.4600       706
    55.4800       706
    55.5000       674
    55.5200       616
    55.5400       580
    55.5600       556
    55.5800       564
    55.6000       552
    55.6200       502
    55.6400       480
    55.6600       452
    55.6800       394
    55.7000       406
    55.7200       422
    55.7400       412
    55.7600       374
    55.7800       368
    55.8000       366
    55.8200       360
    55.8400       338
    55.8600       296
    55.8800       298
    55.9000       328
    55.9200       316
    55.9400       328
    55.9600       316
    55.9800       260
    56.0000       278
    56.0200       300
    56.0400       294
    56.0600       278
    56.0800       324
    56.1000       326
    56.1200       276
    56.1400       336
    56.1600       294
    56.1800       312
    56.2000       306
    56.2200       354
    56.2400       322
    56.2600       300
    56.2800       314
    56.3000       304
    56.3200       320
    56.3400       322
    56.3600       324
    56.3800       338
    56.4000       340
    56.4200       330
    56.4400       354
    56.4600       332
    56.4800       312
    56.5000       362
    56.5200       330
    56.5400       346
    56.5600       382
    56.5800       354
    56.6000       370
    56.6200       426
    56.6400       400
    56.6600       406
    56.6800       416
    56.7000       438
    56.7200       432
    56.7400       470
    56.7600       510
    56.7800       466
    56.8000       494
    56.8200       536
    56.8400       550
    56.8600       554
    56.8800       524
    56.9000       554
    56.9200       510
    56.9400       518
    56.9600       572
    56.9800       574
    57.0000       570
    57.0200       554
    57.0400       570
    57.0600       570
    57.0800       568
    57.1000       628
    57.1200       644
    57.1400       630
    57.1600       714
    57.1800       754
    57.2000       792
    57.2200       896
    57.2400       944
    57.2600      1078
    57.2800      1140
    57.3000      1236
    57.3200      1376
    57.3400      1446
    57.3600      1484
    57.3800      1542
    57.4000      1580
    57.4200      1518
    57.4400      1484
    57.4600      1490
    57.4800      1408
    57.5000      1370
    57.5200      1414
    57.5400      1304
    57.5600      1328
    57.5800      1256
    57.6000      1274
    57.6200      1292
    57.6400      1352
    57.6600      1314
    57.6800      1364
    57.7000      1398
    57.7200      1444
    57.7400      1534
    57.7600      1422
    57.7800      1350
    57.8000      1380
    57.8200      1306
    57.8400      1264
    57.8600      1170
    57.8800      1156
    57.9000      1100
    57.9200      1026
    57.9400       984
    57.9600       918
    57.9800       834
    58.0000       782
    58.0200       710
    58.0400       742
    58.0600       678
    58.0800       680
    58.1000       744
    58.1200       638
    58.1400       680
    58.1600       724
    58.1800       702
    58.2000       778
    58.2200       808
    58.2400       846
    58.2600       896
    58.2800       872
    58.3000       872
    58.3200      1004
    58.3400      1092
    58.3600      1134
    58.3800      1260
    58.4000      1338
    58.4200      1434
    58.4400      1456
    58.4600      1572
    58.4800      1590
    58.5000      1660
    58.5200      1876
    58.5400      1890
    58.5600      1960
    58.5800      2056
    58.6000      2182
    58.6200      2162
    58.6400      2344
    58.6600      2408
    58.6800      2542
    58.7000      2650
    58.7200      2678
    58.7400      2758
    58.7600      2698
    58.7800      2722
    58.8000      2648
    58.8200      2530
    58.8400      2478
    58.8600      2232
    58.8800      2204
    58.9000      2110
    58.9200      1900
    58.9400      1758
    58.9600      1596
    58.9800      1498
    59.0000      1386
    59.0200      1266
    59.0400      1216
    59.0600      1084
    59.0800      1010
    59.1000       978
    59.1200       940
    59.1400       896
    59.1600       816
    59.1800       788
    59.2000       806
    59.2200       794
    59.2400       836
    59.2600       826
    59.2800       854
    59.3000       884
    59.3200       940
    59.3400       952
    59.3600      1074
    59.3800      1118
    59.4000      1166
    59.4200      1186
    59.4400      1126
    59.4600      1254
    59.4800      1218
    59.5000      1264
    59.5200      1236
    59.5400      1222
    59.5600      1150
    59.5800      1176
    59.6000      1178
    59.6200      1114
    59.6400      1080
    59.6600      1092
    59.6800      1090
    59.7000      1036
    59.7200      1034
    59.7400       982
    59.7600      1044
    59.7800       962
    59.8000       994
    59.8200       916
    59.8400       928
    59.8600       890
    59.8800       854
    59.9000       820
    59.9200       792
    59.9400       774
    59.9600       792
    59.9800       768
    60.0000       736
    60.0200       722
    60.0400       744
    60.0600       646
    60.0800       668
    60.1000       562
    60.1200       540
    60.1400       602
    60.1600       508
    60.1800       522
    60.2000       544
    60.2200       506
    60.2400       458
    60.2600       476
    60.2800       472
    60.3000       448
    60.3200       480
    60.3400       412
    60.3600       416
    60.3800       402
    60.4000       396
    60.4200       410
    60.4400       370
    60.4600       426
    60.4800       392
    60.5000       368
    60.5200       382
    60.5400       392
    60.5600       380
    60.5800       384
    60.6000       406
    60.6200       376
    60.6400       396
    60.6600       380
    60.6800       406
    60.7000       416
    60.7200       398
    60.7400       398
    60.7600       418
    60.7800       438
    60.8000       432
    60.8200       432
    60.8400       494
    60.8600       460
    60.8800       440
    60.9000       474
    60.9200       482
    60.9400       528
    60.9600       502
    60.9800       554
    61.0000       584
    61.0200       548
    61.0400       598
    61.0600       630
    61.0800       618
    61.1000       680
    61.1200       708
    61.1400       692
    61.1600       724
    61.1800       704
    61.2000       756
    61.2200       760
    61.2400       732
    61.2600       730
    61.2800       752
    61.3000       660
    61.3200       770
    61.3400       800
    61.3600       746
    61.3800       760
    61.4000       826
    61.4200       770
    61.4400       824
    61.4600       838
    61.4800       850
    61.5000       868
    61.5200       890
    61.5400       946
    61.5600      1018
    61.5800      1012
    61.6000       984
    61.6200       944
    61.6400      1034
    61.6600      1030
    61.6800      1004
    61.7000       960
    61.7200       960
    61.7400       964
    61.7600       862
    61.7800       892
    61.8000       866
    61.8200       800
    61.8400       802
    61.8600       820
    61.8800       714
    61.9000       772
    61.9200       702
    61.9400       646
    61.9600       628
    61.9800       600
    62.0000       618
    62.0200       578
    62.0400       576
    62.0600       560
    62.0800       582
    62.1000       564
    62.1200       536
    62.1400       550
    62.1600       586
    62.1800       544
    62.2000       510
    62.2200       496
    62.2400       482
    62.2600       500
    62.2800       508
    62.3000       438
    62.3200       478
    62.3400       470
    62.3600       464
    62.3800       474
    62.4000       434
    62.4200       430
    62.4400       408
    62.4600       456
    62.4800       404
    62.5000       394
    62.5200       424
    62.5400       408
    62.5600       440
    62.5800       374
    62.6000       376
    62.6200       384
    62.6400       390
    62.6600       400
    62.6800       412
    62.7000       398
    62.7200       362
    62.7400       414
    62.7600       390
    62.7800       396
    62.8000       362
    62.8200       390
    62.8400       414
    62.8600       356
    62.8800       372
    62.9000       378
    62.9200       382
    62.9400       364
    62.9600       346
    62.9800       306
    63.0000       340
    63.0200       350
    63.0400       344
    63.0600       336
    63.0800       310
    63.1000       254
    63.1200       264
    63.1400       276
    63.1600       298
    63.1800       292
    63.2000       244
    63.2200       268
    63.2400       286
    63.2600       268
    63.2800       268
    63.3000       250
    63.3200       280
    63.3400       266
    63.3600       278
    63.3800       266
    63.4000       268
    63.4200       276
    63.4400       274
    63.4600       304
    63.4800       296
    63.5000       288
    63.5200       284
    63.5400       300
    63.5600       286
    63.5800       334
    63.6000       304
    63.6200       324
    63.6400       340
    63.6600       368
    63.6800       384
    63.7000       368
    63.7200       432
    63.7400       438
    63.7600       502
    63.7800       506
    63.8000       538
    63.8200       540
    63.8400       626
    63.8600       580
    63.8800       622
    63.9000       660
    63.9200       652
    63.9400       652
    63.9600       654
    63.9800       656
    64.0000       598
    64.0200       614
    64.0400       602
    64.0600       578
    64.0800       554
    64.1000       584
    64.1200       506
    64.1400       456
    64.1600       438
    64.1800       454
    64.2000       424
    64.2200       372
    64.2400       366
    64.2600       402
    64.2800       318
    64.3000       338
    64.3200       300
    64.3400       330
    64.3600       296
    64.3800       326
    64.4000       306
    64.4200       304
    64.4400       276
    64.4600       304
    64.4800       274
    64.5000       274
    64.5200       268
    64.5400       244
    64.5600       246
    64.5800       270
    64.6000       258
    64.6200       244
    64.6400       262
    64.6600       244
    64.6800       252
    64.7000       280
    64.7200       236
    64.7400       248
    64.7600       230
    64.7800       216
    64.8000       250
    64.8200       248
    64.8400       262
    64.8600       240
    64.8800       254
    64.9000       270
    64.9200       254
    64.9400       246
    64.9600       250
    64.9800       250
    65.0000       288
    65.0200       270
    65.0400       292
    65.0600       286
    65.0800       314
    65.1000       260
    65.1200       310
    65.1400       338
    65.1600       368
    65.1800       392
    65.2000       394
    65.2200       402
    65.2400       386
    65.2600       426
    65.2800       402
    65.3000       412
    65.3200       422
    65.3400       420
    65.3600       410
    65.3800       460
    65.4000       422
    65.4200       448
    65.4400       378
    65.4600       404
    65.4800       436
    65.5000       416
    65.5200       398
    65.5400       380
    65.5600       360
    65.5800       386
    65.6000       398
    65.6200       374
    65.6400       358
    65.6600       360
    65.6800       360
    65.7000       358
    65.7200       392
    65.7400       336
    65.7600       356
    65.7800       288
    65.8000       342
    65.8200       312
    65.8400       280
    65.8600       292
    65.8800       308
    65.9000       312
    65.9200       270
    65.9400       284
    65.9600       276
    65.9800       298
    66.0000       294
    66.0200       254
    66.0400       304
    66.0600       270
    66.0800       272
    66.1000       252
    66.1200       288
    66.1400       280
    66.1600       294
    66.1800       260
    66.2000       264
    66.2200       292
    66.2400       264
    66.2600       312
    66.2800       300
    66.3000       312
    66.3200       302
    66.3400       280
    66.3600       310
    66.3800       346
    66.4000       378
    66.4200       376
    66.4400       390
    66.4600       328
    66.4800       414
    66.5000       418
    66.5200       416
    66.5400       456
    66.5600       394
    66.5800       420
    66.6000       428
    66.6200       490
    66.6400       444
    66.6600       524
    66.6800       486
    66.7000       572
    66.7200       600
    66.7400       584
    66.7600       716
    66.7800       696
    66.8000       742
    66.8200       790
    66.8400       864
    66.8600       872
    66.8800       848
    66.9000       880
    66.9200       888
    66.9400       874
    66.9600       868
    66.9800       904
    67.0000       872
    67.0200       870
    67.0400       802
    67.0600       838
    67.0800       826
    67.1000       800
    67.1200       708
    67.1400       684
    67.1600       678
    67.1800       698
    67.2000       638
    67.2200       604
    67.2400       586
    67.2600       560
    67.2800       486
    67.3000       498
    67.3200       450
    67.3400       450
    67.3600       436
    67.3800       376
    67.4000       378
    67.4200       378
    67.4400       358
    67.4600       338
    67.4800       352
    67.5000       360
    67.5200       332
    67.5400       346
    67.5600       304
    67.5800       336
    67.6000       316
    67.6200       336
    67.6400       310
    67.6600       286
    67.6800       372
    67.7000       344
    67.7200       328
    67.7400       348
    67.7600       344
    67.7800       380
    67.8000       356
    67.8200       346
    67.8400       408
    67.8600       390
    67.8800       388
    67.9000       456
    67.9200       466
    67.9400       550
    67.9600       590
    67.9800       604
    68.0000       680
    68.0200       746
    68.0400       774
    68.0600       862
    68.0800       888
    68.1000       986
    68.1200      1002
    68.1400      1052
    68.1600      1050
    68.1800      1010
    68.2000      1038
    68.2200      1100
    68.2400      1068
    68.2600      1048
    68.2800      1006
    68.3000      1050
    68.3200      1062
    68.3400       960
    68.3600       940
    68.3800       896
    68.4000       854
    68.4200       760
    68.4400       768
    68.4600       688
    68.4800       704
    68.5000       598
    68.5200       598
    68.5400       582
    68.5600       548
    68.5800       518
    68.6000       456
    68.6200       470
    68.6400       492
    68.6600       448
    68.6800       414
    68.7000       430
    68.7200       414
    68.7400       382
    68.7600       400
    68.7800       394
    68.8000       344
    68.8200       344
    68.8400       364
    68.8600       376
    68.8800       296
    68.9000       306
    68.9200       340
    68.9400       294
    68.9600       312
    68.9800       344
    69.0000       296
    69.0200       350
    69.0400       318
    69.0600       354
    69.0800       318
    69.1000       358
    69.1200       300
    69.1400       344
    69.1600       378
    69.1800       360
    69.2000       398
    69.2200       380
    69.2400       388
    69.2600       400
    69.2800       420
    69.3000       478
    69.3200       460
    69.3400       480
    69.3600       468
    69.3800       508
    69.4000       486
    69.4200       482
    69.4400       544
    69.4600       498
    69.4800       482
    69.5000       514
    69.5200       446
    69.5400       466
    69.5600       438
    69.5800       454
    69.6000       436
    69.6200       416
    69.6400       436
    69.6600       408
    69.6800       376
    69.7000       390
    69.7200       386
    69.7400       338
    69.7600       316
    69.7800       362
    69.8000       328
    69.8200       328
    69.8400       334
    69.8600       352
    69.8800       338
    69.9000       366
    69.9200       356
    69.9400       352
    69.9600       382
    69.9800       316
    70.0000       316
    70.0200       308
    70.0400       342
    70.0600       330
    70.0800       272
    70.1000       294
    70.1200       284
    70.1400       282
    70.1600       254
    70.1800       280
    70.2000       274
    70.2200       276
    70.2400       258
    70.2600       264
    70.2800       262
    70.3000       244
    70.3200       242
    70.3400       248
    70.3600       226
    70.3800       254
    70.4000       234
    70.4200       236
    70.4400       238
    70.4600       262
    70.4800       220
    70.5000       242
    70.5200       222
    70.5400       238
    70.5600       240
    70.5800       234
    70.6000       220
    70.6200       232
    70.6400       240
    70.6600       222
    70.6800       244
    70.7000       224
    70.7200       224
    70.7400       226
    70.7600       236
    70.7800       220
    70.8000       216
    70.8200       210
    70.8400       220
    70.8600       222
    70.8800       216
    70.9000       234
    70.9200       210
    70.9400       212
    70.9600       224
    70.9800       230
    71.0000       218
    71.0200       214
    71.0400       216
    71.0600       236
    71.0800       240
    71.1000       222
    71.1200       222
    71.1400       230
    71.1600       278
    71.1800       242
    71.2000       268
    71.2200       254
    71.2400       272
    71.2600       310
    71.2800       328
    71.3000       358
    71.3200       320
    71.3400       376
    71.3600       420
    71.3800       430
    71.4000       416
    71.4200       450
    71.4400       482
    71.4600       474
    71.4800       496
    71.5000       520
    71.5200       524
    71.5400       514
    71.5600       528
    71.5800       550
    71.6000       546
    71.6200       524
    71.6400       568
    71.6600       520
    71.6800       498
    71.7000       520
    71.7200       538
    71.7400       550
    71.7600       488
    71.7800       520
    71.8000       480
    71.8200       448
    71.8400       452
    71.8600       434
    71.8800       438
    71.9000       414
    71.9200       462
    71.9400       436
    71.9600       388
    71.9800       432
    72.0000       402
    72.0200       410
    72.0400       378
    72.0600       408
    72.0800       344
    72.1000       418
    72.1200       416
    72.1400       394
    72.1600       404
    72.1800       426
    72.2000       430
    72.2200       470
    72.2400       482
    72.2600       448
    72.2800       508
    72.3000       486
    72.3200       516
    72.3400       506
    72.3600       466
    72.3800       484
    72.4000       472
    72.4200       476
    72.4400       474
    72.4600       518
    72.4800       496
    72.5000       476
    72.5200       480
    72.5400       458
    72.5600       474
    72.5800       518
    72.6000       508
    72.6200       478
    72.6400       526
    72.6600       520
    72.6800       500
    72.7000       510
    72.7200       480
    72.7400       494
    72.7600       484
    72.7800       508
    72.8000       506
    72.8200       460
    72.8400       448
    72.8600       482
    72.8800       464
    72.9000       476
    72.9200       446
    72.9400       420
    72.9600       428
    72.9800       402
    73.0000       384
    73.0200       404
    73.0400       370
    73.0600       406
    73.0800       358
    73.1000       346
    73.1200       364
    73.1400       354
    73.1600       362
    73.1800       346
    73.2000       284
    73.2200       298
    73.2400       292
    73.2600       312
    73.2800       272
    73.3000       250
    73.3200       264
    73.3400       272
    73.3600       258
    73.3800       252
    73.4000       270
    73.4200       240
    73.4400       256
    73.4600       240
    73.4800       264
    73.5000       242
    73.5200       240
    73.5400       260
    73.5600       248
    73.5800       250
    73.6000       240
    73.6200       238
    73.6400       232
    73.6600       270
    73.6800       248
    73.7000       242
    73.7200       248
    73.7400       252
    73.7600       242
    73.7800       246
    73.8000       234
    73.8200       244
    73.8400       240
    73.8600       270
    73.8800       252
    73.9000       276
    73.9200       244
    73.9400       252
    73.9600       276
    73.9800       254
    74.0000       284
    74.0200       286
    74.0400       286
    74.0600       286
    74.0800       290
    74.1000       268
    74.1200       282
    74.1400       298
    74.1600       294
    74.1800       264
    74.2000       290
    74.2200       278
    74.2400       278
    74.2600       266
    74.2800       282
    74.3000       264
    74.3200       248
    74.3400       246
    74.3600       248
    74.3800       258
    74.4000       236
    74.4200       248
    74.4400       228
    74.4600       228
    74.4800       230
    74.5000       236
    74.5200       200
    74.5400       200
    74.5600       218
    74.5800       200
    74.6000       194
    74.6200       212
    74.6400       196
    74.6600       208
    74.6800       210
    74.7000       192
    74.7200       192
    74.7400       206
    74.7600       200
    74.7800       212
    74.8000       196
    74.8200       198
    74.8400       188
    74.8600       172
    74.8800       198
    74.9000       194
    74.9200       188
    74.9400       224
    74.9600       206
    74.9800       220
    75.0000       248
    75.0200       190
    75.0400       198
    75.0600       226
    75.0800       224
    75.1000       212
    75.1200       212
    75.1400       228
    75.1600       232
    75.1800       236
    75.2000       254
    75.2200       228
    75.2400       246
    75.2600       232
    75.2800       240
    75.3000       228
    75.3200       262
    75.3400       220
    75.3600       242
    75.3800       238
    75.4000       236
    75.4200       250
    75.4400       242
    75.4600       250
    75.4800       260
    75.5000       258
    75.5200       238
    75.5400       268
    75.5600       260
    75.5800       240
    75.6000       232
    75.6200       238
    75.6400       246
    75.6600       262
    75.6800       204
    75.7000       242
    75.7200       236
    75.7400       240
    75.7600       226
    75.7800       260
    75.8000       202
    75.8200       242
    75.8400       238
    75.8600       244
    75.8800       234
    75.9000       240
    75.9200       236
    75.9400       238
    75.9600       252
    75.9800       230
    76.0000       242
    76.0200       230
    76.0400       224
    76.0600       258
    76.0800       238
    76.1000       234
    76.1200       244
    76.1400       274
    76.1600       246
    76.1800       238
    76.2000       262
    76.2200       278
    76.2400       282
    76.2600       278
    76.2800       304
    76.3000       314
    76.3200       296
    76.3400       318
    76.3600       322
    76.3800       328
    76.4000       310
    76.4200       366
    76.4400       350
    76.4600       356
    76.4800       330
    76.5000       366
    76.5200       376
    76.5400       346
    76.5600       400
    76.5800       362
    76.6000       420
    76.6200       388
    76.6400       408
    76.6600       376
    76.6800       408
    76.7000       414
    76.7200       470
    76.7400       428
    76.7600       440
    76.7800       390
    76.8000       422
    76.8200       436
    76.8400       404
    76.8600       374
    76.8800       390
    76.9000       412
    76.9200       396
    76.9400       356
    76.9600       370
    76.9800       370
    77.0000       342
    77.0200       324
    77.0400       352
    77.0600       328
    77.0800       358
    77.1000       304
    77.1200       346
    77.1400       332
    77.1600       342
    77.1800       350
    77.2000       364
    77.2200       312
    77.2400       374
    77.2600       372
    77.2800       340
    77.3000       370
    77.3200       404
    77.3400       408
    77.3600       418
    77.3800       446
    77.4000       456
    77.4200       410
    77.4400       470
    77.4600       528
    77.4800       560
    77.5000       596
    77.5200       614
    77.5400       624
    77.5600       650
    77.5800       694
    77.6000       710
    77.6200       680
    77.6400       756
    77.6600       742
    77.6800       736
    77.7000       732
    77.7200       712
    77.7400       708
    77.7600       744
    77.7800       678
    77.8000       692
    77.8200       674
    77.8400       656
    77.8600       584
    77.8800       666
    77.9000       572
    77.9200       566
    77.9400       562
    77.9600       534
    77.9800       536
    78.0000       452
    78.0200       472
    78.0400       432
    78.0600       452
    78.0800       426
    78.1000       398
    78.1200       394
    78.1400       368
    78.1600       358
    78.1800       372
    78.2000       312
    78.2200       378
    78.2400       334
    78.2600       340
    78.2800       374
    78.3000       334
    78.3200       322
    78.3400       330
    78.3600       356
    78.3800       356
    78.4000       358
    78.4200       366
    78.4400       362
    78.4600       364
    78.4800       320
    78.5000       352
    78.5200       404
    78.5400       380
    78.5600       418
    78.5800       376
    78.6000       376
    78.6200       384
    78.6400       410
    78.6600       422
    78.6800       414
    78.7000       380
    78.7200       390
    78.7400       400
    78.7600       402
    78.7800       400
    78.8000       374
    78.8200       362
    78.8400       350
    78.8600       372
    78.8800       388
    78.9000       370
    78.9200       330
    78.9400       342
    78.9600       360
    78.9800       338
    79.0000       352
    79.0200       328
    79.0400       274
    79.0600       322
    79.0800       280
    79.1000       286
    79.1200       302
    79.1400       272
    79.1600       276
    79.1800       258
    79.2000       278
    79.2200       240
    79.2400       294
    79.2600       290
    79.2800       262
    79.3000       286
    79.3200       264
    79.3400       278
    79.3600       278
    79.3800       262
    79.4000       264
    79.4200       288
    79.4400       246
    79.4600       268
    79.4800       278
    79.5000       290
    79.5200       244
    79.5400       248
    79.5600       254
    79.5800       248
    79.6000       302
    79.6200       288
    79.6400       254
    79.6600       250
    79.6800       268
    79.7000       274
    79.7200       248
    79.7400       262
    79.7600       254
    79.7800       256
    79.8000       240
    79.8200       256
    79.8400       282
    79.8600       292
    79.8800       238
    79.9000       230
    79.9200       258
    79.9400       266
    79.9600       224
    79.9800       230
    80.0000       252
    80.0200       256
    80.0400       224
    80.0600       224
    80.0800       220
    80.1000       226
    80.1200       270
    80.1400       254
    80.1600       258
    80.1800       250
    80.2000       232
    80.2200       252
    80.2400       266
    80.2600       286
    80.2800       270
    80.3000       274
    80.3200       296
    80.3400       282
    80.3600       284
    80.3800       276
    80.4000       256
    80.4200       292
    80.4400       324
    80.4600       282
    80.4800       278
    80.5000       280
    80.5200       324
    80.5400       282
    80.5600       288
    80.5800       320
    80.6000       270
    80.6200       354
    80.6400       290
    80.6600       276
    80.6800       308
    80.7000       286
    80.7200       274
    80.7400       264
    80.7600       254
    80.7800       256
    80.8000       244
    80.8200       280
    80.8400       276
    80.8600       270
    80.8800       212
    80.9000       262
    80.9200       234
    80.9400       250
    80.9600       254
    80.9800       278
    81.0000       242
    81.0200       240
    81.0400       236
    81.0600       212
    81.0800       254
    81.1000       232
    81.1200       230
    81.1400       214
    81.1600       254
    81.1800       270
    81.2000       266
    81.2200       240
    81.2400       262
    81.2600       260
    81.2800       258
    81.3000       230
    81.3200       268
    81.3400       258
    81.3600       250
    81.3800       274
    81.4000       276
    81.4200       246
    81.4400       284
    81.4600       224
    81.4800       248
    81.5000       246
    81.5200       274
    81.5400       278
    81.5600       272
    81.5800       290
    81.6000       240
    81.6200       258
    81.6400       254
    81.6600       270
    81.6800       270
    81.7000       252
    81.7200       278
    81.7400       254
    81.7600       274
    81.7800       264
    81.8000       296
    81.8200       266
    81.8400       304
    81.8600       308
    81.8800       300
    81.9000       344
    81.9200       308
    81.9400       292
    81.9600       284
    81.9800       310
    82.0000       288
    82.0200       346
    82.0400       308
    82.0600       294
    82.0800       308
    82.1000       308
    82.1200       326
    82.1400       320
    82.1600       360
    82.1800       328
    82.2000       340
    82.2200       342
    82.2400       328
    82.2600       336
    82.2800       366
    82.3000       354
    82.3200       352
    82.3400       356
    82.3600       346
    82.3800       354
    82.4000       376
    82.4200       376
    82.4400       370
    82.4600       364
    82.4800       336
    82.5000       390
    82.5200       364
    82.5400       358
    82.5600       362
    82.5800       406
    82.6000       410
    82.6200       404
    82.6400       440
    82.6600       440
    82.6800       434
    82.7000       510
    82.7200       454
    82.7400       464
    82.7600       520
    82.7800       484
    82.8000       520
    82.8200       536
    82.8400       532
    82.8600       576
    82.8800       562
    82.9000       556
    82.9200       582
    82.9400       618
    82.9600       544
    82.9800       546
    83.0000       586
    83.0200       612
    83.0400       594
    83.0600       586
    83.0800       586
    83.1000       536
    83.1200       504
    83.1400       484
    83.1600       548
    83.1800       512
    83.2000       522
    83.2200       518
    83.2400       502
    83.2600       492
    83.2800       462
    83.3000       442
    83.3200       460
    83.3400       468
    83.3600       410
    83.3800       436
    83.4000       406
    83.4200       410
    83.4400       388
    83.4600       382
    83.4800       356
    83.5000       354
    83.5200       352
    83.5400       368
    83.5600       356
    83.5800       338
    83.6000       318
    83.6200       342
    83.6400       346
    83.6600       342
    83.6800       266
    83.7000       306
    83.7200       286
    83.7400       306
    83.7600       304
    83.7800       264
    83.8000       274
    83.8200       316
    83.8400       274
    83.8600       290
    83.8800       254
    83.9000       256
    83.9200       290
    83.9400       294
    83.9600       300
    83.9800       292
    84.0000       276
    84.0200       290
    84.0400       280
    84.0600       296
    84.0800       312
    84.1000       280
    84.1200       302
    84.1400       332
    84.1600       310
    84.1800       292
    84.2000       288
    84.2200       334
    84.2400       308
    84.2600       300
    84.2800       314
    84.3000       320
    84.3200       306
    84.3400       306
    84.3600       304
    84.3800       328
    84.4000       320
    84.4200       328
    84.4400       288
    84.4600       302
    84.4800       322
    84.5000       292
    84.5200       322
    84.5400       312
    84.5600       288
    84.5800       290
    84.6000       302
    84.6200       274
    84.6400       292
    84.6600       266
    84.6800       250
    84.7000       288
    84.7200       302
    84.7400       290
    84.7600       268
    84.7800       288
    84.8000       290
    84.8200       292
    84.8400       276
    84.8600       246
    84.8800       268
    84.9000       274
    84.9200       294
    84.9400       284
    84.9600       252
    84.9800       260
    85.0000       270
    85.0200       260
    85.0400       282
    85.0600       246
    85.0800       288
    85.1000       274
    85.1200       250
    85.1400       236
    85.1600       254
    85.1800       264
    85.2000       242
    85.2200       270
    85.2400       242
    85.2600       260
    85.2800       244
    85.3000       288
    85.3200       276
    85.3400       258
    85.3600       250
    85.3800       238
    85.4000       240
    85.4200       264
    85.4400       274
    85.4600       270
    85.4800       268
    85.5000       304
    85.5200       320
    85.5400       300
    85.5600       320
    85.5800       270
    85.6000       308
    85.6200       304
    85.6400       276
    85.6600       276
    85.6800       272
    85.7000       288
    85.7200       288
    85.7400       264
    85.7600       308
    85.7800       290
    85.8000       282
    85.8200       258
    85.8400       278
    85.8600       260
    85.8800       256
    85.9000       266
    85.9200       240
    85.9400       244
    85.9600       248
    85.9800       258
    86.0000       230
    86.0200       224
    86.0400       246
    86.0600       202
    86.0800       210
    86.1000       246
    86.1200       226
    86.1400       242
    86.1600       232
    86.1800       242
    86.2000       196
    86.2200       232
    86.2400       236
    86.2600       268
    86.2800       238
    86.3000       216
    86.3200       246
    86.3400       222
    86.3600       202
    86.3800       246
    86.4000       234
    86.4200       212
    86.4400       240
    86.4600       242
    86.4800       218
    86.5000       246
    86.5200       224
    86.5400       238
    86.5600       258
    86.5800       276
    86.6000       266
    86.6200       232
    86.6400       258
    86.6600       242
    86.6800       280
    86.7000       242
    86.7200       274
    86.7400       258
    86.7600       300
    86.7800       268
    86.8000       316
    86.8200       312
    86.8400       316
    86.8600       306
    86.8800       274
    86.9000       360
    86.9200       340
    86.9400       342
    86.9600       358
    86.9800       358
    87.0000       326
    87.0200       352
    87.0400       318
    87.0600       338
    87.0800       340
    87.1000       330
    87.1200       330
    87.1400       302
    87.1600       324
    87.1800       308
    87.2000       304
    87.2200       328
    87.2400       316
    87.2600       302
    87.2800       328
    87.3000       286
    87.3200       302
    87.3400       306
    87.3600       286
    87.3800       282
    87.4000       268
    87.4200       298
    87.4400       276
    87.4600       284
    87.4800       284
    87.5000       260
    87.5200       268
    87.5400       314
    87.5600       276
    87.5800       272
    87.6000       296
    87.6200       284
    87.6400       298
    87.6600       316
    87.6800       342
    87.7000       286
    87.7200       320
    87.7400       348
    87.7600       358
    87.7800       356
    87.8000       404
    87.8200       356
    87.8400       380
    87.8600       366
    87.8800       372
    87.9000       408
    87.9200       354
    87.9400       386
    87.9600       412
    87.9800       398
    88.0000       438
    88.0200       386
    88.0400       420
    88.0600       462
    88.0800       394
    88.1000       410
    88.1200       398
    88.1400       426
    88.1600       406
    88.1800       406
    88.2000       464
    88.2200       442
    88.2400       446
    88.2600       464
    88.2800       438
    88.3000       388
    88.3200       416
    88.3400       362
    88.3600       414
    88.3800       382
    88.4000       388
    88.4200       376
    88.4400       414
    88.4600       392
    88.4800       414
    88.5000       426
    88.5200       444
    88.5400       386
    88.5600       342
    88.5800       398
    88.6000       372
    88.6200       350
    88.6400       372
    88.6600       372
    88.6800       346
    88.7000       346
    88.7200       366
    88.7400       380
    88.7600       328
    88.7800       344
    88.8000       360
    88.8200       308
    88.8400       346
    88.8600       298
    88.8800       316
    88.9000       326
    88.9200       288
    88.9400       290
    88.9600       284
    88.9800       286
    89.0000       280
    89.0200       290
    89.0400       286
    89.0600       262
    89.0800       260
    89.1000       258
    89.1200       270
    89.1400       226
    89.1600       232
    89.1800       270
    89.2000       234
    89.2200       254
    89.2400       256
    89.2600       232
    89.2800       218
    89.3000       252
    89.3200       266
    89.3400       246
    89.3600       240
    89.3800       254
    89.4000       258
    89.4200       246
    89.4400       238
    89.4600       256
    89.4800       248
    89.5000       280
    89.5200       258
    89.5400       262
    89.5600       262
    89.5800       264
    89.6000       206
    89.6200       222
    89.6400       242
    89.6600       260
    89.6800       246
    89.7000       240
    89.7200       256
    89.7400       236
    89.7600       258
    89.7800       264
    89.8000       268
    89.8200       276
    89.8400       274
    89.8600       278
    89.8800       276
    89.9000       270
    89.9200       256
    89.9400       272
    89.9600       268
    89.9800       278
    90.0000       302
