    10.0000       344
    10.0200       368
    10.0400       360
    10.0600       366
    10.0800       370
    10.1000       358
    10.1200       358
    10.1400       332
    10.1600       346
    10.1800       374
    10.2000       362
    10.2200       396
    10.2400       348
    10.2600       362
    10.2800       332
    10.3000       350
    10.3200       338
    10.3400       354
    10.3600       338
    10.3800       374
    10.4000       346
    10.4200       342
    10.4400       340
    10.4600       338
    10.4800       340
    10.5000       332
    10.5200       354
    10.5400       336
    10.5600       330
    10.5800       338
    10.6000       328
    10.6200       346
    10.6400       334
    10.6600       342
    10.6800       342
    10.7000       342
    10.7200       326
    10.7400       358
    10.7600       344
    10.7800       344
    10.8000       346
    10.8200       342
    10.8400       338
    10.8600       364
    10.8800       312
    10.9000       288
    10.9200       326
    10.9400       336
    10.9600       318
    10.9800       296
    11.0000       330
    11.0200       318
    11.0400       324
    11.0600       336
    11.0800       312
    11.1000       334
    11.1200       306
    11.1400       340
    11.1600       312
    11.1800       314
    11.2000       306
    11.2200       326
    11.2400       306
    11.2600       292
    11.2800       300
    11.3000       312
    11.3200       306
    11.3400       304
    11.3600       302
    11.3800       324
    11.4000       296
    11.4200       322
    11.4400       338
    11.4600       338
    11.4800       312
    11.5000       332
    11.5200       328
    11.5400       332
    11.5600       338
    11.5800       340
    11.6000       288
    11.6200       318
    11.6400       310
    11.6600       342
    11.6800       314
    11.7000       318
    11.7200       336
    11.7400       340
    11.7600       318
    11.7800       406
    11.8000       340
    11.8200       334
    11.8400       394
    11.8600       374
    11.8800       356
    11.9000       358
    11.9200       384
    11.9400       370
    11.9600       362
    11.9800       394
    12.0000       420
    12.0200       440
    12.0400       442
    12.0600       466
    12.0800       512
    12.1000       524
    12.1200       548
    12.1400       606
    12.1600       632
    12.1800       698
    12.2000       670
    12.2200       642
    12.2400       630
    12.2600       566
    12.2800       552
    12.3000       482
    12.3200       426
    12.3400       414
    12.3600       358
    12.3800       340
    12.4000       338
    12.4200       322
    12.4400       316
    12.4600       320
    12.4800       312
    12.5000       318
    12.5200       300
    12.5400       288
    12.5600       278
    12.5800       270
    12.6000       316
    12.6200       308
    12.6400       296
    12.6600       302
    12.6800       288
    12.7000       254
    12.7200       314
    12.7400       264
    12.7600       304
    12.7800       268
    12.8000       304
    12.8200       290
    12.8400       268
    12.8600       294
    12.8800       282
    12.9000       260
    12.9200       280
    12.9400       268
    12.9600       282
    12.9800       288
    13.0000       290
    13.0200       278
    13.0400       268
    13.0600       260
    13.0800       272
    13.1000       302
    13.1200       256
    13.1400       314
    13.1600       274
    13.1800       280
    13.2000       284
    13.2200       276
    13.2400       294
    13.2600       280
    13.2800       268
    13.3000       274
    13.3200       266
    13.3400       230
    13.3600       260
    13.3800       300
    13.4000       230
    13.4200       280
    13.4400       280
    13.4600       242
    13.4800       238
    13.5000       262
    13.5200       236
    13.5400       260
    13.5600       306
    13.5800       270
    13.6000       262
    13.6200       248
    13.6400       268
    13.6600       272
    13.6800       260
    13.7000       278
    13.7200       288
    13.7400       274
    13.7600       252
    13.7800       262
    13.8000       264
    13.8200       260
    13.8400       234
    13.8600       280
    13.8800       280
    13.9000       242
    13.9200       262
    13.9400       270
    13.9600       286
    13.9800       244
    14.0000       248
    14.0200       238
    14.0400       268
    14.0600       282
    14.0800       242
    14.1000       246
    14.1200       270
    14.1400       280
    14.1600       260
    14.1800       220
    14.2000       274
    14.2200       274
    14.2400       264
    14.2600       244
    14.2800       260
    14.3000       258
    14.3200       274
    14.3400       268
    14.3600       270
    14.3800       260
    14.4000       270
    14.4200       264
    14.4400       270
    14.4600       254
    14.4800       270
    14.5000       274
    14.5200       236
    14.5400       278
    14.5600       220
    14.5800       264
    14.6000       296
    14.6200       306
    14.6400       280
    14.6600       250
    14.6800       272
    14.7000       294
    14.7200       278
    14.7400       336
    14.7600       296
    14.7800       320
    14.8000       312
    14.8200       354
    14.8400       338
    14.8600       376
    14.8800       388
    14.9000       388
    14.9200       424
    14.9400       444
    14.9600       514
    14.9800       462
    15.0000       576
    15.0200       596
    15.0400       676
    15.0600       704
    15.0800       792
    15.1000       806
    15.1200       904
    15.1400       990
    15.1600      1096
    15.1800      1194
    15.2000      1206
    15.2200      1286
    15.2400      1204
    15.2600      1042
    15.2800       862
    15.3000       724
    15.3200       588
    15.3400       474
    15.3600       368
    15.3800       366
    15.4000       294
    15.4200       360
    15.4400       296
    15.4600       282
    15.4800       296
    15.5000       242
    15.5200       260
    15.5400       270
    15.5600       244
    15.5800       264
    15.6000       256
    15.6200       264
    15.6400       272
    15.6600       268
    15.6800       270
    15.7000       274
    15.7200       274
    15.7400       244
    15.7600       252
    15.7800       262
    15.8000       274
    15.8200       248
    15.8400       228
    15.8600       254
    15.8800       260
    15.9000       232
    15.9200       250
    15.9400       236
    15.9600       244
    15.9800       250
    16.0000       232
    16.0200       260
    16.0400       234
    16.0600       242
    16.0800       276
    16.1000       250
    16.1200       246
    16.1400       250
    16.1600       268
    16.1800       282
    16.2000       272
    16.2200       278
    16.2400       254
    16.2600       276
    16.2800       264
    16.3000       268
    16.3200       278
    16.3400       276
    16.3600       266
    16.3800       298
    16.4000       264
    16.4200       232
    16.4400       300
    16.4600       268
    16.4800       270
    16.5000       252
    16.5200       266
    16.5400       264
    16.5600       278
    16.5800       308
    16.6000       308
    16.6200       288
    16.6400       300
    16.6600       346
    16.6800       322
    16.7000       392
    16.7200       378
    16.7400       418
    16.7600       420
    16.7800       520
    16.8000       492
    16.8200       546
    16.8400       634
    16.8600       654
    16.8800       718
    16.9000       860
    16.9200       928
    16.9400      1026
    16.9600      1182
    16.9800      1380
    17.0000      1582
    17.0200      1690
    17.0400      1912
    17.0600      1892
    17.0800      1816
    17.1000      1588
    17.1200      1360
    17.1400      1086
    17.1600       910
    17.1800       934
    17.2000       850
    17.2200       864
    17.2400       814
    17.2600       710
    17.2800       740
    17.3000       686
    17.3200       652
    17.3400       586
    17.3600       584
    17.3800       544
    17.4000       522
    17.4200       438
    17.4400       440
    17.4600       410
    17.4800       402
    17.5000       412
    17.5200       404
    17.5400       384
    17.5600       354
    17.5800       380
    17.6000       394
    17.6200       330
    17.6400       392
    17.6600       372
    17.6800       384
    17.7000       454
    17.7200       466
    17.7400       472
    17.7600       542
    17.7800       582
    17.8000       584
    17.8200       624
    17.8400       632
    17.8600       624
    17.8800       666
    17.9000       596
    17.9200       480
    17.9400       440
    17.9600       400
    17.9800       312
    18.0000       328
    18.0200       300
    18.0400       258
    18.0600       266
    18.0800       246
    18.1000       212
    18.1200       224
    18.1400       218
    18.1600       242
    18.1800       196
    18.2000       248
    18.2200       198
    18.2400       218
    18.2600       234
    18.2800       186
    18.3000       216
    18.3200       208
    18.3400       240
    18.3600       206
    18.3800       240
    18.4000       236
    18.4200       192
    18.4400       202
    18.4600       222
    18.4800       200
    18.5000       226
    18.5200       200
    18.5400       222
    18.5600       186
    18.5800       170
    18.6000       224
    18.6200       206
    18.6400       242
    18.6600       218
    18.6800       194
    18.7000       244
    18.7200       212
    18.7400       212
    18.7600       232
    18.7800       224
    18.8000       212
    18.8200       230
    18.8400       226
    18.8600       246
    18.8800       206
    18.9000       228
    18.9200       212
    18.9400       242
    18.9600       220
    18.9800       266
    19.0000       242
    19.0200       250
    19.0400       236
    19.0600       270
    19.0800       284
    19.1000       286
    19.1200       328
    19.1400       312
    19.1600       356
    19.1800       358
    19.2000       394
    19.2200       440
    19.2400       500
    19.2600       500
    19.2800       586
    19.3000       624
    19.3200       770
    19.3400       788
    19.3600       940
    19.3800      1104
    19.4000      1258
    19.4200      1530
    19.4400      1778
    19.4600      1990
    19.4800      2352
    19.5000      2666
    19.5200      2906
    19.5400      3118
    19.5600      3220
    19.5800      3014
    19.6000      2554
    19.6200      2112
    19.6400      1618
    19.6600      1230
    19.6800      1036
    19.7000       966
    19.7200       884
    19.7400       778
    19.7600       818
    19.7800       878
    19.8000       932
    19.8200       998
    19.8400      1076
    19.8600      1282
    19.8800      1522
    19.9000      1704
    19.9200      1898
    19.9400      2160
    19.9600      2444
    19.9800      2474
    20.0000      2472
    20.0200      2300
    20.0400      1996
    20.0600      1724
    20.0800      1434
    20.1000      1102
    20.1200       874
    20.1400       628
    20.1600       576
    20.1800       462
    20.2000       434
    20.2200       424
    20.2400       392
    20.2600       354
    20.2800       310
    20.3000       340
    20.3200       336
    20.3400       336
    20.3600       306
    20.3800       290
    20.4000       286
    20.4200       276
    20.4400       286
    20.4600       242
    20.4800       284
    20.5000       236
    20.5200       256
    20.5400       264
    20.5600       246
    20.5800       256
    20.6000       234
    20.6200       226
    20.6400       222
    20.6600       238
    20.6800       224
    20.7000       238
    20.7200       262
    20.7400       262
    20.7600       254
    20.7800       250
    20.8000       318
    20.8200       310
    20.8400       312
    20.8600       326
    20.8800       348
    20.9000       388
    20.9200       402
    20.9400       502
    20.9600       504
    20.9800       556
    21.0000       648
    21.0200       624
    21.0400       800
    21.0600       852
    21.0800      1018
    21.1000      1086
    21.1200      1268
    21.1400      1374
    21.1600      1570
    21.1800      1664
    21.2000      1704
    21.2200      1816
    21.2400      1842
    21.2600      1788
    21.2800      1580
    21.3000      1486
    21.3200      1262
    21.3400      1152
    21.3600       922
    21.3800       810
    21.4000       674
    21.4200       566
    21.4400       504
    21.4600       440
    21.4800       370
    21.5000       332
    21.5200       332
    21.5400       312
    21.5600       306
    21.5800       298
    21.6000       266
    21.6200       238
    21.6400       260
    21.6600       238
    21.6800       234
    21.7000       228
    21.7200       236
    21.7400       236
    21.7600       224
    21.7800       208
    21.8000       228
    21.8200       226
    21.8400       202
    21.8600       210
    21.8800       214
    21.9000       222
    21.9200       212
    21.9400       206
    21.9600       238
    21.9800       220
    22.0000       204
    22.0200       202
    22.0400       222
    22.0600       210
    22.0800       192
    22.1000       224
    22.1200       222
    22.1400       198
    22.1600       210
    22.1800       240
    22.2000       208
    22.2200       224
    22.2400       220
    22.2600       224
    22.2800       246
    22.3000       230
    22.3200       252
    22.3400       274
    22.3600       260
    22.3800       250
    22.4000       266
    22.4200       312
    22.4400       280
    22.4600       346
    22.4800       374
    22.5000       384
    22.5200       464
    22.5400       496
    22.5600       566
    22.5800       618
    22.6000       728
    22.6200       784
    22.6400       962
    22.6600      1058
    22.6800      1258
    22.7000      1498
    22.7200      1626
    22.7400      2054
    22.7600      2410
    22.7800      2842
    22.8000      3416
    22.8200      3760
    22.8400      4258
    22.8600      4510
    22.8800      4552
    22.9000      4164
    22.9200      3634
    22.9400      2934
    22.9600      2332
    22.9800      1694
    23.0000      1342
    23.0200      1056
    23.0400       820
    23.0600       766
    23.0800       646
    23.1000       618
    23.1200       584
    23.1400       522
    23.1600       502
    23.1800       472
    23.2000       416
    23.2200       416
    23.2400       370
    23.2600       352
    23.2800       326
    23.3000       326
    23.3200       290
    23.3400       272
    23.3600       276
    23.3800       286
    23.4000       302
    23.4200       250
    23.4400       266
    23.4600       266
    23.4800       228
    23.5000       260
    23.5200       234
    23.5400       230
    23.5600       232
    23.5800       234
    23.6000       220
    23.6200       254
    23.6400       228
    23.6600       240
    23.6800       216
    23.7000       248
    23.7200       260
    23.7400       258
    23.7600       268
    23.7800       250
    23.8000       252
    23.8200       256
    23.8400       244
    23.8600       226
    23.8800       256
    23.9000       226
    23.9200       232
    23.9400       238
    23.9600       238
    23.9800       214
    24.0000       246
    24.0200       244
    24.0400       272
    24.0600       264
    24.0800       250
    24.1000       252
    24.1200       278
    24.1400       262
    24.1600       260
    24.1800       284
    24.2000       330
    24.2200       336
    24.2400       334
    24.2600       378
    24.2800       396
    24.3000       438
    24.3200       500
    24.3400       516
    24.3600       552
    24.3800       626
    24.4000       684
    24.4200       804
    24.4400       906
    24.4600      1016
    24.4800      1044
    24.5000      1176
    24.5200      1224
    24.5400      1198
    24.5600      1238
    24.5800      1294
    24.6000      1180
    24.6200      1102
    24.6400      1098
    24.6600       952
    24.6800       948
    24.7000       856
    24.7200       810
    24.7400       796
    24.7600       732
    24.7800       702
    24.8000       636
    24.8200       584
    24.8400       566
    24.8600       536
    24.8800       476
    24.9000       404
    24.9200       414
    24.9400       420
    24.9600       408
    24.9800       388
    25.0000       398
    25.0200       380
    25.0400       422
    25.0600       408
    25.0800       428
    25.1000       426
    25.1200       390
    25.1400       466
    25.1600       520
    25.1800       510
    25.2000       570
    25.2200       572
    25.2400       642
    25.2600       686
    25.2800       808
    25.3000       854
    25.3200       980
    25.3400      1012
    25.3600      1056
    25.3800      1058
    25.4000      1000
    25.4200       950
    25.4400       872
    25.4600       906
    25.4800       834
    25.5000       880
    25.5200       952
    25.5400      1016
    25.5600      1092
    25.5800      1096
    25.6000      1156
    25.6200      1118
    25.6400      1058
    25.6600       940
    25.6800       882
    25.7000       690
    25.7200       604
    25.7400       502
    25.7600       430
    25.7800       394
    25.8000       354
    25.8200       320
    25.8400       322
    25.8600       310
    25.8800       266
    25.9000       326
    25.9200       298
    25.9400       268
    25.9600       286
    25.9800       308
    26.0000       304
    26.0200       260
    26.0400       242
    26.0600       260
    26.0800       250
    26.1000       256
    26.1200       260
    26.1400       254
    26.1600       246
    26.1800       266
    26.2000       258
    26.2200       274
    26.2400       286
    26.2600       282
    26.2800       292
    26.3000       316
    26.3200       310
    26.3400       318
    26.3600       314
    26.3800       340
    26.4000       336
    26.4200       380
    26.4400       362
    26.4600       348
    26.4800       378
    26.5000       354
    26.5200       320
    26.5400       368
    26.5600       352
    26.5800       362
    26.6000       396
    26.6200       356
    26.6400       374
    26.6600       380
    26.6800       366
    26.7000       340
    26.7200       374
    26.7400       338
    26.7600       340
    26.7800       350
    26.8000       310
    26.8200       300
    26.8400       294
    26.8600       316
    26.8800       288
    26.9000       274
    26.9200       256
    26.9400       276
    26.9600       244
    26.9800       294
    27.0000       262
    27.0200       300
    27.0400       274
    27.0600       264
    27.0800       290
    27.1000       322
    27.1200       344
    27.1400       348
    27.1600       350
    27.1800       344
    27.2000       388
    27.2200       428
    27.2400       412
    27.2600       422
    27.2800       480
    27.3000       552
    27.3200       628
    27.3400       672
    27.3600       772
    27.3800       838
    27.4000       944
    27.4200       946
    27.4400      1030
    27.4600      1054
    27.4800      1114
    27.5000      1066
    27.5200      1118
    27.5400      1072
    27.5600      1070
    27.5800      1010
    27.6000       946
    27.6200       876
    27.6400       760
    27.6600       726
    27.6800       680
    27.7000       540
    27.7200       492
    27.7400       480
    27.7600       414
    27.7800       384
    27.8000       366
    27.8200       376
    27.8400       356
    27.8600       322
    27.8800       318
    27.9000       274
    27.9200       274
    27.9400       282
    27.9600       280
    27.9800       254
    28.0000       278
    28.0200       264
    28.0400       248
    28.0600       254
    28.0800       238
    28.1000       234
    28.1200       224
    28.1400       222
    28.1600       224
    28.1800       258
    28.2000       252
    28.2200       264
    28.2400       232
    28.2600       226
    28.2800       246
    28.3000       252
    28.3200       222
    28.3400       238
    28.3600       282
    28.3800       248
    28.4000       272
    28.4200       256
    28.4400       260
    28.4600       266
    28.4800       250
    28.5000       256
    28.5200       254
    28.5400       252
    28.5600       286
    28.5800       264
    28.6000       288
    28.6200       312
    28.6400       322
    28.6600       350
    28.6800       378
    28.7000       374
    28.7200       362
    28.7400       396
    28.7600       334
    28.7800       338
    28.8000       346
    28.8200       268
    28.8400       324
    28.8600       264
    28.8800       294
    28.9000       276
    28.9200       278
    28.9400       260
    28.9600       246
    28.9800       260
    29.0000       264
    29.0200       252
    29.0400       298
    29.0600       242
    29.0800       278
    29.1000       264
    29.1200       246
    29.1400       252
    29.1600       264
    29.1800       256
    29.2000       256
    29.2200       298
    29.2400       254
    29.2600       300
    29.2800       310
    29.3000       290
    29.3200       332
    29.3400       328
    29.3600       358
    29.3800       368
    29.4000       386
    29.4200       400
    29.4400       460
    29.4600       472
    29.4800       460
    29.5000       486
    29.5200       522
    29.5400       528
    29.5600       594
    29.5800       678
    29.6000       716
    29.6200       822
    29.6400       890
    29.6600       968
    29.6800       904
    29.7000      1000
    29.7200      1018
    29.7400       988
    29.7600       918
    29.7800       840
    29.8000       784
    29.8200       656
    29.8400       640
    29.8600       628
    29.8800       564
    29.9000       528
    29.9200       544
    29.9400       602
    29.9600       612
    29.9800       740
    30.0000       748
    30.0200       864
    30.0400       942
    30.0600      1102
    30.0800      1208
    30.1000      1310
    30.1200      1492
    30.1400      1638
    30.1600      1624
    30.1800      1850
    30.2000      1936
    30.2200      1980
    30.2400      1994
    30.2600      2052
    30.2800      1894
    30.3000      1892
    30.3200      1808
    30.3400      1680
    30.3600      1662
    30.3800      1598
    30.4000      1670
    30.4200      1614
    30.4400      1640
    30.4600      1666
    30.4800      1842
    30.5000      1990
    30.5200      2098
    30.5400      2280
    30.5600      2546
    30.5800      2816
    30.6000      3162
    30.6200      3674
    30.6400      4050
    30.6600      4396
    30.6800      4980
    30.7000      5234
    30.7200      5220
    30.7400      5154
    30.7600      4838
    30.7800      4058
    30.8000      3532
    30.8200      3022
    30.8400      2480
    30.8600      2082
    30.8800      1638
    30.9000      1320
    30.9200      1134
    30.9400       916
    30.9600       850
    30.9800       808
    31.0000       730
    31.0200       592
    31.0400       572
    31.0600       520
    31.0800       528
    31.1000       472
    31.1200       440
    31.1400       408
    31.1600       414
    31.1800       412
    31.2000       344
    31.2200       344
    31.2400       318
    31.2600       288
    31.2800       336
    31.3000       332
    31.3200       322
    31.3400       274
    31.3600       282
    31.3800       302
    31.4000       316
    31.4200       294
    31.4400       304
    31.4600       334
    31.4800       288
    31.5000       310
    31.5200       316
    31.5400       290
    31.5600       328
    31.5800       356
    31.6000       370
    31.6200       374
    31.6400       406
    31.6600       406
    31.6800       422
    31.7000       478
    31.7200       518
    31.7400       578
    31.7600       568
    31.7800       596
    31.8000       756
    31.8200       806
    31.8400       932
    31.8600      1096
    31.8800      1280
    31.9000      1402
    31.9200      1716
    31.9400      1930
    31.9600      2050
    31.9800      2378
    32.0000      2432
    32.0200      2330
    32.0400      2114
    32.0600      1928
    32.0800      1788
    32.1000      1620
    32.1200      1356
    32.1400      1308
    32.1600      1136
    32.1800      1096
    32.2000       976
    32.2200      1104
    32.2400      1084
    32.2600      1188
    32.2800      1208
    32.3000      1392
    32.3200      1530
    32.3400      1720
    32.3600      2094
    32.3800      2422
    32.4000      2874
    32.4200      3546
    32.4400      4064
    32.4600      5148
    32.4800      5884
    32.5000      6614
    32.5200      7390
    32.5400      7904
    32.5600      7822
    32.5800      7902
    32.6000      7476
    32.6200      6770
    32.6400      6212
    32.6600      5252
    32.6800      4384
    32.7000      3744
    32.7200      3050
    32.7400      2592
    32.7600      2082
    32.7800      1816
    32.8000      1558
    32.8200      1392
    32.8400      1220
    32.8600      1162
    32.8800      1124
    32.9000      1018
    32.9200      1046
    32.9400      1026
    32.9600      1084
    32.9800      1104
    33.0000      1242
    33.0200      1458
    33.0400      1498
    33.0600      1556
    33.0800      1676
    33.1000      1744
    33.1200      1630
    33.1400      1522
    33.1600      1322
    33.1800      1218
    33.2000      1036
    33.2200       908
    33.2400       806
    33.2600       674
    33.2800       572
    33.3000       506
    33.3200       478
    33.3400       416
    33.3600       424
    33.3800       400
    33.4000       372
    33.4200       340
    33.4400       320
    33.4600       322
    33.4800       318
    33.5000       268
    33.5200       268
    33.5400       264
    33.5600       276
    33.5800       248
    33.6000       256
    33.6200       292
    33.6400       238
    33.6600       254
    33.6800       250
    33.7000       256
    33.7200       200
    33.7400       242
    33.7600       238
    33.7800       240
    33.8000       232
    33.8200       234
    33.8400       220
    33.8600       212
    33.8800       256
    33.9000       226
    33.9200       226
    33.9400       244
    33.9600       226
    33.9800       242
    34.0000       232
    34.0200       254
    34.0400       218
    34.0600       272
    34.0800       252
    34.1000       216
    34.1200       280
    34.1400       256
    34.1600       256
    34.1800       258
    34.2000       272
    34.2200       262
    34.2400       286
    34.2600       274
    34.2800       248
    34.3000       302
    34.3200       300
    34.3400       354
    34.3600       354
    34.3800       374
    34.4000       404
    34.4200       446
    34.4400       568
    34.4600       534
    34.4800       552
    34.5000       558
    34.5200       550
    34.5400       566
    34.5600       426
    34.5800       466
    34.6000       424
    34.6200       352
    34.6400       402
    34.6600       338
    34.6800       318
    34.7000       332
    34.7200       328
    34.7400       310
    34.7600       328
    34.7800       354
    34.8000       302
    34.8200       306
    34.8400       314
    34.8600       312
    34.8800       304
    34.9000       326
    34.9200       340
    34.9400       324
    34.9600       304
    34.9800       314
    35.0000       294
    35.0200       332
    35.0400       296
    35.0600       334
    35.0800       294
    35.1000       264
    35.1200       284
    35.1400       278
    35.1600       314
    35.1800       282
    35.2000       256
    35.2200       256
    35.2400       280
    35.2600       260
    35.2800       252
    35.3000       280
    35.3200       254
    35.3400       248
    35.3600       264
    35.3800       228
    35.4000       278
    35.4200       266
    35.4400       254
    35.4600       272
    35.4800       266
    35.5000       258
    35.5200       258
    35.5400       242
    35.5600       262
    35.5800       262
    35.6000       272
    35.6200       270
    35.6400       268
    35.6600       276
    35.6800       288
    35.7000       304
    35.7200       290
    35.7400       322
    35.7600       314
    35.7800       320
    35.8000       318
    35.8200       316
    35.8400       336
    35.8600       372
    35.8800       378
    35.9000       396
    35.9200       380
    35.9400       402
    35.9600       470
    35.9800       498
    36.0000       552
    36.0200       552
    36.0400       612
    36.0600       726
    36.0800       820
    36.1000       868
    36.1200       962
    36.1400       910
    36.1600      1004
    36.1800       900
    36.2000       918
    36.2200       882
    36.2400       786
    36.2600       700
    36.2800       676
    36.3000       576
    36.3200       522
    36.3400       512
    36.3600       492
    36.3800       408
    36.4000       410
    36.4200       380
    36.4400       394
    36.4600       356
    36.4800       402
    36.5000       352
    36.5200       364
    36.5400       368
    36.5600       400
    36.5800       456
    36.6000       472
    36.6200       498
    36.6400       516
    36.6600       576
    36.6800       594
    36.7000       692
    36.7200       760
    36.7400       846
    36.7600       974
    36.7800      1186
    36.8000      1220
    36.8200      1510
    36.8400      1788
    36.8600      1956
    36.8800      2026
    36.9000      2060
    36.9200      2104
    36.9400      2020
    36.9600      1888
    36.9800      1750
    37.0000      1546
    37.0200      1432
    37.0400      1300
    37.0600      1120
    37.0800      1054
    37.1000       942
    37.1200       900
    37.1400       904
    37.1600       862
    37.1800       850
    37.2000       778
    37.2200       816
    37.2400       786
    37.2600       726
    37.2800       744
    37.3000       702
    37.3200       684
    37.3400       664
    37.3600       618
    37.3800       584
    37.4000       576
    37.4200       536
    37.4400       522
    37.4600       502
    37.4800       540
    37.5000       488
    37.5200       496
    37.5400       436
    37.5600       486
    37.5800       482
    37.6000       504
    37.6200       458
    37.6400       480
    37.6600       488
    37.6800       520
    37.7000       520
    37.7200       506
    37.7400       584
    37.7600       584
    37.7800       612
    37.8000       632
    37.8200       706
    37.8400       772
    37.8600       880
    37.8800      1022
    37.9000      1134
    37.9200      1318
    37.9400      1440
    37.9600      1652
    37.9800      1836
    38.0000      2000
    38.0200      2046
    38.0400      2094
    38.0600      2010
    38.0800      1922
    38.1000      1806
    38.1200      1662
    38.1400      1580
    38.1600      1500
    38.1800      1412
    38.2000      1326
    38.2200      1328
    38.2400      1302
    38.2600      1382
    38.2800      1420
    38.3000      1622
    38.3200      1774
    38.3400      2018
    38.3600      2256
    38.3800      2632
    38.4000      3006
    38.4200      3494
    38.4400      3776
    38.4600      4284
    38.4800      4414
    38.5000      4618
    38.5200      4750
    38.5400      4986
    38.5600      4966
    38.5800      5006
    38.6000      5098
    38.6200      5260
    38.6400      5250
    38.6600      5646
    38.6800      5528
    38.7000      5410
    38.7200      5258
    38.7400      5130
    38.7600      4890
    38.7800      4474
    38.8000      4136
    38.8200      3684
    38.8400      3270
    38.8600      2840
    38.8800      2516
    38.9000      2170
    38.9200      1900
    38.9400      1520
    38.9600      1528
    38.9800      1310
    39.0000      1192
    39.0200      1106
    39.0400      1086
    39.0600      1050
    39.0800      1026
    39.1000       984
    39.1200       932
    39.1400       992
    39.1600       944
    39.1800       958
    39.2000       952
    39.2200       994
    39.2400       948
    39.2600       994
    39.2800       994
    39.3000       974
    39.3200       968
    39.3400       954
    39.3600      1044
    39.3800      1072
    39.4000      1060
    39.4200      1064
    39.4400      1180
    39.4600      1216
    39.4800      1224
    39.5000      1226
    39.5200      1306
    39.5400      1362
    39.5600      1410
    39.5800      1514
    39.6000      1770
    39.6200      1882
    39.6400      2114
    39.6600      2220
    39.6800      2370
    39.7000      2442
    39.7200      2446
    39.7400      2178
    39.7600      2008
    39.7800      1790
    39.8000      1764
    39.8200      1470
    39.8400      1352
    39.8600      1194
    39.8800      1020
    39.9000       836
    39.9200       822
    39.9400       742
    39.9600       714
    39.9800       636
    40.0000       662
    40.0200       646
    40.0400       620
    40.0600       612
    40.0800       624
    40.1000       662
    40.1200       678
    40.1400       640
    40.1600       676
    40.1800       672
    40.2000       708
    40.2200       712
    40.2400       800
    40.2600       786
    40.2800       760
    40.3000       816
    40.3200       832
    40.3400       822
    40.3600       804
    40.3800       878
    40.4000       872
    40.4200       968
    40.4400      1008
    40.4600      1064
    40.4800      1126
    40.5000      1228
    40.5200      1408
    40.5400      1530
    40.5600      1612
    40.5800      1848
    40.6000      1768
    40.6200      1794
    40.6400      1790
    40.6600      1664
    40.6800      1606
    40.7000      1480
    40.7200      1292
    40.7400      1232
    40.7600      1140
    40.7800      1042
    40.8000       864
    40.8200       824
    40.8400       824
    40.8600       728
    40.8800       646
    40.9000       578
    40.9200       654
    40.9400       604
    40.9600       626
    40.9800       628
    41.0000       612
    41.0200       628
    41.0400       658
    41.0600       684
    41.0800       726
    41.1000       820
    41.1200       820
    41.1400       878
    41.1600      1046
    41.1800      1048
    41.2000      1184
    41.2200      1264
    41.2400      1366
    41.2600      1368
    41.2800      1418
    41.3000      1508
    41.3200      1560
    41.3400      1530
    41.3600      1530
    41.3800      1480
    41.4000      1558
    41.4200      1614
    41.4400      1578
    41.4600      1598
    41.4800      1574
    41.5000      1602
    41.5200      1666
    41.5400      1676
    41.5600      1646
    41.5800      1630
    41.6000      1584
    41.6200      1480
    41.6400      1486
    41.6600      1384
    41.6800      1274
    41.7000      1356
    41.7200      1362
    41.7400      1338
    41.7600      1408
    41.7800      1434
    41.8000      1550
    41.8200      1604
    41.8400      1720
    41.8600      1872
    41.8800      1892
    41.9000      1978
    41.9200      1934
    41.9400      1740
    41.9600      1764
    41.9800      1698
    42.0000      1574
    42.0200      1382
    42.0400      1252
    42.0600      1064
    42.0800       958
    42.1000       884
    42.1200       836
    42.1400       660
    42.1600       582
    42.1800       580
    42.2000       568
    42.2200       548
    42.2400       468
    42.2600       494
    42.2800       430
    42.3000       472
    42.3200       436
    42.3400       410
    42.3600       416
    42.3800       376
    42.4000       396
    42.4200       392
    42.4400       376
    42.4600       406
    42.4800       356
    42.5000       390
    42.5200       358
    42.5400       368
    42.5600       354
    42.5800       366
    42.6000       332
    42.6200       340
    42.6400       352
    42.6600       352
    42.6800       320
    42.7000       382
    42.7200       380
    42.7400       364
    42.7600       378
    42.7800       396
    42.8000       400
    42.8200       404
    42.8400       388
    42.8600       462
    42.8800       482
    42.9000       480
    42.9200       490
    42.9400       514
    42.9600       588
    42.9800       582
    43.0000       688
    43.0200       802
    43.0400       828
    43.0600      1004
    43.0800      1102
    43.1000      1300
    43.1200      1390
    43.1400      1604
    43.1600      1732
    43.1800      1872
    43.2000      1946
    43.2200      1836
    43.2400      1788
    43.2600      1832
    43.2800      1654
    43.3000      1512
    43.3200      1398
    43.3400      1234
    43.3600      1182
    43.3800      1022
    43.4000       932
    43.4200       830
    43.4400       732
    43.4600       670
    43.4800       638
    43.5000       568
    43.5200       548
    43.5400       508
    43.5600       474
    43.5800       486
    43.6000       500
    43.6200       480
    43.6400       476
    43.6600       490
    43.6800       524
    43.7000       500
    43.7200       572
    43.7400       660
    43.7600       666
    43.7800       672
    43.8000       726
    43.8200       718
    43.8400       738
    43.8600       674
    43.8800       648
    43.9000       708
    43.9200       646
    43.9400       664
    43.9600       600
    43.9800       600
    44.0000       524
    44.0200       512
    44.0400       462
    44.0600       450
    44.0800       392
    44.1000       458
    44.1200       408
    44.1400       436
    44.1600       414
    44.1800       446
    44.2000       416
    44.2200       422
    44.2400       428
    44.2600       392
    44.2800       426
    44.3000       438
    44.3200       416
    44.3400       448
    44.3600       458
    44.3800       408
    44.4000       428
    44.4200       476
    44.4400       402
    44.4600       476
    44.4800       438
    44.5000       404
    44.5200       390
    44.5400       432
    44.5600       400
    44.5800       446
    44.6000       442
    44.6200       446
    44.6400       460
    44.6600       468
    44.6800       520
    44.7000       484
    44.7200       528
    44.7400       546
    44.7600       588
    44.7800       586
    44.8000       574
    44.8200       658
    44.8400       714
    44.8600       792
    44.8800       830
    44.9000       904
    44.9200      1014
    44.9400      1076
    44.9600      1150
    44.9800      1324
    45.0000      1376
    45.0200      1460
    45.0400      1504
    45.0600      1622
    45.0800      1642
    45.1000      1646
    45.1200      1864
    45.1400      1902
    45.1600      1972
    45.1800      1984
    45.2000      2058
    45.2200      2166
    45.2400      2234
    45.2600      2112
    45.2800      2058
    45.3000      2012
    45.3200      1894
    45.3400      1930
    45.3600      1714
    45.3800      1684
    45.4000      1694
    45.4200      1654
    45.4400      1524
    45.4600      1426
    45.4800      1332
    45.5000      1266
    45.5200      1252
    45.5400      1122
    45.5600      1024
    45.5800       950
    45.6000       968
    45.6200       890
    45.6400       830
    45.6600       824
    45.6800       780
    45.7000       742
    45.7200       658
    45.7400       678
    45.7600       674
    45.7800       658
    45.8000       640
    45.8200       662
    45.8400       598
    45.8600       634
    45.8800       676
    45.9000       626
    45.9200       650
    45.9400       624
    45.9600       602
    45.9800       626
    46.0000       616
    46.0200       606
    46.0400       586
    46.0600       612
    46.0800       620
    46.1000       620
    46.1200       596
    46.1400       640
    46.1600       630
    46.1800       688
    46.2000       694
    46.2200       706
    46.2400       678
    46.2600       716
    46.2800       756
    46.3000       834
    46.3200       850
    46.3400       958
    46.3600      1016
    46.3800      1138
    46.4000      1266
    46.4200      1354
    46.4400      1574
    46.4600      1696
    46.4800      1932
    46.5000      2184
    46.5200      2592
    46.5400      2914
    46.5600      3508
    46.5800      4094
    46.6000      4780
    46.6200      5490
    46.6400      6334
    46.6600      7094
    46.6800      7802
    46.7000      7990
    46.7200      8152
    46.7400      7898
    46.7600      7590
    46.7800      7128
    46.8000      6612
    46.8200      5966
    46.8400      5586
    46.8600      4858
    46.8800      4190
    46.9000      3662
    46.9200      2990
    46.9400      2556
    46.9600      2124
    46.9800      1840
    47.0000      1576
    47.0200      1456
    47.0400      1276
    47.0600      1174
    47.0800      1020
    47.1000       896
    47.1200       848
    47.1400       778
    47.1600       806
    47.1800       684
    47.2000       668
    47.2200       672
    47.2400       642
    47.2600       560
    47.2800       562
    47.3000       564
    47.3200       520
    47.3400       508
    47.3600       516
    47.3800       508
    47.4000       510
    47.4200       492
    47.4400       488
    47.4600       490
    47.4800       444
    47.5000       468
    47.5200       462
    47.5400       460
    47.5600       482
    47.5800       450
    47.6000       490
    47.6200       522
    47.6400       518
    47.6600       470
    47.6800       530
    47.7000       542
    47.7200       566
    47.7400       600
    47.7600       704
    47.7800       736
    47.8000       766
    47.8200       742
    47.8400       788
    47.8600       854
    47.8800       840
    47.9000       822
    47.9200       758
    47.9400       758
    47.9600       724
    47.9800       680
    48.0000       696
    48.0200       664
    48.0400       636
    48.0600       680
    48.0800       634
    48.1000       758
    48.1200       708
    48.1400       808
    48.1600       806
    48.1800       930
    48.2000       932
    48.2200       938
    48.2400       936
    48.2600       914
    48.2800       948
    48.3000       876
    48.3200       922
    48.3400       876
    48.3600       888
    48.3800       924
    48.4000       844
    48.4200       846
    48.4400       948
    48.4600       894
    48.4800       864
    48.5000       984
    48.5200       948
    48.5400       998
    48.5600       998
    48.5800       962
    48.6000      1030
    48.6200      1074
    48.6400      1058
    48.6600      1000
    48.6800      1022
    48.7000      1006
    48.7200      1016
    48.7400      1034
    48.7600       914
    48.7800       936
    48.8000       806
    48.8200       812
    48.8400       778
    48.8600       766
    48.8800       664
    48.9000       656
    48.9200       578
    48.9400       626
    48.9600       600
    48.9800       574
    49.0000       518
    49.0200       474
    49.0400       462
    49.0600       434
    49.0800       462
    49.1000       394
    49.1200       384
    49.1400       404
    49.1600       362
    49.1800       380
    49.2000       374
    49.2200       336
    49.2400       352
    49.2600       342
    49.2800       354
    49.3000       356
    49.3200       322
    49.3400       330
    49.3600       322
    49.3800       316
    49.4000       324
    49.4200       326
    49.4400       324
    49.4600       298
    49.4800       312
    49.5000       314
    49.5200       314
    49.5400       310
    49.5600       314
    49.5800       354
    49.6000       314
    49.6200       336
    49.6400       320
    49.6600       318
    49.6800       316
    49.7000       308
    49.7200       340
    49.7400       358
    49.7600       348
    49.7800       354
    49.8000       354
    49.8200       350
    49.8400       378
    49.8600       386
    49.8800       366
    49.9000       436
    49.9200       396
    49.9400       462
    49.9600       450
    49.9800       508
    50.0000       484
    50.0200       500
    50.0400       580
    50.0600       678
    50.0800       620
    50.1000       678
    50.1200       730
    50.1400       748
    50.1600       866
    50.1800       842
    50.2000       952
    50.2200      1020
    50.2400      1030
    50.2600      1030
    50.2800      1048
    50.3000      1160
    50.3200      1194
    50.3400      1206
    50.3600      1242
    50.3800      1236
    50.4000      1316
    50.4200      1270
    50.4400      1210
    50.4600      1212
    50.4800      1254
    50.5000      1218
    50.5200      1170
    50.5400      1146
    50.5600      1110
    50.5800      1108
    50.6000      1156
    50.6200      1218
    50.6400      1178
    50.6600      1184
    50.6800      1246
    50.7000      1254
    50.7200      1418
    50.7400      1468
    50.7600      1526
    50.7800      1730
    50.8000      1784
    50.8200      1810
    50.8400      1950
    50.8600      1918
    50.8800      1924
    50.9000      1904
    50.9200      1840
    50.9400      1748
    50.9600      1654
    50.9800      1600
    51.0000      1480
    51.0200      1384
    51.0400      1256
    51.0600      1196
    51.0800      1096
    51.1000      1028
    51.1200       882
    51.1400       876
    51.1600       906
    51.1800       794
    51.2000       710
    51.2200       730
    51.2400       766
    51.2600       736
    51.2800       786
    51.3000       794
    51.3200       752
    51.3400       790
    51.3600       826
    51.3800       816
    51.4000       846
    51.4200       840
    51.4400       832
    51.4600       816
    51.4800       788
    51.5000       820
    51.5200       756
    51.5400       842
    51.5600       770
    51.5800       756
    51.6000       716
    51.6200       728
    51.6400       766
    51.6600       792
    51.6800       822
    51.7000       832
    51.7200       872
    51.7400       958
    51.7600      1018
    51.7800      1076
    51.8000      1140
    51.8200      1228
    51.8400      1204
    51.8600      1328
    51.8800      1318
    51.9000      1342
    51.9200      1350
    51.9400      1500
    51.9600      1522
    51.9800      1598
    52.0000      1556
    52.0200      1674
    52.0400      1732
    52.0600      1762
    52.0800      1750
    52.1000      1636
    52.1200      1580
    52.1400      1508
    52.1600      1392
    52.1800      1322
    52.2000      1280
    52.2200      1184
    52.2400      1068
    52.2600      1052
    52.2800      1050
    52.3000       942
    52.3200       872
    52.3400       870
    52.3600       806
    52.3800       788
    52.4000       872
    52.4200       884
    52.4400       898
    52.4600       958
    52.4800      1072
    52.5000      1162
    52.5200      1192
    52.5400      1358
    52.5600      1372
    52.5800      1430
    52.6000      1434
    52.6200      1438
    52.6400      1498
    52.6600      1516
    52.6800      1500
    52.7000      1476
    52.7200      1422
    52.7400      1404
    52.7600      1322
    52.7800      1256
    52.8000      1166
    52.8200      1084
    52.8400      1058
    52.8600       946
    52.8800       910
    52.9000       872
    52.9200       846
    52.9400       814
    52.9600       796
    52.9800       768
    53.0000       726
    53.0200       748
    53.0400       810
    53.0600       834
    53.0800       922
    53.1000       894
    53.1200       978
    53.1400      1152
    53.1600      1182
    53.1800      1254
    53.2000      1494
    53.2200      1530
    53.2400      1654
    53.2600      1772
    53.2800      1706
    53.3000      1676
    53.3200      1632
    53.3400      1548
    53.3600      1480
    53.3800      1416
    53.4000      1346
    53.4200      1286
    53.4400      1144
    53.4600      1078
    53.4800       956
    53.5000       852
    53.5200       806
    53.5400       734
    53.5600       706
    53.5800       614
    53.6000       586
    53.6200       540
    53.6400       578
    53.6600       544
    53.6800       586
    53.7000       508
    53.7200       514
    53.7400       548
    53.7600       502
    53.7800       546
    53.8000       522
    53.8200       476
    53.8400       498
    53.8600       478
    53.8800       478
    53.9000       476
    53.9200       438
    53.9400       472
    53.9600       486
    53.9800       470
    54.0000       434
    54.0200       416
    54.0400       442
    54.0600       422
    54.0800       448
    54.1000       416
    54.1200       424
    54.1400       428
    54.1600       448
    54.1800       438
    54.2000       476
    54.2200       488
    54.2400       510
    54.2600       510
    54.2800       536
    54.3000       554
    54.3200       524
    54.3400       586
    54.3600       564
    54.3800       550
    54.4000       552
    54.4200       598
    54.4400       610
    54.4600       640
    54.4800       700
    54.5000       748
    54.5200       790
    54.5400       778
    54.5600       852
    54.5800       870
    54.6000       874
    54.6200       818
    54.6400       916
    54.6600       868
    54.6800       956
    54.7000       998
    54.7200      1004
    54.7400      1012
    54.7600       984
    54.7800      1066
    54.8000       942
    54.8200       960
    54.8400       892
    54.8600       856
    54.8800       830
    54.9000       814
    54.9200       828
    54.9400       780
    54.9600       790
    54.9800       740
    55.0000       754
    55.0200       720
    55.0400       778
    55.0600       776
    55.0800       784
    55.1000       798
    55.1200       820
    55.1400       812
    55.1600       868
    55.1800       904
    55.2000       886
    55.2200       856
    55.2400       838
    55.2600       848
    55.2800       874
    55.3000       802
    55.3200       830
    55.3400       780
    55.3600       770
    55.3800       758
    55.4000       710
    55.4200       754
    55.4400       764
    55.4600       668
    55.4800       666
    55.5000       666
    55.5200       578
    55.5400       622
    55.5600       568
    55.5800       582
    55.6000       546
    55.6200       522
    55.6400       510
    55.6600       432
    55.6800       440
    55.7000       450
    55.7200       450
    55.7400       430
    55.7600       354
    55.7800       360
    55.8000       376
    55.8200       388
    55.8400       342
    55.8600       368
    55.8800       336
    55.9000       342
    55.9200       316
    55.9400       330
    55.9600       300
    55.9800       332
    56.0000       322
    56.0200       324
    56.0400       348
    56.0600       308
    56.0800       322
    56.1000       328
    56.1200       324
    56.1400       332
    56.1600       324
    56.1800       318
    56.2000       312
    56.2200       320
    56.2400       300
    56.2600       310
    56.2800       302
    56.3000       292
    56.3200       332
    56.3400       308
    56.3600       288
    56.3800       318
    56.4000       342
    56.4200       302
    56.4400       318
    56.4600       338
    56.4800       320
    56.5000       342
    56.5200       368
    56.5400       336
    56.5600       340
    56.5800       354
    56.6000       378
    56.6200       384
    56.6400       402
    56.6600       374
    56.6800       470
    56.7000       398
    56.7200       426
    56.7400       454
    56.7600       470
    56.7800       542
    56.8000       510
    56.8200       528
    56.8400       568
    56.8600       578
    56.8800       564
    56.9000       626
    56.9200       608
    56.9400       576
    56.9600       596
    56.9800       554
    57.0000       584
    57.0200       562
    57.0400       558
    57.0600       588
    57.0800       606
    57.1000       632
    57.1200       690
    57.1400       640
    57.1600       720
    57.1800       742
    57.2000       812
    57.2200       864
    57.2400       942
    57.2600      1052
    57.2800      1150
    57.3000      1234
    57.3200      1360
    57.3400      1476
    57.3600      1612
    57.3800      1612
    57.4000      1546
    57.4200      1622
    57.4400      1540
    57.4600      1500
    57.4800      1470
    57.5000      1418
    57.5200      1414
    57.5400      1298
    57.5600      1358
    57.5800      1364
    57.6000      1322
    57.6200      1348
    57.6400      1392
    57.6600      1444
    57.6800      1498
    57.7000      1456
    57.7200      1566
    57.7400      1552
    57.7600      1646
    57.7800      1506
    57.8000      1498
    57.8200      1362
    57.8400      1386
    57.8600      1260
    57.8800      1218
    57.9000      1208
    57.9200      1148
    57.9400      1120
    57.9600       958
    57.9800       930
    58.0000       908
    58.0200       798
    58.0400       778
    58.0600       728
    58.0800       696
    58.1000       708
    58.1200       678
    58.1400       720
    58.1600       676
    58.1800       642
    58.2000       690
    58.2200       740
    58.2400       848
    58.2600       788
    58.2800       912
    58.3000       966
    58.3200       994
    58.3400      1098
    58.3600      1178
    58.3800      1250
    58.4000      1360
    58.4200      1474
    58.4400      1600
    58.4600      1708
    58.4800      1836
    58.5000      1886
    58.5200      1912
    58.5400      2052
    58.5600      2158
    58.5800      2252
    58.6000      2404
    58.6200      2540
    58.6400      2652
    58.6600      2838
    58.6800      2922
    58.7000      3050
    58.7200      3150
    58.7400      3112
    58.7600      3210
    58.7800      3072
    58.8000      3018
    58.8200      2888
    58.8400      2754
    58.8600      2684
    58.8800      2548
    58.9000      2408
    58.9200      2190
    58.9400      2054
    58.9600      1846
    58.9800      1730
    59.0000      1582
    59.0200      1434
    59.0400      1300
    59.0600      1230
    59.0800      1166
    59.1000      1008
    59.1200       966
    59.1400       912
    59.1600       878
    59.1800       866
    59.2000       840
    59.2200       840
    59.2400       864
    59.2600       884
    59.2800       904
    59.3000       990
    59.3200       976
    59.3400      1106
    59.3600      1134
    59.3800      1298
    59.4000      1352
    59.4200      1338
    59.4400      1394
    59.4600      1430
    59.4800      1382
    59.5000      1370
    59.5200      1350
    59.5400      1314
    59.5600      1332
    59.5800      1254
    59.6000      1284
    59.6200      1168
    59.6400      1206
    59.6600      1128
    59.6800      1094
    59.7000       944
    59.7200      1010
    59.7400       958
    59.7600       880
    59.7800       876
    59.8000       884
    59.8200       936
    59.8400       860
    59.8600       816
    59.8800       792
    59.9000       764
    59.9200       770
    59.9400       734
    59.9600       722
    59.9800       708
    60.0000       698
    60.0200       662
    60.0400       614
    60.0600       626
    60.0800       628
    60.1000       544
    60.1200       574
    60.1400       602
    60.1600       542
    60.1800       556
    60.2000       554
    60.2200       516
    60.2400       484
    60.2600       426
    60.2800       494
    60.3000       496
    60.3200       448
    60.3400       470
    60.3600       450
    60.3800       430
    60.4000       380
    60.4200       418
    60.4400       406
    60.4600       428
    60.4800       436
    60.5000       388
    60.5200       370
    60.5400       406
    60.5600       402
    60.5800       394
    60.6000       400
    60.6200       388
    60.6400       430
    60.6600       366
    60.6800       342
    60.7000       410
    60.7200       394
    60.7400       414
    60.7600       430
    60.7800       436
    60.8000       414
    60.8200       390
    60.8400       436
    60.8600       436
    60.8800       442
    60.9000       460
    60.9200       440
    60.9400       502
    60.9600       452
    60.9800       504
    61.0000       530
    61.0200       560
    61.0400       586
    61.0600       570
    61.0800       608
    61.1000       640
    61.1200       702
    61.1400       644
    61.1600       656
    61.1800       648
    61.2000       652
    61.2200       658
    61.2400       700
    61.2600       656
    61.2800       712
    61.3000       728
    61.3200       698
    61.3400       716
    61.3600       766
    61.3800       732
    61.4000       784
    61.4200       796
    61.4400       848
    61.4600       836
    61.4800       940
    61.5000       978
    61.5200       982
    61.5400      1056
    61.5600      1070
    61.5800      1100
    61.6000      1106
    61.6200      1122
    61.6400      1208
    61.6600      1162
    61.6800      1250
    61.7000      1234
    61.7200      1184
    61.7400      1190
    61.7600      1080
    61.7800      1036
    61.8000      1014
    61.8200       990
    61.8400       978
    61.8600       922
    61.8800       958
    61.9000       840
    61.9200       856
    61.9400       816
    61.9600       830
    61.9800       768
    62.0000       744
    62.0200       738
    62.0400       676
    62.0600       670
    62.0800       654
    62.1000       640
    62.1200       612
    62.1400       608
    62.1600       612
    62.1800       580
    62.2000       548
    62.2200       558
    62.2400       540
    62.2600       542
    62.2800       502
    62.3000       534
    62.3200       506
    62.3400       494
    62.3600       526
    62.3800       524
    62.4000       490
    62.4200       472
    62.4400       462
    62.4600       466
    62.4800       418
    62.5000       392
    62.5200       408
    62.5400       390
    62.5600       400
    62.5800       392
    62.6000       400
    62.6200       388
    62.6400       402
    62.6600       384
    62.6800       372
    62.7000       386
    62.7200       380
    62.7400       374
    62.7600       364
    62.7800       392
    62.8000       334
    62.8200       360
    62.8400       322
    62.8600       332
    62.8800       320
    62.9000       334
    62.9200       294
    62.9400       314
    62.9600       280
    62.9800       308
    63.0000       290
    63.0200       312
    63.0400       356
    63.0600       298
    63.0800       280
    63.1000       312
    63.1200       304
    63.1400       294
    63.1600       300
    63.1800       298
    63.2000       268
    63.2200       288
    63.2400       274
    63.2600       252
    63.2800       244
    63.3000       288
    63.3200       236
    63.3400       268
    63.3600       282
    63.3800       286
    63.4000       264
    63.4200       274
    63.4400       258
    63.4600       290
    63.4800       268
    63.5000       308
    63.5200       316
    63.5400       290
    63.5600       314
    63.5800       366
    63.6000       366
    63.6200       358
    63.6400       390
    63.6600       368
    63.6800       406
    63.7000       418
    63.7200       420
    63.7400       456
    63.7600       522
    63.7800       518
    63.8000       590
    63.8200       602
    63.8400       660
    63.8600       656
    63.8800       664
    63.9000       728
    63.9200       806
    63.9400       738
    63.9600       796
    63.9800       744
    64.0000       692
    64.0200       678
    64.0400       680
    64.0600       672
    64.0800       598
    64.1000       590
    64.1200       546
    64.1400       500
    64.1600       486
    64.1800       480
    64.2000       446
    64.2200       444
    64.2400       416
    64.2600       406
    64.2800       376
    64.3000       336
    64.3200       332
    64.3400       354
    64.3600       328
    64.3800       306
    64.4000       310
    64.4200       274
    64.4400       266
    64.4600       284
    64.4800       284
    64.5000       282
    64.5200       262
    64.5400       256
    64.5600       246
    64.5800       254
    64.6000       244
    64.6200       222
    64.6400       256
    64.6600       258
    64.6800       262
    64.7000       262
    64.7200       256
    64.7400       228
    64.7600       230
    64.7800       244
    64.8000       250
    64.8200       264
    64.8400       244
    64.8600       266
    64.8800       242
    64.9000       250
    64.9200       256
    64.9400       270
    64.9600       250
    64.9800       244
    65.0000       270
    65.0200       304
    65.0400       292
    65.0600       342
    65.0800       358
    65.1000       342
    65.1200       348
    65.1400       392
    65.1600       352
    65.1800       398
    65.2000       398
    65.2200       402
    65.2400       428
    65.2600       476
    65.2800       496
    65.3000       502
    65.3200       436
    65.3400       440
    65.3600       456
    65.3800       458
    65.4000       490
    65.4200       464
    65.4400       412
    65.4600       466
    65.4800       440
    65.5000       436
    65.5200       428
    65.5400       416
    65.5600       376
    65.5800       362
    65.6000       350
    65.6200       408
    65.6400       330
    65.6600       334
    65.6800       364
    65.7000       358
    65.7200       336
    65.7400       326
    65.7600       344
    65.7800       272
    65.8000       330
    65.8200       314
    65.8400       334
    65.8600       308
    65.8800       312
    65.9000       284
    65.9200       312
    65.9400       290
    65.9600       298
    65.9800       256
    66.0000       264
    66.0200       252
    66.0400       264
    66.0600       278
    66.0800       266
    66.1000       282
    66.1200       260
    66.1400       248
    66.1600       226
    66.1800       262
    66.2000       262
    66.2200       268
    66.2400       292
    66.2600       254
    66.2800       290
    66.3000       276
    66.3200       272
    66.3400       282
    66.3600       284
    66.3800       302
    66.4000       292
    66.4200       308
    66.4400       318
    66.4600       312
    66.4800       324
    66.5000       320
    66.5200       372
    66.5400       374
    66.5600       368
    66.5800       386
    66.6000       386
    66.6200       404
    66.6400       390
    66.6600       448
    66.6800       402
    66.7000       440
    66.7200       456
    66.7400       492
    66.7600       522
    66.7800       566
    66.8000       584
    66.8200       598
    66.8400       676
    66.8600       666
    66.8800       704
    66.9000       744
    66.9200       762
    66.9400       778
    66.9600       720
    66.9800       722
    67.0000       786
    67.0200       734
    67.0400       764
    67.0600       704
    67.0800       694
    67.1000       668
    67.1200       658
    67.1400       604
    67.1600       614
    67.1800       592
    67.2000       576
    67.2200       536
    67.2400       498
    67.2600       464
    67.2800       448
    67.3000       480
    67.3200       412
    67.3400       384
    67.3600       392
    67.3800       420
    67.4000       408
    67.4200       380
    67.4400       348
    67.4600       360
    67.4800       358
    67.5000       332
    67.5200       308
    67.5400       324
    67.5600       322
    67.5800       324
    67.6000       330
    67.6200       350
    67.6400       346
    67.6600       368
    67.6800       336
    67.7000       332
    67.7200       316
    67.7400       330
    67.7600       362
    67.7800       376
    67.8000       410
    67.8200       362
    67.8400       408
    67.8600       424
    67.8800       432
    67.9000       466
    67.9200       492
    67.9400       572
    67.9600       560
    67.9800       632
    68.0000       668
    68.0200       724
    68.0400       806
    68.0600       850
    68.0800       990
    68.1000      1024
    68.1200      1152
    68.1400      1124
    68.1600      1148
    68.1800      1178
    68.2000      1150
    68.2200      1186
    68.2400      1136
    68.2600      1188
    68.2800      1158
    68.3000      1112
    68.3200      1054
    68.3400      1008
    68.3600      1020
    68.3800       964
    68.4000       866
    68.4200       842
    68.4400       732
    68.4600       714
    68.4800       690
    68.5000       634
    68.5200       658
    68.5400       554
    68.5600       544
    68.5800       508
    68.6000       498
    68.6200       510
    68.6400       434
    68.6600       442
    68.6800       444
    68.7000       436
    68.7200       400
    68.7400       396
    68.7600       386
    68.7800       382
    68.8000       372
    68.8200       366
    68.8400       324
    68.8600       366
    68.8800       328
    68.9000       378
    68.9200       344
    68.9400       348
    68.9600       346
    68.9800       390
    69.0000       344
    69.0200       342
    69.0400       342
    69.0600       330
    69.0800       348
    69.1000       350
    69.1200       382
    69.1400       354
    69.1600       360
    69.1800       382
    69.2000       398
    69.2200       370
    69.2400       454
    69.2600       448
    69.2800       446
    69.3000       522
    69.3200       512
    69.3400       514
    69.3600       568
    69.3800       540
    69.4000       562
    69.4200       586
    69.4400       596
    69.4600       576
    69.4800       600
    69.5000       576
    69.5200       566
    69.5400       550
    69.5600       538
    69.5800       518
    69.6000       466
    69.6200       456
    69.6400       436
    69.6600       422
    69.6800       444
    69.7000       414
    69.7200       408
    69.7400       354
    69.7600       358
    69.7800       374
    69.8000       336
    69.8200       358
    69.8400       346
    69.8600       368
    69.8800       348
    69.9000       362
    69.9200       362
    69.9400       350
    69.9600       338
    69.9800       382
    70.0000       386
    70.0200       376
    70.0400       344
    70.0600       326
    70.0800       332
    70.1000       318
    70.1200       302
    70.1400       326
    70.1600       344
    70.1800       342
    70.2000       262
    70.2200       304
    70.2400       292
    70.2600       252
    70.2800       258
    70.3000       232
    70.3200       250
    70.3400       248
    70.3600       252
    70.3800       226
    70.4000       286
    70.4200       248
    70.4400       262
    70.4600       256
    70.4800       248
    70.5000       260
    70.5200       266
    70.5400       236
    70.5600       288
    70.5800       250
    70.6000       268
    70.6200       256
    70.6400       244
    70.6600       280
    70.6800       240
    70.7000       250
    70.7200       248
    70.7400       278
    70.7600       266
    70.7800       254
    70.8000       248
    70.8200       242
    70.8400       242
    70.8600       230
    70.8800       208
    70.9000       232
    70.9200       238
    70.9400       210
    70.9600       240
    70.9800       230
    71.0000       230
    71.0200       244
    71.0400       232
    71.0600       226
    71.0800       234
    71.1000       246
    71.1200       258
    71.1400       250
    71.1600       238
    71.1800       258
    71.2000       270
    71.2200       326
    71.2400       282
    71.2600       304
    71.2800       306
    71.3000       374
    71.3200       406
    71.3400       384
    71.3600       394
    71.3800       474
    71.4000       474
    71.4200       480
    71.4400       540
    71.4600       532
    71.4800       586
    71.5000       574
    71.5200       594
    71.5400       610
    71.5600       598
    71.5800       600
    71.6000       596
    71.6200       666
    71.6400       634
    71.6600       584
    71.6800       592
    71.7000       608
    71.7200       564
    71.7400       554
    71.7600       570
    71.7800       546
    71.8000       582
    71.8200       494
    71.8400       504
    71.8600       478
    71.8800       476
    71.9000       474
    71.9200       448
    71.9400       466
    71.9600       404
    71.9800       476
    72.0000       466
    72.0200       446
    72.0400       438
    72.0600       444
    72.0800       448
    72.1000       442
    72.1200       468
    72.1400       468
    72.1600       464
    72.1800       458
    72.2000       438
    72.2200       490
    72.2400       480
    72.2600       502
    72.2800       514
    72.3000       550
    72.3200       514
    72.3400       524
    72.3600       542
    72.3800       514
    72.4000       494
    72.4200       514
    72.4400       474
    72.4600       506
    72.4800       522
    72.5000       558
    72.5200       470
    72.5400       504
    72.5600       496
    72.5800       486
    72.6000       468
    72.6200       548
    72.6400       544
    72.6600       580
    72.6800       538
    72.7000       548
    72.7200       536
    72.7400       516
    72.7600       562
    72.7800       510
    72.8000       480
    72.8200       548
    72.8400       504
    72.8600       468
    72.8800       500
    72.9000       484
    72.9200       458
    72.9400       486
    72.9600       462
    72.9800       488
    73.0000       466
    73.0200       468
    73.0400       446
    73.0600       448
    73.0800       394
    73.1000       390
    73.1200       404
    73.1400       362
    73.1600       378
    73.1800       360
    73.2000       366
    73.2200       316
    73.2400       330
    73.2600       316
    73.2800       294
    73.3000       288
    73.3200       286
    73.3400       284
    73.3600       268
    73.3800       268
    73.4000       258
    73.4200       264
    73.4400       242
    73.4600       264
    73.4800       246
    73.5000       274
    73.5200       276
    73.5400       260
    73.5600       232
    73.5800       238
    73.6000       226
    73.6200       236
    73.6400       266
    73.6600       238
    73.6800       258
    73.7000       222
    73.7200       234
    73.7400       278
    73.7600       246
    73.7800       248
    73.8000       246
    73.8200       236
    73.8400       248
    73.8600       240
    73.8800       274
    73.9000       274
    73.9200       266
    73.9400       252
    73.9600       276
    73.9800       264
    74.0000       294
    74.0200       262
    74.0400       284
    74.0600       260
    74.0800       314
    74.1000       310
    74.1200       296
    74.1400       300
    74.1600       304
    74.1800       292
    74.2000       274
    74.2200       300
    74.2400       288
    74.2600       282
    74.2800       258
    74.3000       268
    74.3200       286
    74.3400       274
    74.3600       262
    74.3800       240
    74.4000       242
    74.4200       252
    74.4400       220
    74.4600       224
    74.4800       224
    74.5000       242
    74.5200       214
    74.5400       212
    74.5600       204
    74.5800       210
    74.6000       216
    74.6200       214
    74.6400       168
    74.6600       182
    74.6800       194
    74.7000       210
    74.7200       206
    74.7400       190
    74.7600       188
    74.7800       210
    74.8000       216
    74.8200       192
    74.8400       192
    74.8600       186
    74.8800       206
    74.9000       206
    74.9200       178
    74.9400       214
    74.9600       190
    74.9800       226
    75.0000       200
    75.0200       190
    75.0400       214
    75.0600       248
    75.0800       222
    75.1000       190
    75.1200       200
    75.1400       232
    75.1600       212
    75.1800       216
    75.2000       218
    75.2200       212
    75.2400       244
    75.2600       210
    75.2800       256
    75.3000       218
    75.3200       230
    75.3400       246
    75.3600       234
    75.3800       248
    75.4000       236
    75.4200       248
    75.4400       254
    75.4600       238
    75.4800       216
    75.5000       264
    75.5200       238
    75.5400       238
    75.5600       250
    75.5800       238
    75.6000       262
    75.6200       254
    75.6400       262
    75.6600       252
    75.6800       234
    75.7000       260
    75.7200       218
    75.7400       226
    75.7600       224
    75.7800       262
    75.8000       260
    75.8200       250
    75.8400       288
    75.8600       244
    75.8800       232
    75.9000       264
    75.9200       252
    75.9400       248
    75.9600       252
    75.9800       254
    76.0000       262
    76.0200       220
    76.0400       266
    76.0600       280
    76.0800       226
    76.1000       272
    76.1200       252
    76.1400       264
    76.1600       262
    76.1800       294
    76.2000       252
    76.2200       226
    76.2400       276
    76.2600       290
    76.2800       298
    76.3000       296
    76.3200       302
    76.3400       326
    76.3600       302
    76.3800       354
    76.4000       314
    76.4200       310
    76.4400       354
    76.4600       378
    76.4800       340
    76.5000       322
    76.5200       368
    76.5400       344
    76.5600       382
    76.5800       358
    76.6000       392
    76.6200       430
    76.6400       382
    76.6600       440
    76.6800       422
    76.7000       410
    76.7200       436
    76.7400       418
    76.7600       416
    76.7800       386
    76.8000       418
    76.8200       400
    76.8400       408
    76.8600       380
    76.8800       362
    76.9000       372
    76.9200       374
    76.9400       374
    76.9600       352
    76.9800       360
    77.0000       380
    77.0200       342
    77.0400       308
    77.0600       324
    77.0800       358
    77.1000       334
    77.1200       314
    77.1400       368
    77.1600       334
    77.1800       376
    77.2000       336
    77.2200       340
    77.2400       340
    77.2600       384
    77.2800       384
    77.3000       380
    77.3200       410
    77.3400       414
    77.3600       434
    77.3800       454
    77.4000       506
    77.4200       502
    77.4400       512
    77.4600       540
    77.4800       590
    77.5000       612
    77.5200       656
    77.5400       728
    77.5600       770
    77.5800       728
    77.6000       778
    77.6200       804
    77.6400       828
    77.6600       866
    77.6800       864
    77.7000       802
    77.7200       836
    77.7400       772
    77.7600       754
    77.7800       792
    77.8000       710
    77.8200       728
    77.8400       672
    77.8600       696
    77.8800       664
    77.9000       610
    77.9200       642
    77.9400       588
    77.9600       582
    77.9800       566
    78.0000       504
    78.0200       500
    78.0400       464
    78.0600       444
    78.0800       396
    78.1000       388
    78.1200       380
    78.1400       376
    78.1600       402
    78.1800       332
    78.2000       372
    78.2200       330
    78.2400       362
    78.2600       322
    78.2800       358
    78.3000       368
    78.3200       316
    78.3400       378
    78.3600       328
    78.3800       372
    78.4000       342
    78.4200       384
    78.4400       388
    78.4600       394
    78.4800       386
    78.5000       412
    78.5200       410
    78.5400       434
    78.5600       412
    78.5800       424
    78.6000       424
    78.6200       392
    78.6400       446
    78.6600       438
    78.6800       480
    78.7000       416
    78.7200       464
    78.7400       438
    78.7600       448
    78.7800       448
    78.8000       444
    78.8200       410
    78.8400       430
    78.8600       402
    78.8800       360
    78.9000       352
    78.9200       338
    78.9400       334
    78.9600       356
    78.9800       350
    79.0000       338
    79.0200       318
    79.0400       292
    79.0600       318
    79.0800       314
    79.1000       290
    79.1200       254
    79.1400       290
    79.1600       236
    79.1800       306
    79.2000       284
    79.2200       302
    79.2400       250
    79.2600       276
    79.2800       268
    79.3000       262
    79.3200       244
    79.3400       256
    79.3600       226
    79.3800       220
    79.4000       274
    79.4200       248
    79.4400       266
    79.4600       252
    79.4800       256
    79.5000       256
    79.5200       254
    79.5400       244
    79.5600       244
    79.5800       250
    79.6000       260
    79.6200       270
    79.6400       258
    79.6600       242
    79.6800       258
    79.7000       268
    79.7200       274
    79.7400       256
    79.7600       262
    79.7800       282
    79.8000       250
    79.8200       248
    79.8400       272
    79.8600       260
    79.8800       260
    79.9000       274
    79.9200       250
    79.9400       256
    79.9600       248
    79.9800       276
    80.0000       262
    80.0200       224
    80.0400       282
    80.0600       250
    80.0800       248
    80.1000       262
    80.1200       262
    80.1400       228
    80.1600       264
    80.1800       278
    80.2000       272
    80.2200       258
    80.2400       282
    80.2600       284
    80.2800       272
    80.3000       268
    80.3200       294
    80.3400       240
    80.3600       258
    80.3800       290
    80.4000       264
    80.4200       282
    80.4400       296
    80.4600       282
    80.4800       266
    80.5000       270
    80.5200       266
    80.5400       254
    80.5600       294
    80.5800       280
    80.6000       260
    80.6200       220
    80.6400       274
    80.6600       232
    80.6800       266
    80.7000       238
    80.7200       256
    80.7400       286
    80.7600       276
    80.7800       268
    80.8000       272
    80.8200       252
    80.8400       248
    80.8600       226
    80.8800       210
    80.9000       234
    80.9200       234
    80.9400       240
    80.9600       222
    80.9800       236
    81.0000       228
    81.0200       232
    81.0400       228
    81.0600       244
    81.0800       260
    81.1000       268
    81.1200       242
    81.1400       244
    81.1600       244
    81.1800       234
    81.2000       260
    81.2200       258
    81.2400       280
    81.2600       260
    81.2800       284
    81.3000       264
    81.3200       264
    81.3400       276
    81.3600       272
    81.3800       284
    81.4000       282
    81.4200       254
    81.4400       266
    81.4600       290
    81.4800       278
    81.5000       250
    81.5200       264
    81.5400       272
    81.5600       256
    81.5800       296
    81.6000       262
    81.6200       276
    81.6400       258
    81.6600       274
    81.6800       298
    81.7000       262
    81.7200       290
    81.7400       254
    81.7600       298
    81.7800       288
    81.8000       246
    81.8200       306
    81.8400       308
    81.8600       290
    81.8800       298
    81.9000       260
    81.9200       300
    81.9400       300
    81.9600       306
    81.9800       310
    82.0000       312
    82.0200       288
    82.0400       300
    82.0600       318
    82.0800       294
    82.1000       312
    82.1200       316
    82.1400       366
    82.1600       334
    82.1800       300
    82.2000       372
    82.2200       394
    82.2400       380
    82.2600       404
    82.2800       378
    82.3000       372
    82.3200       392
    82.3400       388
    82.3600       366
    82.3800       360
    82.4000       390
    82.4200       350
    82.4400       372
    82.4600       410
    82.4800       372
    82.5000       396
    82.5200       416
    82.5400       400
    82.5600       408
    82.5800       446
    82.6000       388
    82.6200       488
    82.6400       476
    82.6600       500
    82.6800       464
    82.7000       516
    82.7200       526
    82.7400       480
    82.7600       578
    82.7800       570
    82.8000       546
    82.8200       654
    82.8400       580
    82.8600       632
    82.8800       666
    82.9000       670
    82.9200       648
    82.9400       720
    82.9600       706
    82.9800       712
    83.0000       650
    83.0200       712
    83.0400       650
    83.0600       626
    83.0800       658
    83.1000       596
    83.1200       592
    83.1400       582
    83.1600       622
    83.1800       618
    83.2000       602
    83.2200       568
    83.2400       556
    83.2600       562
    83.2800       518
    83.3000       510
    83.3200       516
    83.3400       470
    83.3600       490
    83.3800       482
    83.4000       420
    83.4200       460
    83.4400       406
    83.4600       418
    83.4800       428
    83.5000       374
    83.5200       352
    83.5400       384
    83.5600       380
    83.5800       326
    83.6000       336
    83.6200       336
    83.6400       322
    83.6600       324
    83.6800       342
    83.7000       326
    83.7200       292
    83.7400       322
    83.7600       314
    83.7800       298
    83.8000       298
    83.8200       322
    83.8400       338
    83.8600       304
    83.8800       326
    83.9000       312
    83.9200       318
    83.9400       330
    83.9600       282
    83.9800       312
    84.0000       334
    84.0200       332
    84.0400       302
    84.0600       294
    84.0800       344
    84.1000       350
    84.1200       300
    84.1400       294
    84.1600       282
    84.1800       314
    84.2000       298
    84.2200       326
    84.2400       284
    84.2600       314
    84.2800       304
    84.3000       294
    84.3200       312
    84.3400       304
    84.3600       308
    84.3800       312
    84.4000       272
    84.4200       302
    84.4400       286
    84.4600       268
    84.4800       256
    84.5000       286
    84.5200       238
    84.5400       288
    84.5600       300
    84.5800       298
    84.6000       278
    84.6200       286
    84.6400       278
    84.6600       266
    84.6800       284
    84.7000       292
    84.7200       288
    84.7400       272
    84.7600       250
    84.7800       254
    84.8000       288
    84.8200       278
    84.8400       256
    84.8600       284
    84.8800       288
    84.9000       286
    84.9200       252
    84.9400       284
    84.9600       262
    84.9800       266
    85.0000       278
    85.0200       284
    85.0400       312
    85.0600       282
    85.0800       258
    85.1000       238
    85.1200       256
    85.1400       296
    85.1600       290
    85.1800       252
    85.2000       264
    85.2200       278
    85.2400       250
    85.2600       258
    85.2800       238
    85.3000       252
    85.3200       252
    85.3400       270
    85.3600       282
    85.3800       288
    85.4000       284
    85.4200       308
    85.4400       288
    85.4600       290
    85.4800       286
    85.5000       282
    85.5200       266
    85.5400       318
    85.5600       286
    85.5800       324
    85.6000       300
    85.6200       288
    85.6400       318
    85.6600       292
    85.6800       244
    85.7000       272
    85.7200       278
    85.7400       282
    85.7600       296
    85.7800       252
    85.8000       270
    85.8200       254
    85.8400       260
    85.8600       260
    85.8800       254
    85.9000       232
    85.9200       268
    85.9400       250
    85.9600       240
    85.9800       218
    86.0000       230
    86.0200       252
    86.0400       214
    86.0600       236
    86.0800       224
    86.1000       226
    86.1200       236
    86.1400       234
    86.1600       238
    86.1800       210
    86.2000       228
    86.2200       266
    86.2400       248
    86.2600       222
    86.2800       234
    86.3000       238
    86.3200       226
    86.3400       238
    86.3600       218
    86.3800       228
    86.4000       224
    86.4200       226
    86.4400       230
    86.4600       254
    86.4800       212
    86.5000       214
    86.5200       234
    86.5400       266
    86.5600       246
    86.5800       252
    86.6000       212
    86.6200       270
    86.6400       250
    86.6600       258
    86.6800       270
    86.7000       254
    86.7200       272
    86.7400       276
    86.7600       300
    86.7800       304
    86.8000       340
    86.8200       348
    86.8400       378
    86.8600       320
    86.8800       376
    86.9000       352
    86.9200       358
    86.9400       384
    86.9600       390
    86.9800       368
    87.0000       398
    87.0200       398
    87.0400       398
    87.0600       400
    87.0800       344
    87.1000       370
    87.1200       378
    87.1400       348
    87.1600       340
    87.1800       338
    87.2000       352
    87.2200       352
    87.2400       316
    87.2600       356
    87.2800       330
    87.3000       356
    87.3200       306
    87.3400       298
    87.3600       304
    87.3800       280
    87.4000       310
    87.4200       288
    87.4400       278
    87.4600       266
    87.4800       276
    87.5000       270
    87.5200       278
    87.5400       286
    87.5600       290
    87.5800       280
    87.6000       282
    87.6200       308
    87.6400       314
    87.6600       308
    87.6800       324
    87.7000       334
    87.7200       334
    87.7400       380
    87.7600       358
    87.7800       402
    87.8000       372
    87.8200       392
    87.8400       432
    87.8600       410
    87.8800       424
    87.9000       404
    87.9200       464
    87.9400       450
    87.9600       446
    87.9800       460
    88.0000       474
    88.0200       466
    88.0400       422
    88.0600       386
    88.0800       444
    88.1000       412
    88.1200       382
    88.1400       418
    88.1600       404
    88.1800       386
    88.2000       402
    88.2200       382
    88.2400       412
    88.2600       394
    88.2800       408
    88.3000       384
    88.3200       374
    88.3400       386
    88.3600       358
    88.3800       364
    88.4000       352
    88.4200       334
    88.4400       362
    88.4600       376
    88.4800       376
    88.5000       372
    88.5200       354
    88.5400       364
    88.5600       374
    88.5800       364
    88.6000       382
    88.6200       418
    88.6400       342
    88.6600       320
    88.6800       366
    88.7000       302
    88.7200       382
    88.7400       336
    88.7600       314
    88.7800       344
    88.8000       334
    88.8200       308
    88.8400       330
    88.8600       312
    88.8800       330
    88.9000       304
    88.9200       314
    88.9400       278
    88.9600       282
    88.9800       300
    89.0000       294
    89.0200       310
    89.0400       270
    89.0600       290
    89.0800       292
    89.1000       248
    89.1200       256
    89.1400       238
    89.1600       258
    89.1800       250
    89.2000       270
    89.2200       248
    89.2400       244
    89.2600       282
    89.2800       272
    89.3000       266
    89.3200       258
    89.3400       248
    89.3600       266
    89.3800       274
    89.4000       272
    89.4200       238
    89.4400       300
    89.4600       270
    89.4800       278
    89.5000       300
    89.5200       260
    89.5400       296
    89.5600       274
    89.5800       286
    89.6000       282
    89.6200       280
    89.6400       266
    89.6600       282
    89.6800       264
    89.7000       278
    89.7200       260
    89.7400       252
    89.7600       272
    89.7800       314
    89.8000       298
    89.8200       308
    89.8400       326
    89.8600       324
    89.8800       314
    89.9000       306
    89.9200       318
    89.9400       304
    89.9600       338
    89.9800       294
    90.0000       358
