    10.0000       378
    10.0200       344
    10.0400       364
    10.0600       340
    10.0800       322
    10.1000       372
    10.1200       370
    10.1400       358
    10.1600       358
    10.1800       358
    10.2000       338
    10.2200       354
    10.2400       352
    10.2600       376
    10.2800       328
    10.3000       368
    10.3200       332
    10.3400       368
    10.3600       352
    10.3800       360
    10.4000       324
    10.4200       352
    10.4400       320
    10.4600       348
    10.4800       346
    10.5000       336
    10.5200       316
    10.5400       358
    10.5600       338
    10.5800       358
    10.6000       338
    10.6200       328
    10.6400       326
    10.6600       308
    10.6800       350
    10.7000       290
    10.7200       384
    10.7400       332
    10.7600       326
    10.7800       324
    10.8000       354
    10.8200       332
    10.8400       350
    10.8600       320
    10.8800       342
    10.9000       308
    10.9200       328
    10.9400       294
    10.9600       294
    10.9800       322
    11.0000       354
    11.0200       330
    11.0400       334
    11.0600       386
    11.0800       308
    11.1000       304
    11.1200       336
    11.1400       348
    11.1600       292
    11.1800       334
    11.2000       332
    11.2200       310
    11.2400       298
    11.2600       310
    11.2800       316
    11.3000       336
    11.3200       330
    11.3400       326
    11.3600       302
    11.3800       320
    11.4000       330
    11.4200       304
    11.4400       328
    11.4600       324
    11.4800       320
    11.5000       304
    11.5200       304
    11.5400       350
    11.5600       326
    11.5800       326
    11.6000       330
    11.6200       290
    11.6400       318
    11.6600       290
    11.6800       292
    11.7000       312
    11.7200       318
    11.7400       310
    11.7600       290
    11.7800       324
    11.8000       320
    11.8200       318
    11.8400       298
    11.8600       336
    11.8800       294
    11.9000       306
    11.9200       312
    11.9400       312
    11.9600       294
    11.9800       330
    12.0000       298
    12.0200       292
    12.0400       274
    12.0600       286
    12.0800       296
    12.1000       280
    12.1200       288
    12.1400       312
    12.1600       288
    12.1800       338
    12.2000       318
    12.2200       300
    12.2400       284
    12.2600       300
    12.2800       298
    12.3000       286
    12.3200       320
    12.3400       276
    12.3600       302
    12.3800       294
    12.4000       310
    12.4200       302
    12.4400       302
    12.4600       294
    12.4800       310
    12.5000       292
    12.5200       302
    12.5400       280
    12.5600       268
    12.5800       314
    12.6000       294
    12.6200       268
    12.6400       310
    12.6600       286
    12.6800       278
    12.7000       296
    12.7200       268
    12.7400       282
    12.7600       282
    12.7800       254
    12.8000       276
    12.8200       286
    12.8400       274
    12.8600       262
    12.8800       256
    12.9000       278
    12.9200       286
    12.9400       256
    12.9600       272
    12.9800       292
    13.0000       250
    13.0200       286
    13.0400       298
    13.0600       276
    13.0800       240
    13.1000       250
    13.1200       240
    13.1400       302
    13.1600       252
    13.1800       252
    13.2000       276
    13.2200       274
    13.2400       248
    13.2600       252
    13.2800       230
    13.3000       264
    13.3200       272
    13.3400       248
    13.3600       284
    13.3800       286
    13.4000       230
    13.4200       262
    13.4400       274
    13.4600       246
    13.4800       268
    13.5000       284
    13.5200       256
    13.5400       266
    13.5600       248
    13.5800       270
    13.6000       276
    13.6200       246
    13.6400       254
    13.6600       260
    13.6800       238
    13.7000       258
    13.7200       220
    13.7400       238
    13.7600       264
    13.7800       254
    13.8000       232
    13.8200       236
    13.8400       238
    13.8600       222
    13.8800       256
    13.9000       240
    13.9200       236
    13.9400       236
    13.9600       238
    13.9800       248
    14.0000       260
    14.0200       274
    14.0400       244
    14.0600       268
    14.0800       264
    14.1000       236
    14.1200       228
    14.1400       254
    14.1600       234
    14.1800       238
    14.2000       240
    14.2200       232
    14.2400       214
    14.2600       234
    14.2800       236
    14.3000       220
    14.3200       284
    14.3400       262
    14.3600       234
    14.3800       232
    14.4000       228
    14.4200       248
    14.4400       208
    14.4600       248
    14.4800       266
    14.5000       220
    14.5200       232
    14.5400       236
    14.5600       254
    14.5800       216
    14.6000       216
    14.6200       228
    14.6400       238
    14.6600       266
    14.6800       234
    14.7000       232
    14.7200       280
    14.7400       242
    14.7600       240
    14.7800       230
    14.8000       242
    14.8200       222
    14.8400       242
    14.8600       232
    14.8800       224
    14.9000       250
    14.9200       226
    14.9400       264
    14.9600       232
    14.9800       278
    15.0000       246
    15.0200       258
    15.0400       270
    15.0600       276
    15.0800       266
    15.1000       254
    15.1200       264
    15.1400       242
    15.1600       268
    15.1800       314
    15.2000       290
    15.2200       276
    15.2400       276
    15.2600       294
    15.2800       238
    15.3000       260
    15.3200       266
    15.3400       250
    15.3600       238
    15.3800       238
    15.4000       260
    15.4200       246
    15.4400       256
    15.4600       252
    15.4800       236
    15.5000       266
    15.5200       256
    15.5400       256
    15.5600       252
    15.5800       232
    15.6000       244
    15.6200       238
    15.6400       220
    15.6600       252
    15.6800       224
    15.7000       244
    15.7200       240
    15.7400       234
    15.7600       232
    15.7800       208
    15.8000       234
    15.8200       210
    15.8400       230
    15.8600       226
    15.8800       238
    15.9000       220
    15.9200       222
    15.9400       250
    15.9600       222
    15.9800       224
    16.0000       216
    16.0200       214
    16.0400       204
    16.0600       208
    16.0800       224
    16.1000       226
    16.1200       202
    16.1400       222
    16.1600       238
    16.1800       226
    16.2000       214
    16.2200       228
    16.2400       234
    16.2600       190
    16.2800       232
    16.3000       218
    16.3200       236
    16.3400       218
    16.3600       220
    16.3800       224
    16.4000       226
    16.4200       214
    16.4400       186
    16.4600       202
    16.4800       192
    16.5000       198
    16.5200       238
    16.5400       216
    16.5600       204
    16.5800       214
    16.6000       222
    16.6200       236
    16.6400       220
    16.6600       224
    16.6800       232
    16.7000       222
    16.7200       208
    16.7400       178
    16.7600       230
    16.7800       224
    16.8000       220
    16.8200       238
    16.8400       212
    16.8600       224
    16.8800       238
    16.9000       240
    16.9200       262
    16.9400       238
    16.9600       256
    16.9800       260
    17.0000       254
    17.0200       296
    17.0400       302
    17.0600       262
    17.0800       290
    17.1000       280
    17.1200       284
    17.1400       268
    17.1600       258
    17.1800       230
    17.2000       238
    17.2200       242
    17.2400       232
    17.2600       246
    17.2800       206
    17.3000       200
    17.3200       214
    17.3400       190
    17.3600       214
    17.3800       210
    17.4000       230
    17.4200       202
    17.4400       226
    17.4600       210
    17.4800       232
    17.5000       198
    17.5200       214
    17.5400       200
    17.5600       222
    17.5800       196
    17.6000       236
    17.6200       210
    17.6400       196
    17.6600       228
    17.6800       194
    17.7000       220
    17.7200       232
    17.7400       184
    17.7600       206
    17.7800       222
    17.8000       212
    17.8200       198
    17.8400       224
    17.8600       226
    17.8800       226
    17.9000       216
    17.9200       236
    17.9400       200
    17.9600       208
    17.9800       212
    18.0000       200
    18.0200       202
    18.0400       192
    18.0600       222
    18.0800       196
    18.1000       178
    18.1200       232
    18.1400       208
    18.1600       218
    18.1800       220
    18.2000       206
    18.2200       198
    18.2400       214
    18.2600       204
    18.2800       216
    18.3000       222
    18.3200       218
    18.3400       212
    18.3600       202
    18.3800       234
    18.4000       208
    18.4200       192
    18.4400       238
    18.4600       202
    18.4800       218
    18.5000       228
    18.5200       202
    18.5400       198
    18.5600       234
    18.5800       230
    18.6000       230
    18.6200       222
    18.6400       216
    18.6600       224
    18.6800       224
    18.7000       218
    18.7200       240
    18.7400       208
    18.7600       252
    18.7800       250
    18.8000       236
    18.8200       242
    18.8400       252
    18.8600       272
    18.8800       288
    18.9000       270
    18.9200       236
    18.9400       318
    18.9600       290
    18.9800       306
    19.0000       316
    19.0200       324
    19.0400       326
    19.0600       362
    19.0800       376
    19.1000       384
    19.1200       450
    19.1400       468
    19.1600       478
    19.1800       562
    19.2000       568
    19.2200       638
    19.2400       756
    19.2600       818
    19.2800       952
    19.3000       950
    19.3200      1086
    19.3400      1234
    19.3600      1362
    19.3800      1564
    19.4000      1822
    19.4200      2180
    19.4400      2576
    19.4600      2980
    19.4800      3322
    19.5000      3954
    19.5200      4386
    19.5400      4614
    19.5600      4804
    19.5800      4494
    19.6000      4100
    19.6200      3358
    19.6400      2826
    19.6600      2252
    19.6800      1914
    19.7000      1592
    19.7200      1412
    19.7400      1416
    19.7600      1340
    19.7800      1448
    19.8000      1462
    19.8200      1636
    19.8400      1764
    19.8600      1858
    19.8800      2120
    19.9000      2382
    19.9200      2670
    19.9400      2986
    19.9600      3328
    19.9800      3478
    20.0000      3566
    20.0200      3442
    20.0400      3176
    20.0600      2648
    20.0800      2286
    20.1000      1710
    20.1200      1448
    20.1400      1074
    20.1600       892
    20.1800       748
    20.2000       648
    20.2200       586
    20.2400       526
    20.2600       496
    20.2800       482
    20.3000       394
    20.3200       402
    20.3400       354
    20.3600       356
    20.3800       334
    20.4000       306
    20.4200       314
    20.4400       284
    20.4600       272
    20.4800       240
    20.5000       258
    20.5200       238
    20.5400       250
    20.5600       258
    20.5800       288
    20.6000       220
    20.6200       254
    20.6400       234
    20.6600       244
    20.6800       242
    20.7000       256
    20.7200       210
    20.7400       248
    20.7600       230
    20.7800       236
    20.8000       198
    20.8200       214
    20.8400       204
    20.8600       224
    20.8800       260
    20.9000       260
    20.9200       212
    20.9400       208
    20.9600       242
    20.9800       232
    21.0000       216
    21.0200       234
    21.0400       216
    21.0600       224
    21.0800       250
    21.1000       224
    21.1200       254
    21.1400       252
    21.1600       252
    21.1800       248
    21.2000       254
    21.2200       242
    21.2400       288
    21.2600       274
    21.2800       248
    21.3000       226
    21.3200       242
    21.3400       234
    21.3600       220
    21.3800       226
    21.4000       220
    21.4200       226
    21.4400       212
    21.4600       214
    21.4800       226
    21.5000       194
    21.5200       210
    21.5400       210
    21.5600       212
    21.5800       208
    21.6000       216
    21.6200       194
    21.6400       236
    21.6600       218
    21.6800       208
    21.7000       212
    21.7200       210
    21.7400       202
    21.7600       210
    21.7800       202
    21.8000       228
    21.8200       204
    21.8400       184
    21.8600       186
    21.8800       192
    21.9000       226
    21.9200       194
    21.9400       232
    21.9600       190
    21.9800       216
    22.0000       234
    22.0200       222
    22.0400       208
    22.0600       226
    22.0800       246
    22.1000       228
    22.1200       240
    22.1400       224
    22.1600       254
    22.1800       204
    22.2000       260
    22.2200       244
    22.2400       268
    22.2600       294
    22.2800       304
    22.3000       274
    22.3200       296
    22.3400       344
    22.3600       388
    22.3800       352
    22.4000       384
    22.4200       438
    22.4400       456
    22.4600       478
    22.4800       564
    22.5000       588
    22.5200       690
    22.5400       770
    22.5600       810
    22.5800       982
    22.6000      1112
    22.6200      1238
    22.6400      1348
    22.6600      1582
    22.6800      1810
    22.7000      2118
    22.7200      2562
    22.7400      2814
    22.7600      3494
    22.7800      3968
    22.8000      4618
    22.8200      5184
    22.8400      5986
    22.8600      6408
    22.8800      6494
    22.9000      6268
    22.9200      5598
    22.9400      4598
    22.9600      3848
    22.9800      3040
    23.0000      2336
    23.0200      1836
    23.0400      1574
    23.0600      1344
    23.0800      1126
    23.1000       978
    23.1200       888
    23.1400       830
    23.1600       712
    23.1800       660
    23.2000       614
    23.2200       554
    23.2400       508
    23.2600       450
    23.2800       462
    23.3000       410
    23.3200       370
    23.3400       384
    23.3600       362
    23.3800       344
    23.4000       326
    23.4200       324
    23.4400       340
    23.4600       292
    23.4800       276
    23.5000       232
    23.5200       238
    23.5400       252
    23.5600       264
    23.5800       250
    23.6000       264
    23.6200       248
    23.6400       286
    23.6600       254
    23.6800       236
    23.7000       246
    23.7200       256
    23.7400       226
    23.7600       248
    23.7800       280
    23.8000       266
    23.8200       294
    23.8400       260
    23.8600       282
    23.8800       262
    23.9000       284
    23.9200       258
    23.9400       264
    23.9600       262
    23.9800       250
    24.0000       278
    24.0200       260
    24.0400       248
    24.0600       268
    24.0800       230
    24.1000       230
    24.1200       238
    24.1400       236
    24.1600       226
    24.1800       220
    24.2000       242
    24.2200       192
    24.2400       216
    24.2600       194
    24.2800       214
    24.3000       202
    24.3200       232
    24.3400       224
    24.3600       254
    24.3800       206
    24.4000       252
    24.4200       236
    24.4400       206
    24.4600       226
    24.4800       216
    24.5000       246
    24.5200       204
    24.5400       226
    24.5600       220
    24.5800       238
    24.6000       260
    24.6200       234
    24.6400       242
    24.6600       198
    24.6800       230
    24.7000       228
    24.7200       216
    24.7400       218
    24.7600       216
    24.7800       214
    24.8000       192
    24.8200       232
    24.8400       220
    24.8600       236
    24.8800       214
    24.9000       188
    24.9200       204
    24.9400       246
    24.9600       202
    24.9800       208
    25.0000       256
    25.0200       270
    25.0400       226
    25.0600       212
    25.0800       238
    25.1000       234
    25.1200       242
    25.1400       272
    25.1600       250
    25.1800       264
    25.2000       286
    25.2200       282
    25.2400       318
    25.2600       300
    25.2800       356
    25.3000       364
    25.3200       404
    25.3400       402
    25.3600       474
    25.3800       464
    25.4000       544
    25.4200       506
    25.4400       608
    25.4600       702
    25.4800       680
    25.5000       828
    25.5200      1022
    25.5400      1064
    25.5600      1256
    25.5800      1290
    25.6000      1366
    25.6200      1362
    25.6400      1348
    25.6600      1272
    25.6800      1114
    25.7000       984
    25.7200       762
    25.7400       660
    25.7600       592
    25.7800       514
    25.8000       464
    25.8200       416
    25.8400       368
    25.8600       370
    25.8800       312
    25.9000       330
    25.9200       318
    25.9400       304
    25.9600       326
    25.9800       280
    26.0000       282
    26.0200       300
    26.0400       242
    26.0600       262
    26.0800       290
    26.1000       254
    26.1200       280
    26.1400       236
    26.1600       252
    26.1800       270
    26.2000       244
    26.2200       284
    26.2400       248
    26.2600       258
    26.2800       276
    26.3000       254
    26.3200       260
    26.3400       244
    26.3600       238
    26.3800       252
    26.4000       244
    26.4200       238
    26.4400       246
    26.4600       234
    26.4800       262
    26.5000       238
    26.5200       224
    26.5400       248
    26.5600       244
    26.5800       244
    26.6000       230
    26.6200       248
    26.6400       258
    26.6600       240
    26.6800       226
    26.7000       250
    26.7200       228
    26.7400       232
    26.7600       230
    26.7800       216
    26.8000       216
    26.8200       220
    26.8400       238
    26.8600       208
    26.8800       204
    26.9000       180
    26.9200       218
    26.9400       242
    26.9600       210
    26.9800       234
    27.0000       230
    27.0200       224
    27.0400       198
    27.0600       230
    27.0800       220
    27.1000       206
    27.1200       208
    27.1400       220
    27.1600       218
    27.1800       232
    27.2000       220
    27.2200       204
    27.2400       230
    27.2600       212
    27.2800       204
    27.3000       216
    27.3200       270
    27.3400       210
    27.3600       214
    27.3800       228
    27.4000       230
    27.4200       206
    27.4400       232
    27.4600       228
    27.4800       260
    27.5000       250
    27.5200       268
    27.5400       254
    27.5600       262
    27.5800       270
    27.6000       246
    27.6200       250
    27.6400       262
    27.6600       272
    27.6800       266
    27.7000       248
    27.7200       310
    27.7400       286
    27.7600       290
    27.7800       292
    27.8000       304
    27.8200       316
    27.8400       356
    27.8600       342
    27.8800       394
    27.9000       406
    27.9200       488
    27.9400       448
    27.9600       544
    27.9800       584
    28.0000       656
    28.0200       782
    28.0400       892
    28.0600       972
    28.0800      1178
    28.1000      1300
    28.1200      1458
    28.1400      1738
    28.1600      1996
    28.1800      2268
    28.2000      2650
    28.2200      3030
    28.2400      3368
    28.2600      3456
    28.2800      3614
    28.3000      3438
    28.3200      3218
    28.3400      2934
    28.3600      2580
    28.3800      2046
    28.4000      1820
    28.4200      1400
    28.4400      1186
    28.4600      1010
    28.4800       896
    28.5000       752
    28.5200       648
    28.5400       596
    28.5600       468
    28.5800       430
    28.6000       448
    28.6200       388
    28.6400       334
    28.6600       310
    28.6800       308
    28.7000       290
    28.7200       334
    28.7400       296
    28.7600       268
    28.7800       230
    28.8000       268
    28.8200       262
    28.8400       254
    28.8600       226
    28.8800       214
    28.9000       216
    28.9200       206
    28.9400       232
    28.9600       214
    28.9800       210
    29.0000       200
    29.0200       226
    29.0400       214
    29.0600       232
    29.0800       206
    29.1000       216
    29.1200       216
    29.1400       186
    29.1600       202
    29.1800       198
    29.2000       176
    29.2200       200
    29.2400       200
    29.2600       192
    29.2800       230
    29.3000       184
    29.3200       202
    29.3400       214
    29.3600       222
    29.3800       210
    29.4000       228
    29.4200       202
    29.4400       184
    29.4600       168
    29.4800       194
    29.5000       226
    29.5200       192
    29.5400       240
    29.5600       214
    29.5800       248
    29.6000       220
    29.6200       212
    29.6400       224
    29.6600       216
    29.6800       226
    29.7000       232
    29.7200       226
    29.7400       240
    29.7600       212
    29.7800       232
    29.8000       216
    29.8200       190
    29.8400       216
    29.8600       214
    29.8800       234
    29.9000       216
    29.9200       214
    29.9400       188
    29.9600       196
    29.9800       208
    30.0000       210
    30.0200       214
    30.0400       208
    30.0600       222
    30.0800       236
    30.1000       238
    30.1200       244
    30.1400       244
    30.1600       266
    30.1800       246
    30.2000       240
    30.2200       208
    30.2400       266
    30.2600       256
    30.2800       242
    30.3000       232
    30.3200       248
    30.3400       234
    30.3600       270
    30.3800       266
    30.4000       236
    30.4200       252
    30.4400       282
    30.4600       268
    30.4800       270
    30.5000       302
    30.5200       294
    30.5400       292
    30.5600       320
    30.5800       330
    30.6000       326
    30.6200       354
    30.6400       388
    30.6600       376
    30.6800       414
    30.7000       404
    30.7200       434
    30.7400       460
    30.7600       438
    30.7800       460
    30.8000       404
    30.8200       390
    30.8400       340
    30.8600       316
    30.8800       324
    30.9000       304
    30.9200       292
    30.9400       286
    30.9600       326
    30.9800       304
    31.0000       264
    31.0200       280
    31.0400       314
    31.0600       282
    31.0800       300
    31.1000       306
    31.1200       268
    31.1400       284
    31.1600       320
    31.1800       292
    31.2000       298
    31.2200       304
    31.2400       282
    31.2600       278
    31.2800       310
    31.3000       278
    31.3200       310
    31.3400       294
    31.3600       334
    31.3800       356
    31.4000       328
    31.4200       360
    31.4400       342
    31.4600       350
    31.4800       352
    31.5000       402
    31.5200       394
    31.5400       410
    31.5600       418
    31.5800       450
    31.6000       522
    31.6200       492
    31.6400       544
    31.6600       584
    31.6800       626
    31.7000       642
    31.7200       708
    31.7400       824
    31.7600       880
    31.7800       936
    31.8000      1090
    31.8200      1216
    31.8400      1332
    31.8600      1600
    31.8800      1824
    31.9000      2072
    31.9200      2332
    31.9400      2650
    31.9600      2990
    31.9800      3260
    32.0000      3382
    32.0200      3334
    32.0400      3220
    32.0600      3012
    32.0800      2866
    32.1000      2680
    32.1200      2312
    32.1400      2144
    32.1600      2062
    32.1800      1880
    32.2000      1870
    32.2200      1884
    32.2400      1964
    32.2600      2044
    32.2800      2234
    32.3000      2476
    32.3200      2700
    32.3400      2928
    32.3600      3276
    32.3800      3696
    32.4000      4412
    32.4200      5050
    32.4400      5654
    32.4600      6700
    32.4800      7690
    32.5000      8582
    32.5200      9388
    32.5400     10240
    32.5600     10740
    32.5800     10812
    32.6000     10326
    32.6200      9816
    32.6400      8768
    32.6600      7952
    32.6800      6750
    32.7000      5734
    32.7200      4998
    32.7400      3982
    32.7600      3414
    32.7800      2918
    32.8000      2580
    32.8200      2280
    32.8400      2046
    32.8600      1952
    32.8800      1736
    32.9000      1658
    32.9200      1688
    32.9400      1606
    32.9600      1668
    32.9800      1748
    33.0000      1796
    33.0200      1874
    33.0400      2040
    33.0600      2146
    33.0800      2212
    33.1000      2292
    33.1200      2308
    33.1400      2110
    33.1600      2014
    33.1800      1786
    33.2000      1630
    33.2200      1484
    33.2400      1222
    33.2600      1008
    33.2800       940
    33.3000       802
    33.3200       716
    33.3400       644
    33.3600       590
    33.3800       558
    33.4000       486
    33.4200       466
    33.4400       440
    33.4600       428
    33.4800       426
    33.5000       360
    33.5200       402
    33.5400       326
    33.5600       334
    33.5800       326
    33.6000       338
    33.6200       278
    33.6400       276
    33.6600       282
    33.6800       270
    33.7000       258
    33.7200       274
    33.7400       248
    33.7600       290
    33.7800       294
    33.8000       280
    33.8200       256
    33.8400       280
    33.8600       228
    33.8800       240
    33.9000       232
    33.9200       244
    33.9400       242
    33.9600       264
    33.9800       248
    34.0000       244
    34.0200       260
    34.0400       260
    34.0600       246
    34.0800       244
    34.1000       258
    34.1200       242
    34.1400       246
    34.1600       268
    34.1800       268
    34.2000       244
    34.2200       226
    34.2400       266
    34.2600       260
    34.2800       246
    34.3000       242
    34.3200       262
    34.3400       266
    34.3600       252
    34.3800       220
    34.4000       264
    34.4200       256
    34.4400       262
    34.4600       264
    34.4800       262
    34.5000       246
    34.5200       278
    34.5400       272
    34.5600       254
    34.5800       240
    34.6000       232
    34.6200       230
    34.6400       226
    34.6600       260
    34.6800       246
    34.7000       250
    34.7200       236
    34.7400       244
    34.7600       254
    34.7800       216
    34.8000       238
    34.8200       252
    34.8400       244
    34.8600       236
    34.8800       250
    34.9000       218
    34.9200       222
    34.9400       232
    34.9600       250
    34.9800       238
    35.0000       228
    35.0200       240
    35.0400       250
    35.0600       238
    35.0800       246
    35.1000       258
    35.1200       218
    35.1400       234
    35.1600       220
    35.1800       248
    35.2000       238
    35.2200       240
    35.2400       214
    35.2600       214
    35.2800       252
    35.3000       238
    35.3200       236
    35.3400       238
    35.3600       232
    35.3800       254
    35.4000       226
    35.4200       266
    35.4400       250
    35.4600       248
    35.4800       250
    35.5000       260
    35.5200       262
    35.5400       304
    35.5600       280
    35.5800       270
    35.6000       286
    35.6200       272
    35.6400       302
    35.6600       300
    35.6800       304
    35.7000       294
    35.7200       296
    35.7400       306
    35.7600       316
    35.7800       320
    35.8000       318
    35.8200       336
    35.8400       360
    35.8600       350
    35.8800       348
    35.9000       372
    35.9200       374
    35.9400       414
    35.9600       434
    35.9800       480
    36.0000       498
    36.0200       534
    36.0400       616
    36.0600       688
    36.0800       702
    36.1000       756
    36.1200       784
    36.1400       886
    36.1600       868
    36.1800       874
    36.2000       844
    36.2200       808
    36.2400       736
    36.2600       724
    36.2800       650
    36.3000       602
    36.3200       596
    36.3400       538
    36.3600       440
    36.3800       504
    36.4000       438
    36.4200       444
    36.4400       448
    36.4600       472
    36.4800       432
    36.5000       480
    36.5200       498
    36.5400       484
    36.5600       524
    36.5800       624
    36.6000       624
    36.6200       664
    36.6400       734
    36.6600       776
    36.6800       826
    36.7000       944
    36.7200       968
    36.7400      1114
    36.7600      1262
    36.7800      1444
    36.8000      1676
    36.8200      1806
    36.8400      2214
    36.8600      2330
    36.8800      2582
    36.9000      2576
    36.9200      2594
    36.9400      2478
    36.9600      2408
    36.9800      2142
    37.0000      1940
    37.0200      1812
    37.0400      1516
    37.0600      1402
    37.0800      1260
    37.1000      1130
    37.1200      1002
    37.1400       856
    37.1600       830
    37.1800       760
    37.2000       678
    37.2200       686
    37.2400       606
    37.2600       610
    37.2800       596
    37.3000       530
    37.3200       538
    37.3400       512
    37.3600       498
    37.3800       486
    37.4000       490
    37.4200       536
    37.4400       474
    37.4600       470
    37.4800       446
    37.5000       428
    37.5200       446
    37.5400       518
    37.5600       430
    37.5800       464
    37.6000       516
    37.6200       530
    37.6400       564
    37.6600       550
    37.6800       564
    37.7000       580
    37.7200       646
    37.7400       704
    37.7600       752
    37.7800       806
    37.8000       880
    37.8200       916
    37.8400      1050
    37.8600      1180
    37.8800      1348
    37.9000      1460
    37.9200      1610
    37.9400      1834
    37.9600      2184
    37.9800      2394
    38.0000      2500
    38.0200      2756
    38.0400      2852
    38.0600      2756
    38.0800      2556
    38.1000      2552
    38.1200      2360
    38.1400      2314
    38.1600      2170
    38.1800      1996
    38.2000      1952
    38.2200      1942
    38.2400      1854
    38.2600      1990
    38.2800      1984
    38.3000      2124
    38.3200      2296
    38.3400      2570
    38.3600      2726
    38.3800      3162
    38.4000      3538
    38.4200      3878
    38.4400      4444
    38.4600      4782
    38.4800      5112
    38.5000      5388
    38.5200      5354
    38.5400      5442
    38.5600      5102
    38.5800      5200
    38.6000      5180
    38.6200      4840
    38.6400      4726
    38.6600      4618
    38.6800      4736
    38.7000      4672
    38.7200      4630
    38.7400      4588
    38.7600      4518
    38.7800      4124
    38.8000      3900
    38.8200      3716
    38.8400      3398
    38.8600      3086
    38.8800      2700
    38.9000      2462
    38.9200      2132
    38.9400      1846
    38.9600      1624
    38.9800      1454
    39.0000      1330
    39.0200      1126
    39.0400      1116
    39.0600      1000
    39.0800      1000
    39.1000       920
    39.1200       814
    39.1400       834
    39.1600       736
    39.1800       748
    39.2000       730
    39.2200       756
    39.2400       722
    39.2600       732
    39.2800       714
    39.3000       720
    39.3200       736
    39.3400       746
    39.3600       728
    39.3800       792
    39.4000       754
    39.4200       930
    39.4400       902
    39.4600      1002
    39.4800      1076
    39.5000      1180
    39.5200      1238
    39.5400      1402
    39.5600      1592
    39.5800      1742
    39.6000      1948
    39.6200      2216
    39.6400      2466
    39.6600      2750
    39.6800      2948
    39.7000      3078
    39.7200      3110
    39.7400      3036
    39.7600      2844
    39.7800      2662
    39.8000      2338
    39.8200      2068
    39.8400      1898
    39.8600      1650
    39.8800      1448
    39.9000      1274
    39.9200      1052
    39.9400       972
    39.9600       860
    39.9800       818
    40.0000       750
    40.0200       772
    40.0400       690
    40.0600       632
    40.0800       628
    40.1000       596
    40.1200       606
    40.1400       626
    40.1600       524
    40.1800       536
    40.2000       570
    40.2200       594
    40.2400       578
    40.2600       638
    40.2800       660
    40.3000       630
    40.3200       646
    40.3400       720
    40.3600       738
    40.3800       698
    40.4000       842
    40.4200       898
    40.4400      1008
    40.4600       982
    40.4800      1116
    40.5000      1218
    40.5200      1422
    40.5400      1378
    40.5600      1572
    40.5800      1622
    40.6000      1748
    40.6200      1622
    40.6400      1732
    40.6600      1618
    40.6800      1618
    40.7000      1532
    40.7200      1368
    40.7400      1278
    40.7600      1120
    40.7800      1040
    40.8000       958
    40.8200       888
    40.8400       764
    40.8600       722
    40.8800       660
    40.9000       618
    40.9200       564
    40.9400       506
    40.9600       540
    40.9800       480
    41.0000       518
    41.0200       474
    41.0400       474
    41.0600       434
    41.0800       414
    41.1000       416
    41.1200       430
    41.1400       426
    41.1600       438
    41.1800       400
    41.2000       410
    41.2200       384
    41.2400       418
    41.2600       420
    41.2800       418
    41.3000       436
    41.3200       418
    41.3400       410
    41.3600       440
    41.3800       464
    41.4000       452
    41.4200       460
    41.4400       496
    41.4600       500
    41.4800       526
    41.5000       508
    41.5200       522
    41.5400       572
    41.5600       526
    41.5800       646
    41.6000       704
    41.6200       728
    41.6400       762
    41.6600       740
    41.6800       894
    41.7000       958
    41.7200       990
    41.7400      1112
    41.7600      1234
    41.7800      1350
    41.8000      1572
    41.8200      1764
    41.8400      1860
    41.8600      2020
    41.8800      2248
    41.9000      2270
    41.9200      2214
    41.9400      2324
    41.9600      2180
    41.9800      2148
    42.0000      2050
    42.0200      1838
    42.0400      1674
    42.0600      1548
    42.0800      1364
    42.1000      1216
    42.1200      1080
    42.1400       984
    42.1600       880
    42.1800       758
    42.2000       742
    42.2200       682
    42.2400       614
    42.2600       574
    42.2800       604
    42.3000       552
    42.3200       556
    42.3400       536
    42.3600       486
    42.3800       492
    42.4000       464
    42.4200       458
    42.4400       484
    42.4600       460
    42.4800       472
    42.5000       444
    42.5200       452
    42.5400       410
    42.5600       440
    42.5800       398
    42.6000       404
    42.6200       418
    42.6400       418
    42.6600       414
    42.6800       404
    42.7000       454
    42.7200       458
    42.7400       440
    42.7600       434
    42.7800       428
    42.8000       500
    42.8200       456
    42.8400       516
    42.8600       596
    42.8800       578
    42.9000       666
    42.9200       704
    42.9400       718
    42.9600       768
    42.9800       810
    43.0000       872
    43.0200      1028
    43.0400      1110
    43.0600      1230
    43.0800      1376
    43.1000      1560
    43.1200      1740
    43.1400      1920
    43.1600      2128
    43.1800      2206
    43.2000      2264
    43.2200      2352
    43.2400      2312
    43.2600      2130
    43.2800      2066
    43.3000      1832
    43.3200      1836
    43.3400      1630
    43.3600      1478
    43.3800      1330
    43.4000      1236
    43.4200      1046
    43.4400       962
    43.4600       830
    43.4800       868
    43.5000       734
    43.5200       674
    43.5400       688
    43.5600       634
    43.5800       624
    43.6000       674
    43.6200       616
    43.6400       638
    43.6600       682
    43.6800       670
    43.7000       752
    43.7200       696
    43.7400       756
    43.7600       754
    43.7800       832
    43.8000       842
    43.8200       852
    43.8400       896
    43.8600       910
    43.8800       896
    43.9000       872
    43.9200       832
    43.9400       830
    43.9600       738
    43.9800       642
    44.0000       640
    44.0200       592
    44.0400       574
    44.0600       526
    44.0800       494
    44.1000       456
    44.1200       490
    44.1400       444
    44.1600       428
    44.1800       398
    44.2000       422
    44.2200       402
    44.2400       382
    44.2600       382
    44.2800       394
    44.3000       342
    44.3200       392
    44.3400       360
    44.3600       374
    44.3800       360
    44.4000       340
    44.4200       364
    44.4400       330
    44.4600       318
    44.4800       348
    44.5000       352
    44.5200       342
    44.5400       322
    44.5600       376
    44.5800       354
    44.6000       350
    44.6200       340
    44.6400       332
    44.6600       332
    44.6800       332
    44.7000       342
    44.7200       374
    44.7400       352
    44.7600       312
    44.7800       324
    44.8000       364
    44.8200       354
    44.8400       320
    44.8600       332
    44.8800       358
    44.9000       376
    44.9200       350
    44.9400       350
    44.9600       380
    44.9800       380
    45.0000       370
    45.0200       400
    45.0400       356
    45.0600       394
    45.0800       410
    45.1000       386
    45.1200       404
    45.1400       388
    45.1600       340
    45.1800       396
    45.2000       422
    45.2200       368
    45.2400       414
    45.2600       420
    45.2800       432
    45.3000       430
    45.3200       424
    45.3400       398
    45.3600       398
    45.3800       426
    45.4000       414
    45.4200       438
    45.4400       446
    45.4600       418
    45.4800       400
    45.5000       432
    45.5200       442
    45.5400       424
    45.5600       426
    45.5800       450
    45.6000       418
    45.6200       452
    45.6400       490
    45.6600       428
    45.6800       466
    45.7000       470
    45.7200       490
    45.7400       518
    45.7600       420
    45.7800       498
    45.8000       484
    45.8200       500
    45.8400       536
    45.8600       520
    45.8800       556
    45.9000       504
    45.9200       542
    45.9400       620
    45.9600       578
    45.9800       584
    46.0000       614
    46.0200       602
    46.0400       642
    46.0600       638
    46.0800       674
    46.1000       706
    46.1200       748
    46.1400       780
    46.1600       784
    46.1800       894
    46.2000       942
    46.2200      1052
    46.2400      1046
    46.2600      1118
    46.2800      1178
    46.3000      1296
    46.3200      1444
    46.3400      1538
    46.3600      1698
    46.3800      1836
    46.4000      2044
    46.4200      2186
    46.4400      2384
    46.4600      2720
    46.4800      3064
    46.5000      3468
    46.5200      3740
    46.5400      4314
    46.5600      4920
    46.5800      5556
    46.6000      6158
    46.6200      7298
    46.6400      8278
    46.6600      9038
    46.6800      9914
    46.7000     10956
    46.7200     11036
    46.7400     11158
    46.7600     10988
    46.7800     10264
    46.8000      9968
    46.8200      9408
    46.8400      9096
    46.8600      8316
    46.8800      7966
    46.9000      7430
    46.9200      6800
    46.9400      6388
    46.9600      6002
    46.9800      5768
    47.0000      5432
    47.0200      5022
    47.0400      4778
    47.0600      4542
    47.0800      4162
    47.1000      3884
    47.1200      3578
    47.1400      3290
    47.1600      2936
    47.1800      2718
    47.2000      2460
    47.2200      2224
    47.2400      1916
    47.2600      1802
    47.2800      1610
    47.3000      1492
    47.3200      1416
    47.3400      1324
    47.3600      1206
    47.3800      1146
    47.4000      1042
    47.4200       972
    47.4400       968
    47.4600       858
    47.4800       806
    47.5000       830
    47.5200       788
    47.5400       750
    47.5600       788
    47.5800       722
    47.6000       716
    47.6200       752
    47.6400       726
    47.6600       750
    47.6800       752
    47.7000       814
    47.7200       832
    47.7400       814
    47.7600       886
    47.7800       908
    47.8000       946
    47.8200       976
    47.8400      1082
    47.8600      1080
    47.8800      1104
    47.9000      1006
    47.9200       944
    47.9400       984
    47.9600       968
    47.9800       962
    48.0000       944
    48.0200       926
    48.0400       858
    48.0600       860
    48.0800       854
    48.1000       856
    48.1200       888
    48.1400       896
    48.1600       952
    48.1800       970
    48.2000       954
    48.2200      1092
    48.2400      1036
    48.2600      1024
    48.2800       950
    48.3000       902
    48.3200       862
    48.3400       880
    48.3600       772
    48.3800       758
    48.4000       722
    48.4200       680
    48.4400       598
    48.4600       552
    48.4800       498
    48.5000       462
    48.5200       486
    48.5400       468
    48.5600       446
    48.5800       424
    48.6000       442
    48.6200       404
    48.6400       410
    48.6600       410
    48.6800       360
    48.7000       410
    48.7200       358
    48.7400       384
    48.7600       350
    48.7800       350
    48.8000       370
    48.8200       326
    48.8400       320
    48.8600       336
    48.8800       328
    48.9000       338
    48.9200       332
    48.9400       338
    48.9600       334
    48.9800       320
    49.0000       294
    49.0200       308
    49.0400       300
    49.0600       306
    49.0800       312
    49.1000       356
    49.1200       312
    49.1400       328
    49.1600       286
    49.1800       300
    49.2000       304
    49.2200       304
    49.2400       322
    49.2600       282
    49.2800       284
    49.3000       320
    49.3200       314
    49.3400       296
    49.3600       296
    49.3800       304
    49.4000       318
    49.4200       294
    49.4400       270
    49.4600       282
    49.4800       308
    49.5000       286
    49.5200       286
    49.5400       280
    49.5600       318
    49.5800       334
    49.6000       292
    49.6200       298
    49.6400       302
    49.6600       314
    49.6800       340
    49.7000       324
    49.7200       298
    49.7400       340
    49.7600       322
    49.7800       296
    49.8000       304
    49.8200       278
    49.8400       280
    49.8600       320
    49.8800       334
    49.9000       296
    49.9200       314
    49.9400       264
    49.9600       278
    49.9800       310
    50.0000       308
    50.0200       294
    50.0400       292
    50.0600       320
    50.0800       292
    50.1000       308
    50.1200       292
    50.1400       326
    50.1600       338
    50.1800       312
    50.2000       320
    50.2200       330
    50.2400       308
    50.2600       314
    50.2800       350
    50.3000       344
    50.3200       358
    50.3400       376
    50.3600       362
    50.3800       346
    50.4000       358
    50.4200       356
    50.4400       364
    50.4600       358
    50.4800       374
    50.5000       376
    50.5200       386
    50.5400       386
    50.5600       356
    50.5800       384
    50.6000       386
    50.6200       386
    50.6400       440
    50.6600       452
    50.6800       458
    50.7000       456
    50.7200       480
    50.7400       468
    50.7600       590
    50.7800       602
    50.8000       668
    50.8200       672
    50.8400       710
    50.8600       814
    50.8800       816
    50.9000       782
    50.9200       864
    50.9400       918
    50.9600       878
    50.9800       846
    51.0000       872
    51.0200       834
    51.0400       806
    51.0600       768
    51.0800       736
    51.1000       716
    51.1200       660
    51.1400       670
    51.1600       606
    51.1800       588
    51.2000       554
    51.2200       626
    51.2400       632
    51.2600       618
    51.2800       624
    51.3000       620
    51.3200       646
    51.3400       654
    51.3600       704
    51.3800       780
    51.4000       782
    51.4200       830
    51.4400       794
    51.4600       816
    51.4800       788
    51.5000       782
    51.5200       796
    51.5400       758
    51.5600       718
    51.5800       752
    51.6000       766
    51.6200       722
    51.6400       750
    51.6600       718
    51.6800       788
    51.7000       792
    51.7200       804
    51.7400       808
    51.7600       952
    51.7800       982
    51.8000      1064
    51.8200      1104
    51.8400      1160
    51.8600      1196
    51.8800      1218
    51.9000      1192
    51.9200      1214
    51.9400      1212
    51.9600      1216
    51.9800      1198
    52.0000      1166
    52.0200      1078
    52.0400      1076
    52.0600      1076
    52.0800      1014
    52.1000       978
    52.1200       952
    52.1400       860
    52.1600       824
    52.1800       834
    52.2000       820
    52.2200       808
    52.2400       826
    52.2600       734
    52.2800       728
    52.3000       762
    52.3200       730
    52.3400       864
    52.3600       870
    52.3800       864
    52.4000       912
    52.4200       974
    52.4400      1108
    52.4600      1142
    52.4800      1190
    52.5000      1218
    52.5200      1422
    52.5400      1508
    52.5600      1620
    52.5800      1652
    52.6000      1664
    52.6200      1738
    52.6400      1760
    52.6600      1718
    52.6800      1818
    52.7000      1754
    52.7200      1660
    52.7400      1540
    52.7600      1498
    52.7800      1414
    52.8000      1288
    52.8200      1292
    52.8400      1224
    52.8600      1156
    52.8800      1108
    52.9000      1046
    52.9200       998
    52.9400       986
    52.9600       994
    52.9800      1028
    53.0000      1002
    53.0200      1020
    53.0400      1000
    53.0600      1126
    53.0800      1170
    53.1000      1246
    53.1200      1322
    53.1400      1430
    53.1600      1518
    53.1800      1616
    53.2000      1886
    53.2200      1948
    53.2400      1982
    53.2600      2060
    53.2800      2266
    53.3000      2222
    53.3200      2066
    53.3400      2066
    53.3600      1860
    53.3800      1846
    53.4000      1664
    53.4200      1626
    53.4400      1534
    53.4600      1412
    53.4800      1254
    53.5000      1142
    53.5200      1012
    53.5400       896
    53.5600       784
    53.5800       790
    53.6000       654
    53.6200       650
    53.6400       600
    53.6600       578
    53.6800       490
    53.7000       502
    53.7200       480
    53.7400       494
    53.7600       460
    53.7800       416
    53.8000       422
    53.8200       394
    53.8400       402
    53.8600       362
    53.8800       340
    53.9000       364
    53.9200       336
    53.9400       362
    53.9600       328
    53.9800       360
    54.0000       336
    54.0200       354
    54.0400       342
    54.0600       332
    54.0800       342
    54.1000       300
    54.1200       320
    54.1400       316
    54.1600       332
    54.1800       310
    54.2000       348
    54.2200       386
    54.2400       340
    54.2600       344
    54.2800       380
    54.3000       338
    54.3200       368
    54.3400       390
    54.3600       404
    54.3800       416
    54.4000       390
    54.4200       414
    54.4400       460
    54.4600       476
    54.4800       502
    54.5000       520
    54.5200       574
    54.5400       590
    54.5600       618
    54.5800       638
    54.6000       684
    54.6200       720
    54.6400       736
    54.6600       802
    54.6800       778
    54.7000       876
    54.7200       876
    54.7400       954
    54.7600       936
    54.7800       946
    54.8000       934
    54.8200       936
    54.8400       874
    54.8600       900
    54.8800       806
    54.9000       742
    54.9200       664
    54.9400       672
    54.9600       642
    54.9800       612
    55.0000       598
    55.0200       562
    55.0400       522
    55.0600       468
    55.0800       474
    55.1000       476
    55.1200       412
    55.1400       486
    55.1600       414
    55.1800       376
    55.2000       412
    55.2200       394
    55.2400       418
    55.2600       388
    55.2800       390
    55.3000       416
    55.3200       410
    55.3400       396
    55.3600       386
    55.3800       398
    55.4000       392
    55.4200       396
    55.4400       478
    55.4600       414
    55.4800       432
    55.5000       462
    55.5200       498
    55.5400       538
    55.5600       570
    55.5800       566
    55.6000       632
    55.6200       712
    55.6400       752
    55.6600       836
    55.6800       888
    55.7000       914
    55.7200       998
    55.7400      1088
    55.7600       986
    55.7800      1010
    55.8000      1050
    55.8200       904
    55.8400       952
    55.8600       936
    55.8800       878
    55.9000       876
    55.9200       822
    55.9400       784
    55.9600       682
    55.9800       664
    56.0000       634
    56.0200       588
    56.0400       566
    56.0600       486
    56.0800       448
    56.1000       438
    56.1200       434
    56.1400       384
    56.1600       404
    56.1800       372
    56.2000       332
    56.2200       384
    56.2400       362
    56.2600       322
    56.2800       354
    56.3000       338
    56.3200       308
    56.3400       276
    56.3600       360
    56.3800       350
    56.4000       310
    56.4200       350
    56.4400       336
    56.4600       328
    56.4800       368
    56.5000       300
    56.5200       330
    56.5400       342
    56.5600       360
    56.5800       292
    56.6000       346
    56.6200       354
    56.6400       358
    56.6600       356
    56.6800       348
    56.7000       370
    56.7200       378
    56.7400       402
    56.7600       398
    56.7800       384
    56.8000       414
    56.8200       436
    56.8400       410
    56.8600       410
    56.8800       454
    56.9000       476
    56.9200       496
    56.9400       472
    56.9600       512
    56.9800       516
    57.0000       588
    57.0200       602
    57.0400       650
    57.0600       632
    57.0800       678
    57.1000       738
    57.1200       778
    57.1400       864
    57.1600       872
    57.1800       932
    57.2000      1092
    57.2200      1142
    57.2400      1236
    57.2600      1438
    57.2800      1444
    57.3000      1620
    57.3200      1806
    57.3400      2014
    57.3600      2098
    57.3800      2048
    57.4000      2142
    57.4200      2124
    57.4400      2090
    57.4600      2010
    57.4800      2010
    57.5000      1910
    57.5200      1958
    57.5400      1954
    57.5600      1906
    57.5800      1888
    57.6000      1800
    57.6200      1950
    57.6400      1914
    57.6600      1992
    57.6800      2058
    57.7000      2186
    57.7200      2104
    57.7400      2126
    57.7600      2210
    57.7800      2156
    57.8000      2164
    57.8200      2012
    57.8400      2006
    57.8600      1864
    57.8800      1778
    57.9000      1772
    57.9200      1714
    57.9400      1598
    57.9600      1544
    57.9800      1448
    58.0000      1248
    58.0200      1244
    58.0400      1136
    58.0600      1080
    58.0800      1112
    58.1000      1060
    58.1200      1080
    58.1400      1086
    58.1600      1062
    58.1800      1056
    58.2000      1120
    58.2200      1102
    58.2400      1152
    58.2600      1204
    58.2800      1248
    58.3000      1324
    58.3200      1468
    58.3400      1464
    58.3600      1584
    58.3800      1648
    58.4000      1888
    58.4200      1944
    58.4400      2062
    58.4600      2250
    58.4800      2362
    58.5000      2568
    58.5200      2660
    58.5400      2864
    58.5600      3018
    58.5800      2958
    58.6000      3196
    58.6200      3450
    58.6400      3516
    58.6600      3560
    58.6800      3772
    58.7000      3888
    58.7200      4006
    58.7400      4046
    58.7600      4158
    58.7800      4030
    58.8000      3918
    58.8200      3762
    58.8400      3732
    58.8600      3480
    58.8800      3442
    58.9000      3240
    58.9200      3006
    58.9400      2840
    58.9600      2712
    58.9800      2358
    59.0000      2262
    59.0200      2124
    59.0400      1948
    59.0600      1738
    59.0800      1554
    59.1000      1366
    59.1200      1348
    59.1400      1190
    59.1600      1120
    59.1800       996
    59.2000       962
    59.2200       912
    59.2400       804
    59.2600       796
    59.2800       744
    59.3000       682
    59.3200       706
    59.3400       654
    59.3600       644
    59.3800       656
    59.4000       578
    59.4200       586
    59.4400       604
    59.4600       572
    59.4800       554
    59.5000       532
    59.5200       526
    59.5400       492
    59.5600       484
    59.5800       460
    59.6000       432
    59.6200       490
    59.6400       434
    59.6600       444
    59.6800       428
    59.7000       422
    59.7200       428
    59.7400       356
    59.7600       406
    59.7800       362
    59.8000       358
    59.8200       372
    59.8400       324
    59.8600       312
    59.8800       342
    59.9000       320
    59.9200       332
    59.9400       334
    59.9600       340
    59.9800       324
    60.0000       326
    60.0200       344
    60.0400       312
    60.0600       308
    60.0800       330
    60.1000       330
    60.1200       304
    60.1400       284
    60.1600       288
    60.1800       312
    60.2000       326
    60.2200       306
    60.2400       300
    60.2600       282
    60.2800       300
    60.3000       300
    60.3200       270
    60.3400       276
    60.3600       292
    60.3800       356
    60.4000       280
    60.4200       296
    60.4400       328
    60.4600       318
    60.4800       332
    60.5000       314
    60.5200       330
    60.5400       310
    60.5600       302
    60.5800       316
    60.6000       324
    60.6200       318
    60.6400       328
    60.6600       324
    60.6800       308
    60.7000       326
    60.7200       332
    60.7400       332
    60.7600       316
    60.7800       324
    60.8000       324
    60.8200       352
    60.8400       368
    60.8600       384
    60.8800       374
    60.9000       392
    60.9200       410
    60.9400       392
    60.9600       428
    60.9800       438
    61.0000       440
    61.0200       510
    61.0400       470
    61.0600       518
    61.0800       570
    61.1000       522
    61.1200       556
    61.1400       644
    61.1600       554
    61.1800       556
    61.2000       606
    61.2200       558
    61.2400       568
    61.2600       546
    61.2800       554
    61.3000       574
    61.3200       588
    61.3400       566
    61.3600       576
    61.3800       546
    61.4000       532
    61.4200       534
    61.4400       588
    61.4600       622
    61.4800       606
    61.5000       588
    61.5200       662
    61.5400       634
    61.5600       630
    61.5800       606
    61.6000       600
    61.6200       610
    61.6400       624
    61.6600       590
    61.6800       618
    61.7000       626
    61.7200       600
    61.7400       622
    61.7600       546
    61.7800       536
    61.8000       622
    61.8200       572
    61.8400       530
    61.8600       564
    61.8800       584
    61.9000       572
    61.9200       586
    61.9400       618
    61.9600       648
    61.9800       604
    62.0000       574
    62.0200       644
    62.0400       656
    62.0600       640
    62.0800       692
    62.1000       666
    62.1200       670
    62.1400       634
    62.1600       750
    62.1800       648
    62.2000       624
    62.2200       602
    62.2400       618
    62.2600       618
    62.2800       592
    62.3000       554
    62.3200       574
    62.3400       550
    62.3600       636
    62.3800       552
    62.4000       560
    62.4200       528
    62.4400       534
    62.4600       470
    62.4800       432
    62.5000       406
    62.5200       416
    62.5400       402
    62.5600       406
    62.5800       408
    62.6000       404
    62.6200       344
    62.6400       368
    62.6600       322
    62.6800       328
    62.7000       304
    62.7200       330
    62.7400       302
    62.7600       296
    62.7800       272
    62.8000       294
    62.8200       280
    62.8400       280
    62.8600       270
    62.8800       254
    62.9000       262
    62.9200       260
    62.9400       252
    62.9600       248
    62.9800       272
    63.0000       254
    63.0200       232
    63.0400       240
    63.0600       232
    63.0800       242
    63.1000       246
    63.1200       210
    63.1400       218
    63.1600       206
    63.1800       202
    63.2000       218
    63.2200       248
    63.2400       256
    63.2600       200
    63.2800       234
    63.3000       276
    63.3200       224
    63.3400       234
    63.3600       218
    63.3800       270
    63.4000       248
    63.4200       240
    63.4400       252
    63.4600       266
    63.4800       272
    63.5000       250
    63.5200       286
    63.5400       238
    63.5600       258
    63.5800       264
    63.6000       314
    63.6200       284
    63.6400       304
    63.6600       364
    63.6800       328
    63.7000       320
    63.7200       370
    63.7400       386
    63.7600       400
    63.7800       422
    63.8000       438
    63.8200       494
    63.8400       496
    63.8600       492
    63.8800       512
    63.9000       512
    63.9200       478
    63.9400       502
    63.9600       490
    63.9800       462
    64.0000       414
    64.0200       442
    64.0400       456
    64.0600       424
    64.0800       432
    64.1000       370
    64.1200       354
    64.1400       344
    64.1600       308
    64.1800       300
    64.2000       318
    64.2200       278
    64.2400       292
    64.2600       264
    64.2800       250
    64.3000       264
    64.3200       236
    64.3400       242
    64.3600       226
    64.3800       234
    64.4000       242
    64.4200       264
    64.4400       264
    64.4600       226
    64.4800       254
    64.5000       244
    64.5200       246
    64.5400       236
    64.5600       238
    64.5800       232
    64.6000       220
    64.6200       228
    64.6400       214
    64.6600       236
    64.6800       256
    64.7000       240
    64.7200       230
    64.7400       242
    64.7600       200
    64.7800       288
    64.8000       266
    64.8200       264
    64.8400       222
    64.8600       276
    64.8800       246
    64.9000       254
    64.9200       280
    64.9400       250
    64.9600       296
    64.9800       278
    65.0000       256
    65.0200       292
    65.0400       310
    65.0600       312
    65.0800       340
    65.1000       342
    65.1200       346
    65.1400       360
    65.1600       416
    65.1800       382
    65.2000       422
    65.2200       432
    65.2400       440
    65.2600       456
    65.2800       478
    65.3000       470
    65.3200       500
    65.3400       478
    65.3600       486
    65.3800       452
    65.4000       474
    65.4200       486
    65.4400       456
    65.4600       452
    65.4800       398
    65.5000       404
    65.5200       376
    65.5400       412
    65.5600       362
    65.5800       352
    65.6000       300
    65.6200       340
    65.6400       284
    65.6600       296
    65.6800       300
    65.7000       262
    65.7200       262
    65.7400       270
    65.7600       240
    65.7800       246
    65.8000       232
    65.8200       232
    65.8400       242
    65.8600       236
    65.8800       242
    65.9000       224
    65.9200       236
    65.9400       264
    65.9600       224
    65.9800       232
    66.0000       260
    66.0200       212
    66.0400       230
    66.0600       234
    66.0800       224
    66.1000       254
    66.1200       226
    66.1400       240
    66.1600       262
    66.1800       256
    66.2000       248
    66.2200       228
    66.2400       250
    66.2600       236
    66.2800       258
    66.3000       266
    66.3200       252
    66.3400       262
    66.3600       254
    66.3800       270
    66.4000       270
    66.4200       246
    66.4400       280
    66.4600       286
    66.4800       308
    66.5000       324
    66.5200       298
    66.5400       308
    66.5600       324
    66.5800       340
    66.6000       364
    66.6200       342
    66.6400       372
    66.6600       424
    66.6800       422
    66.7000       434
    66.7200       492
    66.7400       440
    66.7600       492
    66.7800       554
    66.8000       508
    66.8200       564
    66.8400       612
    66.8600       638
    66.8800       630
    66.9000       632
    66.9200       630
    66.9400       662
    66.9600       592
    66.9800       584
    67.0000       588
    67.0200       566
    67.0400       542
    67.0600       570
    67.0800       548
    67.1000       530
    67.1200       500
    67.1400       482
    67.1600       490
    67.1800       460
    67.2000       416
    67.2200       438
    67.2400       384
    67.2600       356
    67.2800       384
    67.3000       372
    67.3200       336
    67.3400       328
    67.3600       332
    67.3800       334
    67.4000       326
    67.4200       334
    67.4400       300
    67.4600       326
    67.4800       320
    67.5000       370
    67.5200       342
    67.5400       364
    67.5600       370
    67.5800       374
    67.6000       362
    67.6200       350
    67.6400       372
    67.6600       378
    67.6800       384
    67.7000       386
    67.7200       424
    67.7400       464
    67.7600       422
    67.7800       446
    67.8000       486
    67.8200       502
    67.8400       518
    67.8600       538
    67.8800       570
    67.9000       584
    67.9200       656
    67.9400       662
    67.9600       790
    67.9800       792
    68.0000       888
    68.0200       928
    68.0400      1048
    68.0600      1052
    68.0800      1122
    68.1000      1190
    68.1200      1360
    68.1400      1392
    68.1600      1422
    68.1800      1440
    68.2000      1474
    68.2200      1452
    68.2400      1534
    68.2600      1504
    68.2800      1510
    68.3000      1440
    68.3200      1472
    68.3400      1360
    68.3600      1334
    68.3800      1196
    68.4000      1184
    68.4200      1078
    68.4400      1058
    68.4600      1040
    68.4800       938
    68.5000       974
    68.5200       954
    68.5400       898
    68.5600       840
    68.5800       846
    68.6000       792
    68.6200       828
    68.6400       812
    68.6600       782
    68.6800       734
    68.7000       698
    68.7200       680
    68.7400       656
    68.7600       624
    68.7800       598
    68.8000       538
    68.8200       612
    68.8400       542
    68.8600       516
    68.8800       498
    68.9000       558
    68.9200       452
    68.9400       502
    68.9600       462
    68.9800       422
    69.0000       438
    69.0200       390
    69.0400       382
    69.0600       464
    69.0800       422
    69.1000       420
    69.1200       426
    69.1400       446
    69.1600       474
    69.1800       422
    69.2000       426
    69.2200       430
    69.2400       476
    69.2600       486
    69.2800       528
    69.3000       534
    69.3200       508
    69.3400       538
    69.3600       530
    69.3800       600
    69.4000       608
    69.4200       624
    69.4400       612
    69.4600       612
    69.4800       630
    69.5000       592
    69.5200       588
    69.5400       544
    69.5600       562
    69.5800       512
    69.6000       508
    69.6200       506
    69.6400       482
    69.6600       454
    69.6800       446
    69.7000       462
    69.7200       414
    69.7400       376
    69.7600       370
    69.7800       356
    69.8000       336
    69.8200       322
    69.8400       308
    69.8600       296
    69.8800       290
    69.9000       272
    69.9200       280
    69.9400       284
    69.9600       290
    69.9800       234
    70.0000       268
    70.0200       220
    70.0400       254
    70.0600       252
    70.0800       262
    70.1000       240
    70.1200       264
    70.1400       194
    70.1600       224
    70.1800       222
    70.2000       228
    70.2200       248
    70.2400       230
    70.2600       204
    70.2800       220
    70.3000       224
    70.3200       226
    70.3400       240
    70.3600       228
    70.3800       244
    70.4000       274
    70.4200       222
    70.4400       240
    70.4600       226
    70.4800       262
    70.5000       228
    70.5200       248
    70.5400       246
    70.5600       284
    70.5800       254
    70.6000       268
    70.6200       248
    70.6400       282
    70.6600       306
    70.6800       232
    70.7000       246
    70.7200       298
    70.7400       246
    70.7600       266
    70.7800       258
    70.8000       272
    70.8200       280
    70.8400       256
    70.8600       260
    70.8800       288
    70.9000       250
    70.9200       276
    70.9400       256
    70.9600       260
    70.9800       268
    71.0000       276
    71.0200       254
    71.0400       278
    71.0600       278
    71.0800       292
    71.1000       306
    71.1200       304
    71.1400       334
    71.1600       288
    71.1800       314
    71.2000       342
    71.2200       374
    71.2400       354
    71.2600       408
    71.2800       392
    71.3000       400
    71.3200       460
    71.3400       502
    71.3600       542
    71.3800       550
    71.4000       576
    71.4200       622
    71.4400       658
    71.4600       680
    71.4800       710
    71.5000       786
    71.5200       772
    71.5400       704
    71.5600       748
    71.5800       730
    71.6000       754
    71.6200       778
    71.6400       748
    71.6600       738
    71.6800       738
    71.7000       736
    71.7200       738
    71.7400       716
    71.7600       688
    71.7800       706
    71.8000       702
    71.8200       670
    71.8400       612
    71.8600       624
    71.8800       610
    71.9000       590
    71.9200       570
    71.9400       592
    71.9600       612
    71.9800       612
    72.0000       596
    72.0200       574
    72.0400       594
    72.0600       546
    72.0800       508
    72.1000       526
    72.1200       572
    72.1400       522
    72.1600       524
    72.1800       522
    72.2000       564
    72.2200       554
    72.2400       534
    72.2600       598
    72.2800       594
    72.3000       576
    72.3200       606
    72.3400       552
    72.3600       566
    72.3800       534
    72.4000       544
    72.4200       486
    72.4400       496
    72.4600       510
    72.4800       492
    72.5000       452
    72.5200       500
    72.5400       436
    72.5600       430
    72.5800       432
    72.6000       420
    72.6200       434
    72.6400       378
    72.6600       398
    72.6800       370
    72.7000       354
    72.7200       348
    72.7400       348
    72.7600       322
    72.7800       332
    72.8000       324
    72.8200       326
    72.8400       328
    72.8600       356
    72.8800       344
    72.9000       328
    72.9200       338
    72.9400       324
    72.9600       328
    72.9800       274
    73.0000       326
    73.0200       306
    73.0400       302
    73.0600       270
    73.0800       306
    73.1000       314
    73.1200       308
    73.1400       282
    73.1600       274
    73.1800       272
    73.2000       284
    73.2200       296
    73.2400       286
    73.2600       236
    73.2800       246
    73.3000       260
    73.3200       242
    73.3400       226
    73.3600       214
    73.3800       236
    73.4000       202
    73.4200       240
    73.4400       206
    73.4600       220
    73.4800       218
    73.5000       238
    73.5200       248
    73.5400       252
    73.5600       224
    73.5800       214
    73.6000       214
    73.6200       238
    73.6400       198
    73.6600       236
    73.6800       216
    73.7000       236
    73.7200       218
    73.7400       234
    73.7600       236
    73.7800       252
    73.8000       224
    73.8200       242
    73.8400       248
    73.8600       232
    73.8800       238
    73.9000       234
    73.9200       232
    73.9400       250
    73.9600       274
    73.9800       266
    74.0000       246
    74.0200       268
    74.0400       240
    74.0600       282
    74.0800       274
    74.1000       274
    74.1200       296
    74.1400       318
    74.1600       314
    74.1800       286
    74.2000       294
    74.2200       286
    74.2400       274
    74.2600       288
    74.2800       320
    74.3000       278
    74.3200       272
    74.3400       262
    74.3600       288
    74.3800       266
    74.4000       262
    74.4200       236
    74.4400       214
    74.4600       272
    74.4800       230
    74.5000       212
    74.5200       218
    74.5400       216
    74.5600       218
    74.5800       228
    74.6000       204
    74.6200       212
    74.6400       204
    74.6600       188
    74.6800       206
    74.7000       204
    74.7200       204
    74.7400       218
    74.7600       188
    74.7800       222
    74.8000       190
    74.8200       196
    74.8400       182
    74.8600       202
    74.8800       184
    74.9000       172
    74.9200       136
    74.9400       204
    74.9600       180
    74.9800       178
    75.0000       190
    75.0200       196
    75.0400       188
    75.0600       188
    75.0800       210
    75.1000       206
    75.1200       172
    75.1400       210
    75.1600       194
    75.1800       214
    75.2000       190
    75.2200       212
    75.2400       208
    75.2600       218
    75.2800       184
    75.3000       188
    75.3200       234
    75.3400       216
    75.3600       198
    75.3800       240
    75.4000       228
    75.4200       218
    75.4400       206
    75.4600       216
    75.4800       210
    75.5000       252
    75.5200       266
    75.5400       276
    75.5600       240
    75.5800       238
    75.6000       280
    75.6200       254
    75.6400       272
    75.6600       298
    75.6800       316
    75.7000       310
    75.7200       334
    75.7400       320
    75.7600       340
    75.7800       394
    75.8000       358
    75.8200       358
    75.8400       384
    75.8600       382
    75.8800       394
    75.9000       382
    75.9200       384
    75.9400       344
    75.9600       346
    75.9800       364
    76.0000       354
    76.0200       324
    76.0400       362
    76.0600       372
    76.0800       358
    76.1000       348
    76.1200       342
    76.1400       340
    76.1600       302
    76.1800       334
    76.2000       316
    76.2200       334
    76.2400       336
    76.2600       346
    76.2800       370
    76.3000       334
    76.3200       360
    76.3400       318
    76.3600       354
    76.3800       366
    76.4000       336
    76.4200       336
    76.4400       392
    76.4600       368
    76.4800       356
    76.5000       346
    76.5200       382
    76.5400       404
    76.5600       344
    76.5800       380
    76.6000       358
    76.6200       376
    76.6400       406
    76.6600       382
    76.6800       434
    76.7000       422
    76.7200       450
    76.7400       430
    76.7600       396
    76.7800       386
    76.8000       376
    76.8200       384
    76.8400       374
    76.8600       392
    76.8800       402
    76.9000       398
    76.9200       376
    76.9400       370
    76.9600       386
    76.9800       332
    77.0000       358
    77.0200       328
    77.0400       380
    77.0600       342
    77.0800       342
    77.1000       348
    77.1200       334
    77.1400       376
    77.1600       392
    77.1800       350
    77.2000       374
    77.2200       368
    77.2400       394
    77.2600       404
    77.2800       392
    77.3000       446
    77.3200       434
    77.3400       462
    77.3600       468
    77.3800       530
    77.4000       532
    77.4200       588
    77.4400       580
    77.4600       604
    77.4800       632
    77.5000       732
    77.5200       742
    77.5400       810
    77.5600       898
    77.5800       832
    77.6000       956
    77.6200       956
    77.6400       950
    77.6600       948
    77.6800       976
    77.7000       956
    77.7200       956
    77.7400       932
    77.7600       956
    77.7800       894
    77.8000       858
    77.8200       850
    77.8400       856
    77.8600       888
    77.8800       784
    77.9000       722
    77.9200       758
    77.9400       652
    77.9600       682
    77.9800       624
    78.0000       584
    78.0200       588
    78.0400       596
    78.0600       494
    78.0800       512
    78.1000       494
    78.1200       510
    78.1400       494
    78.1600       422
    78.1800       464
    78.2000       424
    78.2200       428
    78.2400       398
    78.2600       372
    78.2800       410
    78.3000       400
    78.3200       390
    78.3400       354
    78.3600       404
    78.3800       400
    78.4000       390
    78.4200       400
    78.4400       414
    78.4600       428
    78.4800       404
    78.5000       438
    78.5200       456
    78.5400       404
    78.5600       478
    78.5800       464
    78.6000       468
    78.6200       506
    78.6400       466
    78.6600       466
    78.6800       480
    78.7000       472
    78.7200       448
    78.7400       444
    78.7600       466
    78.7800       458
    78.8000       432
    78.8200       358
    78.8400       418
    78.8600       408
    78.8800       390
    78.9000       392
    78.9200       404
    78.9400       376
    78.9600       332
    78.9800       324
    79.0000       342
    79.0200       334
    79.0400       276
    79.0600       328
    79.0800       302
    79.1000       302
    79.1200       294
    79.1400       278
    79.1600       270
    79.1800       296
    79.2000       264
    79.2200       266
    79.2400       274
    79.2600       242
    79.2800       244
    79.3000       252
    79.3200       224
    79.3400       264
    79.3600       248
    79.3800       240
    79.4000       272
    79.4200       234
    79.4400       236
    79.4600       254
    79.4800       236
    79.5000       264
    79.5200       244
    79.5400       246
    79.5600       244
    79.5800       266
    79.6000       266
    79.6200       264
    79.6400       276
    79.6600       262
    79.6800       278
    79.7000       266
    79.7200       240
    79.7400       298
    79.7600       282
    79.7800       246
    79.8000       246
    79.8200       288
    79.8400       292
    79.8600       272
    79.8800       256
    79.9000       268
    79.9200       290
    79.9400       236
    79.9600       246
    79.9800       262
    80.0000       260
    80.0200       234
    80.0400       246
    80.0600       242
    80.0800       234
    80.1000       254
    80.1200       260
    80.1400       230
    80.1600       230
    80.1800       228
    80.2000       238
    80.2200       210
    80.2400       252
    80.2600       252
    80.2800       238
    80.3000       252
    80.3200       240
    80.3400       234
    80.3600       216
    80.3800       244
    80.4000       218
    80.4200       246
    80.4400       230
    80.4600       236
    80.4800       242
    80.5000       204
    80.5200       218
    80.5400       214
    80.5600       224
    80.5800       228
    80.6000       198
    80.6200       214
    80.6400       228
    80.6600       206
    80.6800       204
    80.7000       190
    80.7200       204
    80.7400       222
    80.7600       194
    80.7800       214
    80.8000       208
    80.8200       216
    80.8400       180
    80.8600       190
    80.8800       206
    80.9000       196
    80.9200       194
    80.9400       210
    80.9600       204
    80.9800       208
    81.0000       194
    81.0200       234
    81.0400       226
    81.0600       212
    81.0800       228
    81.1000       244
    81.1200       254
    81.1400       224
    81.1600       254
    81.1800       234
    81.2000       198
    81.2200       258
    81.2400       246
    81.2600       264
    81.2800       256
    81.3000       274
    81.3200       288
    81.3400       276
    81.3600       294
    81.3800       258
    81.4000       268
    81.4200       292
    81.4400       262
    81.4600       266
    81.4800       278
    81.5000       236
    81.5200       272
    81.5400       268
    81.5600       264
    81.5800       268
    81.6000       250
    81.6200       292
    81.6400       294
    81.6600       256
    81.6800       276
    81.7000       278
    81.7200       254
    81.7400       270
    81.7600       266
    81.7800       260
    81.8000       230
    81.8200       272
    81.8400       266
    81.8600       242
    81.8800       274
    81.9000       300
    81.9200       278
    81.9400       254
    81.9600       280
    81.9800       254
    82.0000       304
    82.0200       270
    82.0400       252
    82.0600       252
    82.0800       302
    82.1000       304
    82.1200       324
    82.1400       302
    82.1600       304
    82.1800       304
    82.2000       290
    82.2200       334
    82.2400       336
    82.2600       338
    82.2800       320
    82.3000       334
    82.3200       322
    82.3400       372
    82.3600       322
    82.3800       322
    82.4000       356
    82.4200       372
    82.4400       362
    82.4600       370
    82.4800       344
    82.5000       410
    82.5200       364
    82.5400       370
    82.5600       368
    82.5800       372
    82.6000       408
    82.6200       360
    82.6400       428
    82.6600       380
    82.6800       394
    82.7000       382
    82.7200       436
    82.7400       398
    82.7600       464
    82.7800       424
    82.8000       456
    82.8200       436
    82.8400       430
    82.8600       456
    82.8800       434
    82.9000       446
    82.9200       458
    82.9400       426
    82.9600       436
    82.9800       434
    83.0000       440
    83.0200       450
    83.0400       402
    83.0600       414
    83.0800       480
    83.1000       444
    83.1200       440
    83.1400       430
    83.1600       478
    83.1800       458
    83.2000       432
    83.2200       424
    83.2400       446
    83.2600       430
    83.2800       438
    83.3000       416
    83.3200       420
    83.3400       418
    83.3600       418
    83.3800       424
    83.4000       378
    83.4200       384
    83.4400       402
    83.4600       394
    83.4800       394
    83.5000       390
    83.5200       392
    83.5400       376
    83.5600       338
    83.5800       356
    83.6000       328
    83.6200       316
    83.6400       350
    83.6600       332
    83.6800       314
    83.7000       314
    83.7200       294
    83.7400       336
    83.7600       316
    83.7800       292
    83.8000       318
    83.8200       292
    83.8400       340
    83.8600       298
    83.8800       326
    83.9000       296
    83.9200       296
    83.9400       296
    83.9600       296
    83.9800       308
    84.0000       300
    84.0200       278
    84.0400       264
    84.0600       302
    84.0800       316
    84.1000       286
    84.1200       264
    84.1400       306
    84.1600       282
    84.1800       294
    84.2000       268
    84.2200       296
    84.2400       280
    84.2600       284
    84.2800       282
    84.3000       264
    84.3200       250
    84.3400       276
    84.3600       214
    84.3800       272
    84.4000       226
    84.4200       218
    84.4400       250
    84.4600       224
    84.4800       244
    84.5000       232
    84.5200       242
    84.5400       232
    84.5600       204
    84.5800       214
    84.6000       206
    84.6200       226
    84.6400       226
    84.6600       210
    84.6800       228
    84.7000       204
    84.7200       216
    84.7400       176
    84.7600       224
    84.7800       210
    84.8000       228
    84.8200       198
    84.8400       210
    84.8600       206
    84.8800       218
    84.9000       226
    84.9200       184
    84.9400       218
    84.9600       226
    84.9800       220
    85.0000       210
    85.0200       196
    85.0400       214
    85.0600       232
    85.0800       202
    85.1000       226
    85.1200       194
    85.1400       236
    85.1600       208
    85.1800       216
    85.2000       206
    85.2200       220
    85.2400       220
    85.2600       220
    85.2800       216
    85.3000       248
    85.3200       216
    85.3400       230
    85.3600       222
    85.3800       224
    85.4000       250
    85.4200       234
    85.4400       254
    85.4600       270
    85.4800       282
    85.5000       290
    85.5200       266
    85.5400       280
    85.5600       260
    85.5800       266
    85.6000       302
    85.6200       268
    85.6400       278
    85.6600       264
    85.6800       286
    85.7000       244
    85.7200       286
    85.7400       252
    85.7600       254
    85.7800       260
    85.8000       230
    85.8200       276
    85.8400       232
    85.8600       236
    85.8800       240
    85.9000       252
    85.9200       244
    85.9400       226
    85.9600       226
    85.9800       198
    86.0000       212
    86.0200       210
    86.0400       226
    86.0600       196
    86.0800       206
    86.1000       214
    86.1200       212
    86.1400       210
    86.1600       212
    86.1800       212
    86.2000       230
    86.2200       190
    86.2400       228
    86.2600       216
    86.2800       202
    86.3000       212
    86.3200       210
    86.3400       208
    86.3600       192
    86.3800       188
    86.4000       204
    86.4200       226
    86.4400       198
    86.4600       200
    86.4800       220
    86.5000       216
    86.5200       212
    86.5400       192
    86.5600       240
    86.5800       210
    86.6000       252
    86.6200       260
    86.6400       228
    86.6600       262
    86.6800       242
    86.7000       282
    86.7200       286
    86.7400       302
    86.7600       294
    86.7800       294
    86.8000       346
    86.8200       318
    86.8400       376
    86.8600       340
    86.8800       356
    86.9000       382
    86.9200       360
    86.9400       412
    86.9600       382
    86.9800       446
    87.0000       366
    87.0200       402
    87.0400       414
    87.0600       414
    87.0800       426
    87.1000       416
    87.1200       432
    87.1400       476
    87.1600       452
    87.1800       448
    87.2000       516
    87.2200       494
    87.2400       480
    87.2600       488
    87.2800       540
    87.3000       526
    87.3200       564
    87.3400       560
    87.3600       534
    87.3800       594
    87.4000       532
    87.4200       514
    87.4400       526
    87.4600       524
    87.4800       510
    87.5000       540
    87.5200       466
    87.5400       546
    87.5600       528
    87.5800       538
    87.6000       460
    87.6200       462
    87.6400       500
    87.6600       446
    87.6800       478
    87.7000       436
    87.7200       490
    87.7400       466
    87.7600       484
    87.7800       446
    87.8000       476
    87.8200       436
    87.8400       410
    87.8600       436
    87.8800       402
    87.9000       416
    87.9200       432
    87.9400       404
    87.9600       390
    87.9800       364
    88.0000       422
    88.0200       408
    88.0400       388
    88.0600       366
    88.0800       408
    88.1000       308
    88.1200       346
    88.1400       354
    88.1600       348
    88.1800       372
    88.2000       350
    88.2200       334
    88.2400       306
    88.2600       330
    88.2800       344
    88.3000       306
    88.3200       312
    88.3400       288
    88.3600       254
    88.3800       330
    88.4000       258
    88.4200       290
    88.4400       270
    88.4600       276
    88.4800       304
    88.5000       264
    88.5200       324
    88.5400       286
    88.5600       272
    88.5800       260
    88.6000       278
    88.6200       298
    88.6400       282
    88.6600       272
    88.6800       296
    88.7000       250
    88.7200       266
    88.7400       306
    88.7600       268
    88.7800       278
    88.8000       296
    88.8200       238
    88.8400       278
    88.8600       262
    88.8800       270
    88.9000       264
    88.9200       252
    88.9400       270
    88.9600       248
    88.9800       258
    89.0000       270
    89.0200       264
    89.0400       264
    89.0600       266
    89.0800       266
    89.1000       244
    89.1200       264
    89.1400       250
    89.1600       224
    89.1800       240
    89.2000       266
    89.2200       252
    89.2400       258
    89.2600       236
    89.2800       262
    89.3000       252
    89.3200       258
    89.3400       234
    89.3600       250
    89.3800       272
    89.4000       270
    89.4200       262
    89.4400       288
    89.4600       268
    89.4800       238
    89.5000       254
    89.5200       270
    89.5400       282
    89.5600       290
    89.5800       310
    89.6000       312
    89.6200       270
    89.6400       272
    89.6600       322
    89.6800       292
    89.7000       278
    89.7200       280
    89.7400       306
    89.7600       306
    89.7800       296
    89.8000       278
    89.8200       284
    89.8400       266
    89.8600       290
    89.8800       304
    89.9000       300
    89.9200       302
    89.9400       314
    89.9600       312
    89.9800       304
    90.0000       308
