    10.0000       326
    10.0200       342
    10.0400       364
    10.0600       384
    10.0800       374
    10.1000       348
    10.1200       344
    10.1400       362
    10.1600       352
    10.1800       382
    10.2000       346
    10.2200       344
    10.2400       372
    10.2600       360
    10.2800       342
    10.3000       312
    10.3200       374
    10.3400       328
    10.3600       358
    10.3800       330
    10.4000       338
    10.4200       344
    10.4400       338
    10.4600       304
    10.4800       362
    10.5000       356
    10.5200       338
    10.5400       358
    10.5600       364
    10.5800       336
    10.6000       330
    10.6200       318
    10.6400       358
    10.6600       332
    10.6800       314
    10.7000       312
    10.7200       322
    10.7400       346
    10.7600       336
    10.7800       310
    10.8000       310
    10.8200       312
    10.8400       334
    10.8600       346
    10.8800       332
    10.9000       298
    10.9200       356
    10.9400       324
    10.9600       354
    10.9800       344
    11.0000       320
    11.0200       334
    11.0400       352
    11.0600       342
    11.0800       342
    11.1000       314
    11.1200       322
    11.1400       346
    11.1600       332
    11.1800       312
    11.2000       300
    11.2200       310
    11.2400       334
    11.2600       340
    11.2800       322
    11.3000       306
    11.3200       304
    11.3400       314
    11.3600       328
    11.3800       336
    11.4000       326
    11.4200       310
    11.4400       304
    11.4600       322
    11.4800       356
    11.5000       336
    11.5200       300
    11.5400       358
    11.5600       316
    11.5800       310
    11.6000       310
    11.6200       326
    11.6400       320
    11.6600       322
    11.6800       342
    11.7000       304
    11.7200       326
    11.7400       360
    11.7600       338
    11.7800       346
    11.8000       358
    11.8200       360
    11.8400       348
    11.8600       412
    11.8800       338
    11.9000       328
    11.9200       346
    11.9400       350
    11.9600       358
    11.9800       324
    12.0000       404
    12.0200       404
    12.0400       434
    12.0600       436
    12.0800       432
    12.1000       436
    12.1200       500
    12.1400       474
    12.1600       570
    12.1800       584
    12.2000       572
    12.2200       548
    12.2400       550
    12.2600       484
    12.2800       398
    12.3000       402
    12.3200       368
    12.3400       356
    12.3600       356
    12.3800       318
    12.4000       296
    12.4200       338
    12.4400       300
    12.4600       282
    12.4800       300
    12.5000       294
    12.5200       284
    12.5400       292
    12.5600       276
    12.5800       294
    12.6000       280
    12.6200       276
    12.6400       290
    12.6600       282
    12.6800       312
    12.7000       292
    12.7200       302
    12.7400       276
    12.7600       276
    12.7800       292
    12.8000       280
    12.8200       260
    12.8400       284
    12.8600       258
    12.8800       274
    12.9000       284
    12.9200       276
    12.9400       298
    12.9600       284
    12.9800       304
    13.0000       284
    13.0200       282
    13.0400       262
    13.0600       294
    13.0800       298
    13.1000       272
    13.1200       292
    13.1400       300
    13.1600       286
    13.1800       258
    13.2000       290
    13.2200       224
    13.2400       294
    13.2600       284
    13.2800       278
    13.3000       266
    13.3200       266
    13.3400       264
    13.3600       272
    13.3800       288
    13.4000       242
    13.4200       298
    13.4400       260
    13.4600       260
    13.4800       256
    13.5000       286
    13.5200       274
    13.5400       264
    13.5600       254
    13.5800       242
    13.6000       250
    13.6200       278
    13.6400       276
    13.6600       252
    13.6800       270
    13.7000       250
    13.7200       296
    13.7400       266
    13.7600       234
    13.7800       240
    13.8000       274
    13.8200       250
    13.8400       260
    13.8600       268
    13.8800       258
    13.9000       284
    13.9200       280
    13.9400       234
    13.9600       230
    13.9800       264
    14.0000       250
    14.0200       240
    14.0400       256
    14.0600       244
    14.0800       256
    14.1000       264
    14.1200       252
    14.1400       278
    14.1600       248
    14.1800       272
    14.2000       238
    14.2200       256
    14.2400       276
    14.2600       240
    14.2800       240
    14.3000       264
    14.3200       238
    14.3400       248
    14.3600       274
    14.3800       232
    14.4000       256
    14.4200       270
    14.4400       236
    14.4600       274
    14.4800       266
    14.5000       254
    14.5200       262
    14.5400       258
    14.5600       272
    14.5800       286
    14.6000       260
    14.6200       256
    14.6400       258
    14.6600       266
    14.6800       296
    14.7000       290
    14.7200       304
    14.7400       300
    14.7600       296
    14.7800       344
    14.8000       332
    14.8200       334
    14.8400       354
    14.8600       336
    14.8800       354
    14.9000       374
    14.9200       444
    14.9400       410
    14.9600       452
    14.9800       506
    15.0000       534
    15.0200       566
    15.0400       638
    15.0600       656
    15.0800       750
    15.1000       742
    15.1200       832
    15.1400       806
    15.1600       926
    15.1800       996
    15.2000       964
    15.2200       994
    15.2400       922
    15.2600       828
    15.2800       720
    15.3000       556
    15.3200       466
    15.3400       440
    15.3600       380
    15.3800       336
    15.4000       310
    15.4200       344
    15.4400       268
    15.4600       296
    15.4800       286
    15.5000       244
    15.5200       272
    15.5400       250
    15.5600       262
    15.5800       264
    15.6000       274
    15.6200       234
    15.6400       244
    15.6600       274
    15.6800       242
    15.7000       240
    15.7200       242
    15.7400       242
    15.7600       232
    15.7800       262
    15.8000       220
    15.8200       242
    15.8400       236
    15.8600       256
    15.8800       202
    15.9000       210
    15.9200       220
    15.9400       210
    15.9600       224
    15.9800       250
    16.0000       272
    16.0200       226
    16.0400       244
    16.0600       208
    16.0800       264
    16.1000       228
    16.1200       256
    16.1400       260
    16.1600       226
    16.1800       254
    16.2000       248
    16.2200       238
    16.2400       262
    16.2600       260
    16.2800       240
    16.3000       250
    16.3200       254
    16.3400       224
    16.3600       270
    16.3800       228
    16.4000       268
    16.4200       238
    16.4400       234
    16.4600       274
    16.4800       250
    16.5000       264
    16.5200       264
    16.5400       252
    16.5600       290
    16.5800       276
    16.6000       284
    16.6200       304
    16.6400       264
    16.6600       314
    16.6800       336
    16.7000       348
    16.7200       402
    16.7400       392
    16.7600       410
    16.7800       456
    16.8000       478
    16.8200       562
    16.8400       534
    16.8600       618
    16.8800       678
    16.9000       766
    16.9200       816
    16.9400       958
    16.9600      1106
    16.9800      1264
    17.0000      1372
    17.0200      1524
    17.0400      1642
    17.0600      1680
    17.0800      1650
    17.1000      1548
    17.1200      1356
    17.1400      1164
    17.1600       994
    17.1800       816
    17.2000       778
    17.2200       690
    17.2400       668
    17.2600       618
    17.2800       618
    17.3000       534
    17.3200       556
    17.3400       570
    17.3600       488
    17.3800       474
    17.4000       434
    17.4200       450
    17.4400       430
    17.4600       376
    17.4800       356
    17.5000       376
    17.5200       376
    17.5400       370
    17.5600       366
    17.5800       358
    17.6000       348
    17.6200       368
    17.6400       386
    17.6600       390
    17.6800       422
    17.7000       486
    17.7200       476
    17.7400       512
    17.7600       544
    17.7800       574
    17.8000       600
    17.8200       590
    17.8400       560
    17.8600       520
    17.8800       522
    17.9000       470
    17.9200       398
    17.9400       348
    17.9600       328
    17.9800       292
    18.0000       264
    18.0200       232
    18.0400       222
    18.0600       248
    18.0800       232
    18.1000       200
    18.1200       226
    18.1400       240
    18.1600       220
    18.1800       210
    18.2000       216
    18.2200       204
    18.2400       194
    18.2600       194
    18.2800       216
    18.3000       258
    18.3200       216
    18.3400       250
    18.3600       228
    18.3800       212
    18.4000       236
    18.4200       212
    18.4400       218
    18.4600       208
    18.4800       214
    18.5000       202
    18.5200       204
    18.5400       230
    18.5600       228
    18.5800       246
    18.6000       202
    18.6200       186
    18.6400       230
    18.6600       224
    18.6800       210
    18.7000       218
    18.7200       218
    18.7400       190
    18.7600       234
    18.7800       208
    18.8000       228
    18.8200       198
    18.8400       272
    18.8600       244
    18.8800       246
    18.9000       248
    18.9200       238
    18.9400       240
    18.9600       254
    18.9800       266
    19.0000       292
    19.0200       284
    19.0400       286
    19.0600       294
    19.0800       304
    19.1000       302
    19.1200       350
    19.1400       348
    19.1600       422
    19.1800       394
    19.2000       456
    19.2200       462
    19.2400       538
    19.2600       580
    19.2800       624
    19.3000       694
    19.3200       824
    19.3400       882
    19.3600       968
    19.3800      1152
    19.4000      1224
    19.4200      1450
    19.4400      1608
    19.4600      1906
    19.4800      2150
    19.5000      2350
    19.5200      2580
    19.5400      2880
    19.5600      2930
    19.5800      2992
    19.6000      2896
    19.6200      2672
    19.6400      2178
    19.6600      1768
    19.6800      1542
    19.7000      1240
    19.7200      1088
    19.7400      1058
    19.7600      1048
    19.7800      1072
    19.8000      1114
    19.8200      1088
    19.8400      1182
    19.8600      1360
    19.8800      1448
    19.9000      1630
    19.9200      1810
    19.9400      2010
    19.9600      2046
    19.9800      2160
    20.0000      2318
    20.0200      2246
    20.0400      2164
    20.0600      1874
    20.0800      1540
    20.1000      1298
    20.1200      1068
    20.1400       836
    20.1600       684
    20.1800       582
    20.2000       498
    20.2200       436
    20.2400       396
    20.2600       392
    20.2800       402
    20.3000       328
    20.3200       318
    20.3400       314
    20.3600       312
    20.3800       268
    20.4000       264
    20.4200       256
    20.4400       256
    20.4600       242
    20.4800       236
    20.5000       256
    20.5200       244
    20.5400       224
    20.5600       248
    20.5800       224
    20.6000       214
    20.6200       226
    20.6400       230
    20.6600       220
    20.6800       238
    20.7000       244
    20.7200       256
    20.7400       278
    20.7600       244
    20.7800       256
    20.8000       274
    20.8200       290
    20.8400       276
    20.8600       306
    20.8800       322
    20.9000       320
    20.9200       344
    20.9400       380
    20.9600       422
    20.9800       410
    21.0000       496
    21.0200       512
    21.0400       592
    21.0600       634
    21.0800       732
    21.1000       860
    21.1200      1002
    21.1400      1074
    21.1600      1140
    21.1800      1250
    21.2000      1342
    21.2200      1352
    21.2400      1314
    21.2600      1290
    21.2800      1120
    21.3000       924
    21.3200       818
    21.3400       666
    21.3600       576
    21.3800       508
    21.4000       438
    21.4200       366
    21.4400       352
    21.4600       290
    21.4800       286
    21.5000       254
    21.5200       264
    21.5400       236
    21.5600       272
    21.5800       246
    21.6000       228
    21.6200       254
    21.6400       224
    21.6600       208
    21.6800       242
    21.7000       244
    21.7200       202
    21.7400       212
    21.7600       182
    21.7800       220
    21.8000       180
    21.8200       234
    21.8400       198
    21.8600       228
    21.8800       200
    21.9000       244
    21.9200       236
    21.9400       188
    21.9600       212
    21.9800       222
    22.0000       228
    22.0200       252
    22.0400       206
    22.0600       224
    22.0800       234
    22.1000       220
    22.1200       222
    22.1400       230
    22.1600       224
    22.1800       232
    22.2000       228
    22.2200       226
    22.2400       238
    22.2600       230
    22.2800       262
    22.3000       248
    22.3200       230
    22.3400       264
    22.3600       268
    22.3800       296
    22.4000       308
    22.4200       310
    22.4400       354
    22.4600       376
    22.4800       378
    22.5000       458
    22.5200       462
    22.5400       528
    22.5600       616
    22.5800       648
    22.6000       690
    22.6200       838
    22.6400       888
    22.6600      1058
    22.6800      1214
    22.7000      1296
    22.7200      1592
    22.7400      1754
    22.7600      2084
    22.7800      2312
    22.8000      2718
    22.8200      3202
    22.8400      3454
    22.8600      3808
    22.8800      3912
    22.9000      3820
    22.9200      3628
    22.9400      3170
    22.9600      2554
    22.9800      2074
    23.0000      1626
    23.0200      1346
    23.0400      1076
    23.0600       870
    23.0800       756
    23.1000       606
    23.1200       586
    23.1400       514
    23.1600       454
    23.1800       394
    23.2000       386
    23.2200       370
    23.2400       346
    23.2600       310
    23.2800       324
    23.3000       306
    23.3200       270
    23.3400       284
    23.3600       284
    23.3800       268
    23.4000       252
    23.4200       260
    23.4400       248
    23.4600       254
    23.4800       258
    23.5000       226
    23.5200       232
    23.5400       208
    23.5600       224
    23.5800       246
    23.6000       252
    23.6200       206
    23.6400       226
    23.6600       224
    23.6800       222
    23.7000       242
    23.7200       200
    23.7400       224
    23.7600       242
    23.7800       236
    23.8000       212
    23.8200       224
    23.8400       224
    23.8600       220
    23.8800       224
    23.9000       208
    23.9200       214
    23.9400       218
    23.9600       222
    23.9800       238
    24.0000       246
    24.0200       220
    24.0400       238
    24.0600       248
    24.0800       224
    24.1000       266
    24.1200       246
    24.1400       230
    24.1600       230
    24.1800       256
    24.2000       282
    24.2200       268
    24.2400       290
    24.2600       290
    24.2800       336
    24.3000       332
    24.3200       366
    24.3400       444
    24.3600       384
    24.3800       470
    24.4000       532
    24.4200       578
    24.4400       582
    24.4600       702
    24.4800       740
    24.5000       764
    24.5200       876
    24.5400       888
    24.5600       878
    24.5800       918
    24.6000       862
    24.6200       834
    24.6400       718
    24.6600       694
    24.6800       646
    24.7000       574
    24.7200       562
    24.7400       566
    24.7600       534
    24.7800       524
    24.8000       512
    24.8200       506
    24.8400       444
    24.8600       454
    24.8800       432
    24.9000       398
    24.9200       382
    24.9400       384
    24.9600       448
    24.9800       400
    25.0000       438
    25.0200       438
    25.0400       440
    25.0600       492
    25.0800       470
    25.1000       482
    25.1200       520
    25.1400       558
    25.1600       572
    25.1800       622
    25.2000       722
    25.2200       766
    25.2400       782
    25.2600       874
    25.2800       936
    25.3000       856
    25.3200       940
    25.3400       948
    25.3600       988
    25.3800       892
    25.4000       816
    25.4200       810
    25.4400       746
    25.4600       736
    25.4800       820
    25.5000       762
    25.5200       842
    25.5400       894
    25.5600       950
    25.5800      1006
    25.6000      1002
    25.6200      1056
    25.6400       994
    25.6600       956
    25.6800       942
    25.7000       812
    25.7200       698
    25.7400       604
    25.7600       526
    25.7800       486
    25.8000       410
    25.8200       408
    25.8400       378
    25.8600       354
    25.8800       288
    25.9000       316
    25.9200       308
    25.9400       280
    25.9600       284
    25.9800       272
    26.0000       266
    26.0200       294
    26.0400       266
    26.0600       262
    26.0800       256
    26.1000       254
    26.1200       260
    26.1400       250
    26.1600       246
    26.1800       250
    26.2000       230
    26.2200       228
    26.2400       218
    26.2600       234
    26.2800       230
    26.3000       256
    26.3200       260
    26.3400       228
    26.3600       262
    26.3800       270
    26.4000       250
    26.4200       242
    26.4400       228
    26.4600       230
    26.4800       234
    26.5000       248
    26.5200       264
    26.5400       244
    26.5600       228
    26.5800       266
    26.6000       258
    26.6200       234
    26.6400       234
    26.6600       268
    26.6800       246
    26.7000       236
    26.7200       242
    26.7400       254
    26.7600       252
    26.7800       250
    26.8000       226
    26.8200       244
    26.8400       254
    26.8600       234
    26.8800       226
    26.9000       222
    26.9200       232
    26.9400       226
    26.9600       250
    26.9800       260
    27.0000       248
    27.0200       260
    27.0400       264
    27.0600       232
    27.0800       256
    27.1000       272
    27.1200       276
    27.1400       320
    27.1600       290
    27.1800       282
    27.2000       310
    27.2200       330
    27.2400       360
    27.2600       352
    27.2800       402
    27.3000       424
    27.3200       520
    27.3400       500
    27.3600       576
    27.3800       636
    27.4000       724
    27.4200       780
    27.4400       816
    27.4600       884
    27.4800       912
    27.5000       924
    27.5200       942
    27.5400       910
    27.5600       840
    27.5800       790
    27.6000       718
    27.6200       668
    27.6400       568
    27.6600       570
    27.6800       480
    27.7000       462
    27.7200       400
    27.7400       416
    27.7600       364
    27.7800       352
    27.8000       350
    27.8200       380
    27.8400       372
    27.8600       408
    27.8800       372
    27.9000       436
    27.9200       462
    27.9400       460
    27.9600       484
    27.9800       522
    28.0000       586
    28.0200       574
    28.0400       686
    28.0600       722
    28.0800       814
    28.1000       912
    28.1200      1012
    28.1400      1076
    28.1600      1224
    28.1800      1344
    28.2000      1480
    28.2200      1638
    28.2400      1802
    28.2600      1794
    28.2800      1834
    28.3000      1820
    28.3200      1710
    28.3400      1564
    28.3600      1458
    28.3800      1298
    28.4000      1216
    28.4200      1068
    28.4400       956
    28.4600       796
    28.4800       692
    28.5000       584
    28.5200       590
    28.5400       496
    28.5600       522
    28.5800       448
    28.6000       454
    28.6200       440
    28.6400       446
    28.6600       438
    28.6800       408
    28.7000       446
    28.7200       390
    28.7400       384
    28.7600       362
    28.7800       406
    28.8000       368
    28.8200       378
    28.8400       324
    28.8600       322
    28.8800       328
    28.9000       296
    28.9200       298
    28.9400       266
    28.9600       308
    28.9800       310
    29.0000       292
    29.0200       276
    29.0400       284
    29.0600       264
    29.0800       274
    29.1000       290
    29.1200       264
    29.1400       276
    29.1600       302
    29.1800       258
    29.2000       276
    29.2200       278
    29.2400       288
    29.2600       280
    29.2800       316
    29.3000       310
    29.3200       320
    29.3400       348
    29.3600       358
    29.3800       392
    29.4000       390
    29.4200       402
    29.4400       470
    29.4600       518
    29.4800       482
    29.5000       556
    29.5200       588
    29.5400       626
    29.5600       634
    29.5800       726
    29.6000       748
    29.6200       800
    29.6400       844
    29.6600       818
    29.6800       840
    29.7000       828
    29.7200       790
    29.7400       730
    29.7600       662
    29.7800       616
    29.8000       558
    29.8200       576
    29.8400       552
    29.8600       518
    29.8800       516
    29.9000       518
    29.9200       518
    29.9400       532
    29.9600       578
    29.9800       602
    30.0000       676
    30.0200       752
    30.0400       880
    30.0600       898
    30.0800      1000
    30.1000      1150
    30.1200      1214
    30.1400      1416
    30.1600      1488
    30.1800      1494
    30.2000      1496
    30.2200      1600
    30.2400      1590
    30.2600      1520
    30.2800      1454
    30.3000      1376
    30.3200      1336
    30.3400      1274
    30.3600      1274
    30.3800      1248
    30.4000      1326
    30.4200      1418
    30.4400      1490
    30.4600      1578
    30.4800      1778
    30.5000      1988
    30.5200      2162
    30.5400      2478
    30.5600      2726
    30.5800      3158
    30.6000      3564
    30.6200      3822
    30.6400      4072
    30.6600      4352
    30.6800      4572
    30.7000      4502
    30.7200      4214
    30.7400      4084
    30.7600      3558
    30.7800      3084
    30.8000      2766
    30.8200      2130
    30.8400      1810
    30.8600      1548
    30.8800      1414
    30.9000      1174
    30.9200      1018
    30.9400      1020
    30.9600       840
    30.9800       774
    31.0000       746
    31.0200       680
    31.0400       658
    31.0600       672
    31.0800       658
    31.1000       560
    31.1200       530
    31.1400       512
    31.1600       462
    31.1800       426
    31.2000       454
    31.2200       446
    31.2400       394
    31.2600       390
    31.2800       408
    31.3000       412
    31.3200       322
    31.3400       386
    31.3600       340
    31.3800       356
    31.4000       350
    31.4200       354
    31.4400       378
    31.4600       380
    31.4800       338
    31.5000       394
    31.5200       354
    31.5400       390
    31.5600       376
    31.5800       430
    31.6000       394
    31.6200       386
    31.6400       404
    31.6600       470
    31.6800       448
    31.7000       564
    31.7200       570
    31.7400       570
    31.7600       628
    31.7800       624
    31.8000       722
    31.8200       762
    31.8400       954
    31.8600       990
    31.8800      1060
    31.9000      1284
    31.9200      1378
    31.9400      1680
    31.9600      1828
    31.9800      1994
    32.0000      2162
    32.0200      2158
    32.0400      2256
    32.0600      2226
    32.0800      2054
    32.1000      1910
    32.1200      1774
    32.1400      1632
    32.1600      1500
    32.1800      1408
    32.2000      1318
    32.2200      1242
    32.2400      1238
    32.2600      1282
    32.2800      1364
    32.3000      1504
    32.3200      1578
    32.3400      1750
    32.3600      1958
    32.3800      2294
    32.4000      2620
    32.4200      2984
    32.4400      3552
    32.4600      4054
    32.4800      4524
    32.5000      5076
    32.5200      5786
    32.5400      6562
    32.5600      6950
    32.5800      7118
    32.6000      6944
    32.6200      6814
    32.6400      6268
    32.6600      5956
    32.6800      5330
    32.7000      4578
    32.7200      3930
    32.7400      3278
    32.7600      2794
    32.7800      2456
    32.8000      2080
    32.8200      1764
    32.8400      1602
    32.8600      1428
    32.8800      1262
    32.9000      1266
    32.9200      1152
    32.9400      1194
    32.9600      1230
    32.9800      1162
    33.0000      1164
    33.0200      1240
    33.0400      1378
    33.0600      1406
    33.0800      1472
    33.1000      1576
    33.1200      1588
    33.1400      1500
    33.1600      1394
    33.1800      1226
    33.2000      1146
    33.2200      1054
    33.2400       876
    33.2600       792
    33.2800       694
    33.3000       592
    33.3200       560
    33.3400       472
    33.3600       480
    33.3800       442
    33.4000       404
    33.4200       424
    33.4400       380
    33.4600       348
    33.4800       328
    33.5000       332
    33.5200       328
    33.5400       276
    33.5600       324
    33.5800       322
    33.6000       304
    33.6200       266
    33.6400       244
    33.6600       296
    33.6800       260
    33.7000       250
    33.7200       252
    33.7400       290
    33.7600       212
    33.7800       248
    33.8000       240
    33.8200       244
    33.8400       240
    33.8600       250
    33.8800       244
    33.9000       206
    33.9200       232
    33.9400       252
    33.9600       232
    33.9800       264
    34.0000       264
    34.0200       246
    34.0400       252
    34.0600       246
    34.0800       274
    34.1000       228
    34.1200       230
    34.1400       252
    34.1600       246
    34.1800       262
    34.2000       256
    34.2200       294
    34.2400       266
    34.2600       264
    34.2800       254
    34.3000       286
    34.3200       326
    34.3400       310
    34.3600       336
    34.3800       358
    34.4000       396
    34.4200       394
    34.4400       466
    34.4600       434
    34.4800       484
    34.5000       524
    34.5200       504
    34.5400       522
    34.5600       514
    34.5800       464
    34.6000       456
    34.6200       402
    34.6400       402
    34.6600       342
    34.6800       348
    34.7000       338
    34.7200       314
    34.7400       328
    34.7600       314
    34.7800       316
    34.8000       288
    34.8200       286
    34.8400       276
    34.8600       294
    34.8800       288
    34.9000       274
    34.9200       310
    34.9400       292
    34.9600       310
    34.9800       298
    35.0000       294
    35.0200       320
    35.0400       302
    35.0600       326
    35.0800       322
    35.1000       340
    35.1200       328
    35.1400       308
    35.1600       286
    35.1800       300
    35.2000       284
    35.2200       270
    35.2400       280
    35.2600       276
    35.2800       266
    35.3000       286
    35.3200       266
    35.3400       250
    35.3600       258
    35.3800       254
    35.4000       236
    35.4200       250
    35.4400       272
    35.4600       260
    35.4800       262
    35.5000       262
    35.5200       282
    35.5400       250
    35.5600       272
    35.5800       294
    35.6000       288
    35.6200       258
    35.6400       284
    35.6600       288
    35.6800       296
    35.7000       300
    35.7200       320
    35.7400       318
    35.7600       320
    35.7800       374
    35.8000       360
    35.8200       330
    35.8400       390
    35.8600       406
    35.8800       376
    35.9000       448
    35.9200       472
    35.9400       486
    35.9600       558
    35.9800       556
    36.0000       570
    36.0200       650
    36.0400       708
    36.0600       704
    36.0800       772
    36.1000       850
    36.1200       816
    36.1400       906
    36.1600       928
    36.1800       864
    36.2000       824
    36.2200       874
    36.2400       764
    36.2600       696
    36.2800       694
    36.3000       614
    36.3200       566
    36.3400       518
    36.3600       502
    36.3800       454
    36.4000       480
    36.4200       388
    36.4400       444
    36.4600       416
    36.4800       422
    36.5000       434
    36.5200       398
    36.5400       428
    36.5600       400
    36.5800       482
    36.6000       488
    36.6200       510
    36.6400       530
    36.6600       602
    36.6800       618
    36.7000       728
    36.7200       740
    36.7400       822
    36.7600       978
    36.7800      1052
    36.8000      1174
    36.8200      1262
    36.8400      1482
    36.8600      1562
    36.8800      1820
    36.9000      1776
    36.9200      1874
    36.9400      1780
    36.9600      1836
    36.9800      1670
    37.0000      1536
    37.0200      1428
    37.0400      1328
    37.0600      1244
    37.0800      1124
    37.1000      1010
    37.1200       948
    37.1400       952
    37.1600       908
    37.1800       868
    37.2000       842
    37.2200       804
    37.2400       814
    37.2600       720
    37.2800       710
    37.3000       634
    37.3200       680
    37.3400       662
    37.3600       592
    37.3800       606
    37.4000       564
    37.4200       544
    37.4400       560
    37.4600       592
    37.4800       590
    37.5000       634
    37.5200       620
    37.5400       648
    37.5600       732
    37.5800       736
    37.6000       784
    37.6200       798
    37.6400       902
    37.6600       926
    37.6800       872
    37.7000       952
    37.7200       920
    37.7400       894
    37.7600       934
    37.7800       898
    37.8000       868
    37.8200       918
    37.8400       892
    37.8600       914
    37.8800      1058
    37.9000      1092
    37.9200      1134
    37.9400      1226
    37.9600      1414
    37.9800      1554
    38.0000      1666
    38.0200      1712
    38.0400      1900
    38.0600      1994
    38.0800      1930
    38.1000      1960
    38.1200      1858
    38.1400      1644
    38.1600      1652
    38.1800      1632
    38.2000      1514
    38.2200      1550
    38.2400      1432
    38.2600      1552
    38.2800      1550
    38.3000      1632
    38.3200      1692
    38.3400      1862
    38.3600      2146
    38.3800      2390
    38.4000      2508
    38.4200      2850
    38.4400      3194
    38.4600      3614
    38.4800      3872
    38.5000      4320
    38.5200      4494
    38.5400      4730
    38.5600      5080
    38.5800      5068
    38.6000      5122
    38.6200      5274
    38.6400      5280
    38.6600      5238
    38.6800      5152
    38.7000      5072
    38.7200      4924
    38.7400      4790
    38.7600      4566
    38.7800      4132
    38.8000      3950
    38.8200      3632
    38.8400      3280
    38.8600      2868
    38.8800      2546
    38.9000      2284
    38.9200      2024
    38.9400      1810
    38.9600      1606
    38.9800      1560
    39.0000      1374
    39.0200      1360
    39.0400      1220
    39.0600      1292
    39.0800      1248
    39.1000      1122
    39.1200      1144
    39.1400      1090
    39.1600      1118
    39.1800      1072
    39.2000      1050
    39.2200      1114
    39.2400      1126
    39.2600      1136
    39.2800      1048
    39.3000      1082
    39.3200      1100
    39.3400      1122
    39.3600      1102
    39.3800      1138
    39.4000      1148
    39.4200      1126
    39.4400      1140
    39.4600      1090
    39.4800      1122
    39.5000      1082
    39.5200      1114
    39.5400      1170
    39.5600      1190
    39.5800      1292
    39.6000      1336
    39.6200      1516
    39.6400      1636
    39.6600      1728
    39.6800      1952
    39.7000      2010
    39.7200      2192
    39.7400      2256
    39.7600      2290
    39.7800      2086
    39.8000      1964
    39.8200      1866
    39.8400      1674
    39.8600      1530
    39.8800      1388
    39.9000      1248
    39.9200      1124
    39.9400       936
    39.9600       894
    39.9800       890
    40.0000       810
    40.0200       746
    40.0400       714
    40.0600       728
    40.0800       774
    40.1000       716
    40.1200       724
    40.1400       754
    40.1600       766
    40.1800       788
    40.2000       792
    40.2200       772
    40.2400       810
    40.2600       796
    40.2800       806
    40.3000       808
    40.3200       808
    40.3400       860
    40.3600       908
    40.3800       898
    40.4000       934
    40.4200       922
    40.4400      1026
    40.4600      1070
    40.4800      1184
    40.5000      1284
    40.5200      1372
    40.5400      1394
    40.5600      1554
    40.5800      1524
    40.6000      1584
    40.6200      1562
    40.6400      1590
    40.6600      1478
    40.6800      1396
    40.7000      1386
    40.7200      1216
    40.7400      1198
    40.7600      1084
    40.7800      1034
    40.8000       930
    40.8200       912
    40.8400       830
    40.8600       662
    40.8800       668
    40.9000       654
    40.9200       646
    40.9400       630
    40.9600       638
    40.9800       630
    41.0000       618
    41.0200       642
    41.0400       648
    41.0600       674
    41.0800       696
    41.1000       758
    41.1200       806
    41.1400       788
    41.1600       906
    41.1800       896
    41.2000      1044
    41.2200      1140
    41.2400      1236
    41.2600      1316
    41.2800      1282
    41.3000      1342
    41.3200      1374
    41.3400      1348
    41.3600      1430
    41.3800      1432
    41.4000      1470
    41.4200      1330
    41.4400      1462
    41.4600      1438
    41.4800      1364
    41.5000      1314
    41.5200      1386
    41.5400      1340
    41.5600      1252
    41.5800      1190
    41.6000      1208
    41.6200      1094
    41.6400      1104
    41.6600      1026
    41.6800       990
    41.7000       982
    41.7200      1016
    41.7400       996
    41.7600      1044
    41.7800      1040
    41.8000      1148
    41.8200      1238
    41.8400      1386
    41.8600      1396
    41.8800      1510
    41.9000      1628
    41.9200      1652
    41.9400      1618
    41.9600      1620
    41.9800      1604
    42.0000      1538
    42.0200      1406
    42.0400      1330
    42.0600      1246
    42.0800      1078
    42.1000       968
    42.1200       924
    42.1400       840
    42.1600       766
    42.1800       696
    42.2000       658
    42.2200       610
    42.2400       554
    42.2600       500
    42.2800       496
    42.3000       440
    42.3200       452
    42.3400       436
    42.3600       428
    42.3800       406
    42.4000       432
    42.4200       424
    42.4400       388
    42.4600       390
    42.4800       392
    42.5000       366
    42.5200       348
    42.5400       378
    42.5600       366
    42.5800       316
    42.6000       304
    42.6200       400
    42.6400       338
    42.6600       346
    42.6800       352
    42.7000       382
    42.7200       388
    42.7400       378
    42.7600       382
    42.7800       414
    42.8000       430
    42.8200       416
    42.8400       392
    42.8600       438
    42.8800       478
    42.9000       478
    42.9200       484
    42.9400       534
    42.9600       564
    42.9800       580
    43.0000       662
    43.0200       670
    43.0400       748
    43.0600       796
    43.0800       884
    43.1000      1016
    43.1200      1082
    43.1400      1242
    43.1600      1328
    43.1800      1382
    43.2000      1638
    43.2200      1608
    43.2400      1750
    43.2600      1708
    43.2800      1676
    43.3000      1614
    43.3200      1524
    43.3400      1496
    43.3600      1330
    43.3800      1246
    43.4000      1114
    43.4200      1048
    43.4400       872
    43.4600       838
    43.4800       744
    43.5000       688
    43.5200       622
    43.5400       628
    43.5600       554
    43.5800       570
    43.6000       504
    43.6200       532
    43.6400       514
    43.6600       568
    43.6800       510
    43.7000       516
    43.7200       510
    43.7400       584
    43.7600       574
    43.7800       584
    43.8000       584
    43.8200       696
    43.8400       684
    43.8600       660
    43.8800       664
    43.9000       644
    43.9200       648
    43.9400       618
    43.9600       562
    43.9800       570
    44.0000       548
    44.0200       552
    44.0400       556
    44.0600       488
    44.0800       484
    44.1000       454
    44.1200       452
    44.1400       432
    44.1600       392
    44.1800       400
    44.2000       414
    44.2200       374
    44.2400       380
    44.2600       424
    44.2800       418
    44.3000       388
    44.3200       432
    44.3400       464
    44.3600       412
    44.3800       398
    44.4000       416
    44.4200       398
    44.4400       420
    44.4600       410
    44.4800       402
    44.5000       400
    44.5200       426
    44.5400       432
    44.5600       404
    44.5800       370
    44.6000       428
    44.6200       470
    44.6400       466
    44.6600       500
    44.6800       494
    44.7000       452
    44.7200       468
    44.7400       472
    44.7600       496
    44.7800       602
    44.8000       598
    44.8200       610
    44.8400       660
    44.8600       724
    44.8800       718
    44.9000       816
    44.9200       844
    44.9400       948
    44.9600      1064
    44.9800      1124
    45.0000      1174
    45.0200      1244
    45.0400      1362
    45.0600      1426
    45.0800      1424
    45.1000      1534
    45.1200      1590
    45.1400      1616
    45.1600      1596
    45.1800      1630
    45.2000      1636
    45.2200      1670
    45.2400      1670
    45.2600      1566
    45.2800      1550
    45.3000      1550
    45.3200      1538
    45.3400      1424
    45.3600      1428
    45.3800      1354
    45.4000      1324
    45.4200      1224
    45.4400      1190
    45.4600      1188
    45.4800      1114
    45.5000      1128
    45.5200      1048
    45.5400       994
    45.5600       954
    45.5800       940
    45.6000       898
    45.6200       850
    45.6400       836
    45.6600       860
    45.6800       888
    45.7000       830
    45.7200       790
    45.7400       902
    45.7600       878
    45.7800       912
    45.8000       920
    45.8200       956
    45.8400       922
    45.8600       914
    45.8800       890
    45.9000       894
    45.9200       792
    45.9400       806
    45.9600       846
    45.9800       726
    46.0000       736
    46.0200       704
    46.0400       742
    46.0600       722
    46.0800       626
    46.1000       680
    46.1200       740
    46.1400       720
    46.1600       756
    46.1800       726
    46.2000       774
    46.2200       790
    46.2400       854
    46.2600       868
    46.2800       910
    46.3000       958
    46.3200      1044
    46.3400      1092
    46.3600      1210
    46.3800      1326
    46.4000      1396
    46.4200      1490
    46.4400      1726
    46.4600      1900
    46.4800      2046
    46.5000      2174
    46.5200      2488
    46.5400      2754
    46.5600      3096
    46.5800      3404
    46.6000      3876
    46.6200      4444
    46.6400      4734
    46.6600      5476
    46.6800      6016
    46.7000      6494
    46.7200      6974
    46.7400      7066
    46.7600      7244
    46.7800      7338
    46.8000      7126
    46.8200      6738
    46.8400      6404
    46.8600      6166
    46.8800      5620
    46.9000      5420
    46.9200      4920
    46.9400      4570
    46.9600      4168
    46.9800      3852
    47.0000      3488
    47.0200      3370
    47.0400      3078
    47.0600      2814
    47.0800      2690
    47.1000      2382
    47.1200      2270
    47.1400      2022
    47.1600      1962
    47.1800      1790
    47.2000      1596
    47.2200      1450
    47.2400      1372
    47.2600      1264
    47.2800      1240
    47.3000      1070
    47.3200      1006
    47.3400       940
    47.3600       874
    47.3800       820
    47.4000       782
    47.4200       698
    47.4400       720
    47.4600       656
    47.4800       642
    47.5000       604
    47.5200       596
    47.5400       582
    47.5600       520
    47.5800       556
    47.6000       540
    47.6200       516
    47.6400       520
    47.6600       540
    47.6800       548
    47.7000       556
    47.7200       564
    47.7400       568
    47.7600       590
    47.7800       654
    47.8000       670
    47.8200       684
    47.8400       690
    47.8600       828
    47.8800       746
    47.9000       746
    47.9200       756
    47.9400       774
    47.9600       768
    47.9800       720
    48.0000       752
    48.0200       742
    48.0400       702
    48.0600       684
    48.0800       714
    48.1000       694
    48.1200       688
    48.1400       690
    48.1600       766
    48.1800       782
    48.2000       756
    48.2200       814
    48.2400       792
    48.2600       814
    48.2800       870
    48.3000       820
    48.3200       802
    48.3400       734
    48.3600       862
    48.3800       798
    48.4000       772
    48.4200       762
    48.4400       786
    48.4600       780
    48.4800       870
    48.5000       850
    48.5200       888
    48.5400       868
    48.5600       870
    48.5800       914
    48.6000       882
    48.6200       904
    48.6400       918
    48.6600       912
    48.6800       832
    48.7000       834
    48.7200       792
    48.7400       782
    48.7600       720
    48.7800       702
    48.8000       702
    48.8200       620
    48.8400       560
    48.8600       582
    48.8800       542
    48.9000       528
    48.9200       480
    48.9400       448
    48.9600       428
    48.9800       402
    49.0000       370
    49.0200       384
    49.0400       388
    49.0600       378
    49.0800       348
    49.1000       338
    49.1200       362
    49.1400       354
    49.1600       326
    49.1800       326
    49.2000       290
    49.2200       300
    49.2400       290
    49.2600       300
    49.2800       308
    49.3000       296
    49.3200       286
    49.3400       304
    49.3600       316
    49.3800       302
    49.4000       282
    49.4200       294
    49.4400       304
    49.4600       298
    49.4800       274
    49.5000       300
    49.5200       290
    49.5400       280
    49.5600       338
    49.5800       302
    49.6000       316
    49.6200       290
    49.6400       310
    49.6600       320
    49.6800       324
    49.7000       326
    49.7200       332
    49.7400       320
    49.7600       334
    49.7800       332
    49.8000       384
    49.8200       324
    49.8400       346
    49.8600       354
    49.8800       338
    49.9000       360
    49.9200       370
    49.9400       350
    49.9600       388
    49.9800       376
    50.0000       436
    50.0200       404
    50.0400       440
    50.0600       490
    50.0800       480
    50.1000       536
    50.1200       556
    50.1400       606
    50.1600       606
    50.1800       670
    50.2000       748
    50.2200       764
    50.2400       772
    50.2600       812
    50.2800       912
    50.3000       938
    50.3200       992
    50.3400       968
    50.3600      1012
    50.3800      1036
    50.4000      1042
    50.4200      1032
    50.4400       950
    50.4600       980
    50.4800       938
    50.5000       924
    50.5200       874
    50.5400       894
    50.5600       902
    50.5800       924
    50.6000       918
    50.6200       964
    50.6400      1048
    50.6600      1094
    50.6800      1106
    50.7000      1160
    50.7200      1264
    50.7400      1334
    50.7600      1354
    50.7800      1468
    50.8000      1448
    50.8200      1558
    50.8400      1534
    50.8600      1596
    50.8800      1518
    50.9000      1446
    50.9200      1454
    50.9400      1364
    50.9600      1398
    50.9800      1262
    51.0000      1324
    51.0200      1180
    51.0400      1164
    51.0600      1040
    51.0800      1022
    51.1000       898
    51.1200       942
    51.1400       858
    51.1600       838
    51.1800       788
    51.2000       810
    51.2200       718
    51.2400       768
    51.2600       690
    51.2800       760
    51.3000       722
    51.3200       726
    51.3400       710
    51.3600       786
    51.3800       762
    51.4000       774
    51.4200       792
    51.4400       788
    51.4600       760
    51.4800       842
    51.5000       796
    51.5200       832
    51.5400       788
    51.5600       778
    51.5800       842
    51.6000       848
    51.6200       846
    51.6400       888
    51.6600       924
    51.6800       824
    51.7000       898
    51.7200       912
    51.7400       984
    51.7600      1036
    51.7800      1132
    51.8000      1210
    51.8200      1242
    51.8400      1348
    51.8600      1354
    51.8800      1414
    51.9000      1572
    51.9200      1560
    51.9400      1620
    51.9600      1614
    51.9800      1646
    52.0000      1702
    52.0200      1606
    52.0400      1650
    52.0600      1596
    52.0800      1558
    52.1000      1406
    52.1200      1360
    52.1400      1260
    52.1600      1150
    52.1800      1138
    52.2000      1140
    52.2200       990
    52.2400       922
    52.2600       922
    52.2800       818
    52.3000       794
    52.3200       780
    52.3400       788
    52.3600       782
    52.3800       692
    52.4000       812
    52.4200       790
    52.4400       838
    52.4600       800
    52.4800       934
    52.5000       980
    52.5200      1066
    52.5400      1158
    52.5600      1122
    52.5800      1226
    52.6000      1244
    52.6200      1272
    52.6400      1364
    52.6600      1286
    52.6800      1370
    52.7000      1372
    52.7200      1372
    52.7400      1364
    52.7600      1316
    52.7800      1284
    52.8000      1232
    52.8200      1256
    52.8400      1144
    52.8600      1124
    52.8800      1036
    52.9000      1046
    52.9200       872
    52.9400       884
    52.9600       842
    52.9800       820
    53.0000       864
    53.0200       756
    53.0400       788
    53.0600       834
    53.0800       808
    53.1000       822
    53.1200       930
    53.1400       870
    53.1600       960
    53.1800      1000
    53.2000      1138
    53.2200      1102
    53.2400      1310
    53.2600      1324
    53.2800      1458
    53.3000      1444
    53.3200      1522
    53.3400      1478
    53.3600      1508
    53.3800      1464
    53.4000      1392
    53.4200      1404
    53.4400      1292
    53.4600      1168
    53.4800      1114
    53.5000      1084
    53.5200       926
    53.5400       938
    53.5600       844
    53.5800       810
    53.6000       754
    53.6200       746
    53.6400       696
    53.6600       626
    53.6800       600
    53.7000       586
    53.7200       556
    53.7400       538
    53.7600       548
    53.7800       486
    53.8000       496
    53.8200       488
    53.8400       480
    53.8600       480
    53.8800       442
    53.9000       458
    53.9200       446
    53.9400       408
    53.9600       454
    53.9800       436
    54.0000       466
    54.0200       428
    54.0400       452
    54.0600       426
    54.0800       458
    54.1000       428
    54.1200       462
    54.1400       488
    54.1600       468
    54.1800       482
    54.2000       462
    54.2200       494
    54.2400       516
    54.2600       520
    54.2800       550
    54.3000       512
    54.3200       542
    54.3400       572
    54.3600       560
    54.3800       570
    54.4000       644
    54.4200       630
    54.4400       618
    54.4600       584
    54.4800       664
    54.5000       658
    54.5200       702
    54.5400       666
    54.5600       720
    54.5800       712
    54.6000       698
    54.6200       722
    54.6400       690
    54.6600       812
    54.6800       818
    54.7000       728
    54.7200       798
    54.7400       832
    54.7600       902
    54.7800       838
    54.8000       838
    54.8200       854
    54.8400       858
    54.8600       818
    54.8800       824
    54.9000       786
    54.9200       828
    54.9400       736
    54.9600       760
    54.9800       798
    55.0000       750
    55.0200       742
    55.0400       734
    55.0600       720
    55.0800       742
    55.1000       782
    55.1200       782
    55.1400       772
    55.1600       814
    55.1800       820
    55.2000       830
    55.2200       794
    55.2400       764
    55.2600       832
    55.2800       808
    55.3000       768
    55.3200       752
    55.3400       736
    55.3600       750
    55.3800       698
    55.4000       690
    55.4200       654
    55.4400       652
    55.4600       602
    55.4800       632
    55.5000       634
    55.5200       608
    55.5400       652
    55.5600       628
    55.5800       572
    55.6000       650
    55.6200       616
    55.6400       586
    55.6600       674
    55.6800       678
    55.7000       660
    55.7200       688
    55.7400       730
    55.7600       734
    55.7800       710
    55.8000       706
    55.8200       690
    55.8400       638
    55.8600       650
    55.8800       594
    55.9000       584
    55.9200       614
    55.9400       586
    55.9600       488
    55.9800       552
    56.0000       500
    56.0200       488
    56.0400       442
    56.0600       482
    56.0800       404
    56.1000       424
    56.1200       436
    56.1400       414
    56.1600       390
    56.1800       396
    56.2000       346
    56.2200       384
    56.2400       366
    56.2600       396
    56.2800       350
    56.3000       330
    56.3200       386
    56.3400       348
    56.3600       376
    56.3800       376
    56.4000       342
    56.4200       342
    56.4400       348
    56.4600       360
    56.4800       386
    56.5000       392
    56.5200       396
    56.5400       348
    56.5600       416
    56.5800       410
    56.6000       410
    56.6200       442
    56.6400       490
    56.6600       496
    56.6800       478
    56.7000       502
    56.7200       518
    56.7400       496
    56.7600       548
    56.7800       594
    56.8000       584
    56.8200       574
    56.8400       602
    56.8600       566
    56.8800       558
    56.9000       560
    56.9200       512
    56.9400       538
    56.9600       538
    56.9800       550
    57.0000       552
    57.0200       616
    57.0400       562
    57.0600       572
    57.0800       542
    57.1000       562
    57.1200       592
    57.1400       606
    57.1600       624
    57.1800       650
    57.2000       660
    57.2200       772
    57.2400       768
    57.2600       860
    57.2800       916
    57.3000      1014
    57.3200      1110
    57.3400      1210
    57.3600      1284
    57.3800      1350
    57.4000      1460
    57.4200      1414
    57.4400      1458
    57.4600      1486
    57.4800      1484
    57.5000      1480
    57.5200      1468
    57.5400      1452
    57.5600      1322
    57.5800      1304
    57.6000      1396
    57.6200      1330
    57.6400      1310
    57.6600      1344
    57.6800      1364
    57.7000      1312
    57.7200      1402
    57.7400      1332
    57.7600      1488
    57.7800      1504
    57.8000      1546
    57.8200      1366
    57.8400      1428
    57.8600      1454
    57.8800      1386
    57.9000      1336
    57.9200      1242
    57.9400      1202
    57.9600      1230
    57.9800      1094
    58.0000      1050
    58.0200      1052
    58.0400       938
    58.0600       956
    58.0800       918
    58.1000       838
    58.1200       794
    58.1400       836
    58.1600       762
    58.1800       780
    58.2000       840
    58.2200       860
    58.2400       858
    58.2600       954
    58.2800       886
    58.3000       958
    58.3200      1046
    58.3400       970
    58.3600      1128
    58.3800      1254
    58.4000      1234
    58.4200      1258
    58.4400      1426
    58.4600      1464
    58.4800      1518
    58.5000      1620
    58.5200      1718
    58.5400      1846
    58.5600      1914
    58.5800      1998
    58.6000      2106
    58.6200      2108
    58.6400      2266
    58.6600      2476
    58.6800      2450
    58.7000      2546
    58.7200      2676
    58.7400      2666
    58.7600      2812
    58.7800      2754
    58.8000      2710
    58.8200      2724
    58.8400      2688
    58.8600      2580
    58.8800      2488
    58.9000      2316
    58.9200      2318
    58.9400      2152
    58.9600      1938
    58.9800      1980
    59.0000      1764
    59.0200      1670
    59.0400      1584
    59.0600      1444
    59.0800      1324
    59.1000      1248
    59.1200      1160
    59.1400      1096
    59.1600      1034
    59.1800       988
    59.2000       950
    59.2200      1020
    59.2400       998
    59.2600      1030
    59.2800       994
    59.3000      1028
    59.3200      1074
    59.3400      1088
    59.3600      1178
    59.3800      1172
    59.4000      1182
    59.4200      1178
    59.4400      1306
    59.4600      1276
    59.4800      1274
    59.5000      1222
    59.5200      1230
    59.5400      1194
    59.5600      1236
    59.5800      1116
    59.6000      1112
    59.6200      1078
    59.6400      1050
    59.6600      1016
    59.6800       998
    59.7000       990
    59.7200       952
    59.7400       910
    59.7600       854
    59.7800       852
    59.8000       772
    59.8200       796
    59.8400       776
    59.8600       752
    59.8800       726
    59.9000       742
    59.9200       674
    59.9400       668
    59.9600       632
    59.9800       578
    60.0000       644
    60.0200       588
    60.0400       530
    60.0600       566
    60.0800       490
    60.1000       464
    60.1200       470
    60.1400       472
    60.1600       438
    60.1800       442
    60.2000       428
    60.2200       420
    60.2400       388
    60.2600       398
    60.2800       414
    60.3000       382
    60.3200       364
    60.3400       406
    60.3600       354
    60.3800       414
    60.4000       354
    60.4200       386
    60.4400       340
    60.4600       390
    60.4800       384
    60.5000       376
    60.5200       340
    60.5400       378
    60.5600       442
    60.5800       376
    60.6000       390
    60.6200       408
    60.6400       408
    60.6600       410
    60.6800       440
    60.7000       446
    60.7200       450
    60.7400       452
    60.7600       460
    60.7800       512
    60.8000       450
    60.8200       474
    60.8400       536
    60.8600       502
    60.8800       484
    60.9000       516
    60.9200       488
    60.9400       536
    60.9600       574
    60.9800       556
    61.0000       542
    61.0200       566
    61.0400       572
    61.0600       616
    61.0800       656
    61.1000       616
    61.1200       638
    61.1400       674
    61.1600       658
    61.1800       658
    61.2000       744
    61.2200       774
    61.2400       752
    61.2600       774
    61.2800       832
    61.3000       798
    61.3200       806
    61.3400       766
    61.3600       850
    61.3800       820
    61.4000       960
    61.4200       946
    61.4400       880
    61.4600       890
    61.4800       964
    61.5000      1002
    61.5200      1064
    61.5400      1022
    61.5600      1114
    61.5800      1084
    61.6000      1098
    61.6200      1112
    61.6400      1110
    61.6600      1074
    61.6800      1018
    61.7000       962
    61.7200       950
    61.7400       928
    61.7600       886
    61.7800       856
    61.8000       814
    61.8200       786
    61.8400       738
    61.8600       748
    61.8800       728
    61.9000       652
    61.9200       650
    61.9400       668
    61.9600       618
    61.9800       630
    62.0000       574
    62.0200       644
    62.0400       564
    62.0600       580
    62.0800       570
    62.1000       590
    62.1200       568
    62.1400       578
    62.1600       568
    62.1800       570
    62.2000       554
    62.2200       582
    62.2400       500
    62.2600       526
    62.2800       476
    62.3000       540
    62.3200       488
    62.3400       462
    62.3600       520
    62.3800       498
    62.4000       488
    62.4200       474
    62.4400       490
    62.4600       488
    62.4800       452
    62.5000       444
    62.5200       418
    62.5400       428
    62.5600       412
    62.5800       396
    62.6000       390
    62.6200       402
    62.6400       364
    62.6600       390
    62.6800       362
    62.7000       396
    62.7200       370
    62.7400       402
    62.7600       348
    62.7800       352
    62.8000       374
    62.8200       312
    62.8400       310
    62.8600       344
    62.8800       312
    62.9000       334
    62.9200       296
    62.9400       256
    62.9600       280
    62.9800       270
    63.0000       294
    63.0200       272
    63.0400       296
    63.0600       258
    63.0800       286
    63.1000       266
    63.1200       254
    63.1400       274
    63.1600       276
    63.1800       230
    63.2000       256
    63.2200       260
    63.2400       236
    63.2600       238
    63.2800       280
    63.3000       242
    63.3200       264
    63.3400       258
    63.3600       268
    63.3800       288
    63.4000       286
    63.4200       262
    63.4400       258
    63.4600       272
    63.4800       274
    63.5000       306
    63.5200       300
    63.5400       282
    63.5600       350
    63.5800       340
    63.6000       330
    63.6200       360
    63.6400       360
    63.6600       370
    63.6800       440
    63.7000       404
    63.7200       422
    63.7400       500
    63.7600       482
    63.7800       496
    63.8000       530
    63.8200       572
    63.8400       558
    63.8600       598
    63.8800       608
    63.9000       662
    63.9200       638
    63.9400       626
    63.9600       646
    63.9800       630
    64.0000       648
    64.0200       572
    64.0400       612
    64.0600       578
    64.0800       544
    64.1000       554
    64.1200       474
    64.1400       502
    64.1600       500
    64.1800       448
    64.2000       380
    64.2200       388
    64.2400       386
    64.2600       384
    64.2800       304
    64.3000       370
    64.3200       312
    64.3400       310
    64.3600       314
    64.3800       300
    64.4000       274
    64.4200       328
    64.4400       308
    64.4600       252
    64.4800       282
    64.5000       276
    64.5200       288
    64.5400       238
    64.5600       242
    64.5800       220
    64.6000       236
    64.6200       256
    64.6400       232
    64.6600       246
    64.6800       238
    64.7000       268
    64.7200       262
    64.7400       264
    64.7600       250
    64.7800       260
    64.8000       270
    64.8200       236
    64.8400       244
    64.8600       242
    64.8800       272
    64.9000       256
    64.9200       278
    64.9400       256
    64.9600       286
    64.9800       290
    65.0000       288
    65.0200       278
    65.0400       316
    65.0600       268
    65.0800       326
    65.1000       320
    65.1200       330
    65.1400       336
    65.1600       340
    65.1800       374
    65.2000       406
    65.2200       348
    65.2400       348
    65.2600       400
    65.2800       410
    65.3000       410
    65.3200       392
    65.3400       452
    65.3600       486
    65.3800       438
    65.4000       412
    65.4200       404
    65.4400       432
    65.4600       434
    65.4800       388
    65.5000       420
    65.5200       398
    65.5400       378
    65.5600       386
    65.5800       404
    65.6000       380
    65.6200       386
    65.6400       372
    65.6600       386
    65.6800       384
    65.7000       342
    65.7200       322
    65.7400       326
    65.7600       310
    65.7800       326
    65.8000       312
    65.8200       322
    65.8400       262
    65.8600       300
    65.8800       272
    65.9000       304
    65.9200       262
    65.9400       266
    65.9600       300
    65.9800       268
    66.0000       268
    66.0200       286
    66.0400       280
    66.0600       248
    66.0800       264
    66.1000       244
    66.1200       282
    66.1400       266
    66.1600       270
    66.1800       270
    66.2000       236
    66.2200       280
    66.2400       290
    66.2600       280
    66.2800       264
    66.3000       266
    66.3200       298
    66.3400       302
    66.3600       320
    66.3800       328
    66.4000       340
    66.4200       344
    66.4400       342
    66.4600       346
    66.4800       356
    66.5000       392
    66.5200       390
    66.5400       432
    66.5600       452
    66.5800       442
    66.6000       466
    66.6200       492
    66.6400       562
    66.6600       530
    66.6800       568
    66.7000       622
    66.7200       642
    66.7400       726
    66.7600       740
    66.7800       774
    66.8000       806
    66.8200       866
    66.8400       844
    66.8600       892
    66.8800       864
    66.9000       928
    66.9200       908
    66.9400       808
    66.9600       886
    66.9800       876
    67.0000       908
    67.0200       826
    67.0400       784
    67.0600       786
    67.0800       772
    67.1000       698
    67.1200       702
    67.1400       654
    67.1600       634
    67.1800       612
    67.2000       550
    67.2200       582
    67.2400       534
    67.2600       546
    67.2800       464
    67.3000       480
    67.3200       426
    67.3400       408
    67.3600       406
    67.3800       372
    67.4000       362
    67.4200       378
    67.4400       346
    67.4600       362
    67.4800       336
    67.5000       354
    67.5200       340
    67.5400       350
    67.5600       358
    67.5800       342
    67.6000       302
    67.6200       298
    67.6400       322
    67.6600       332
    67.6800       342
    67.7000       316
    67.7200       322
    67.7400       344
    67.7600       374
    67.7800       364
    67.8000       374
    67.8200       384
    67.8400       370
    67.8600       388
    67.8800       416
    67.9000       452
    67.9200       458
    67.9400       486
    67.9600       466
    67.9800       512
    68.0000       606
    68.0200       586
    68.0400       668
    68.0600       726
    68.0800       772
    68.1000       814
    68.1200       858
    68.1400       894
    68.1600       938
    68.1800       936
    68.2000      1068
    68.2200      1030
    68.2400      1078
    68.2600      1070
    68.2800      1032
    68.3000      1066
    68.3200      1096
    68.3400      1062
    68.3600      1040
    68.3800      1024
    68.4000       982
    68.4200       990
    68.4400       892
    68.4600       938
    68.4800       866
    68.5000       838
    68.5200       824
    68.5400       794
    68.5600       778
    68.5800       734
    68.6000       708
    68.6200       660
    68.6400       662
    68.6600       642
    68.6800       618
    68.7000       604
    68.7200       564
    68.7400       572
    68.7600       548
    68.7800       490
    68.8000       520
    68.8200       468
    68.8400       460
    68.8600       462
    68.8800       428
    68.9000       482
    68.9200       440
    68.9400       418
    68.9600       420
    68.9800       450
    69.0000       416
    69.0200       380
    69.0400       390
    69.0600       406
    69.0800       364
    69.1000       402
    69.1200       378
    69.1400       384
    69.1600       418
    69.1800       370
    69.2000       432
    69.2200       402
    69.2400       394
    69.2600       382
    69.2800       416
    69.3000       412
    69.3200       460
    69.3400       436
    69.3600       462
    69.3800       480
    69.4000       450
    69.4200       468
    69.4400       556
    69.4600       502
    69.4800       508
    69.5000       492
    69.5200       522
    69.5400       528
    69.5600       534
    69.5800       502
    69.6000       440
    69.6200       490
    69.6400       434
    69.6600       440
    69.6800       440
    69.7000       438
    69.7200       434
    69.7400       442
    69.7600       412
    69.7800       406
    69.8000       404
    69.8200       390
    69.8400       346
    69.8600       400
    69.8800       386
    69.9000       364
    69.9200       388
    69.9400       400
    69.9600       358
    69.9800       380
    70.0000       346
    70.0200       320
    70.0400       354
    70.0600       306
    70.0800       308
    70.1000       310
    70.1200       284
    70.1400       286
    70.1600       290
    70.1800       286
    70.2000       308
    70.2200       268
    70.2400       264
    70.2600       242
    70.2800       284
    70.3000       266
    70.3200       258
    70.3400       264
    70.3600       252
    70.3800       274
    70.4000       238
    70.4200       250
    70.4400       236
    70.4600       234
    70.4800       264
    70.5000       232
    70.5200       244
    70.5400       242
    70.5600       270
    70.5800       256
    70.6000       226
    70.6200       240
    70.6400       262
    70.6600       242
    70.6800       230
    70.7000       240
    70.7200       238
    70.7400       264
    70.7600       268
    70.7800       244
    70.8000       240
    70.8200       234
    70.8400       258
    70.8600       252
    70.8800       254
    70.9000       224
    70.9200       238
    70.9400       236
    70.9600       236
    70.9800       242
    71.0000       222
    71.0200       234
    71.0400       252
    71.0600       250
    71.0800       220
    71.1000       270
    71.1200       244
    71.1400       220
    71.1600       266
    71.1800       242
    71.2000       288
    71.2200       280
    71.2400       294
    71.2600       284
    71.2800       302
    71.3000       294
    71.3200       310
    71.3400       346
    71.3600       328
    71.3800       314
    71.4000       382
    71.4200       398
    71.4400       416
    71.4600       486
    71.4800       502
    71.5000       498
    71.5200       452
    71.5400       512
    71.5600       596
    71.5800       604
    71.6000       610
    71.6200       576
    71.6400       552
    71.6600       568
    71.6800       580
    71.7000       534
    71.7200       544
    71.7400       584
    71.7600       588
    71.7800       548
    71.8000       514
    71.8200       550
    71.8400       528
    71.8600       514
    71.8800       520
    71.9000       466
    71.9200       472
    71.9400       478
    71.9600       458
    71.9800       456
    72.0000       474
    72.0200       448
    72.0400       456
    72.0600       438
    72.0800       480
    72.1000       414
    72.1200       396
    72.1400       436
    72.1600       406
    72.1800       456
    72.2000       432
    72.2200       476
    72.2400       460
    72.2600       436
    72.2800       446
    72.3000       472
    72.3200       436
    72.3400       480
    72.3600       458
    72.3800       476
    72.4000       512
    72.4200       518
    72.4400       462
    72.4600       488
    72.4800       462
    72.5000       506
    72.5200       492
    72.5400       478
    72.5600       464
    72.5800       506
    72.6000       524
    72.6200       492
    72.6400       488
    72.6600       506
    72.6800       518
    72.7000       524
    72.7200       526
    72.7400       446
    72.7600       498
    72.7800       540
    72.8000       494
    72.8200       474
    72.8400       468
    72.8600       474
    72.8800       464
    72.9000       434
    72.9200       450
    72.9400       476
    72.9600       450
    72.9800       462
    73.0000       376
    73.0200       404
    73.0400       426
    73.0600       406
    73.0800       386
    73.1000       364
    73.1200       364
    73.1400       314
    73.1600       352
    73.1800       316
    73.2000       306
    73.2200       320
    73.2400       306
    73.2600       294
    73.2800       288
    73.3000       322
    73.3200       288
    73.3400       268
    73.3600       258
    73.3800       254
    73.4000       258
    73.4200       242
    73.4400       250
    73.4600       248
    73.4800       244
    73.5000       236
    73.5200       218
    73.5400       214
    73.5600       244
    73.5800       240
    73.6000       220
    73.6200       228
    73.6400       208
    73.6600       232
    73.6800       226
    73.7000       222
    73.7200       216
    73.7400       226
    73.7600       232
    73.7800       248
    73.8000       252
    73.8200       228
    73.8400       240
    73.8600       220
    73.8800       234
    73.9000       222
    73.9200       240
    73.9400       228
    73.9600       272
    73.9800       232
    74.0000       264
    74.0200       252
    74.0400       248
    74.0600       258
    74.0800       254
    74.1000       270
    74.1200       274
    74.1400       298
    74.1600       300
    74.1800       286
    74.2000       288
    74.2200       290
    74.2400       250
    74.2600       266
    74.2800       268
    74.3000       274
    74.3200       276
    74.3400       268
    74.3600       258
    74.3800       270
    74.4000       242
    74.4200       228
    74.4400       226
    74.4600       252
    74.4800       228
    74.5000       216
    74.5200       224
    74.5400       250
    74.5600       232
    74.5800       196
    74.6000       214
    74.6200       220
    74.6400       200
    74.6600       200
    74.6800       208
    74.7000       194
    74.7200       216
    74.7400       196
    74.7600       206
    74.7800       216
    74.8000       212
    74.8200       210
    74.8400       206
    74.8600       190
    74.8800       200
    74.9000       198
    74.9200       196
    74.9400       194
    74.9600       202
    74.9800       212
    75.0000       196
    75.0200       212
    75.0400       194
    75.0600       188
    75.0800       230
    75.1000       208
    75.1200       212
    75.1400       220
    75.1600       218
    75.1800       244
    75.2000       222
    75.2200       212
    75.2400       224
    75.2600       232
    75.2800       230
    75.3000       250
    75.3200       230
    75.3400       248
    75.3600       232
    75.3800       236
    75.4000       258
    75.4200       256
    75.4400       260
    75.4600       236
    75.4800       244
    75.5000       246
    75.5200       250
    75.5400       262
    75.5600       246
    75.5800       282
    75.6000       282
    75.6200       274
    75.6400       316
    75.6600       296
    75.6800       322
    75.7000       304
    75.7200       304
    75.7400       310
    75.7600       286
    75.7800       336
    75.8000       348
    75.8200       358
    75.8400       296
    75.8600       320
    75.8800       328
    75.9000       338
    75.9200       344
    75.9400       366
    75.9600       318
    75.9800       326
    76.0000       332
    76.0200       346
    76.0400       330
    76.0600       312
    76.0800       346
    76.1000       310
    76.1200       320
    76.1400       330
    76.1600       324
    76.1800       316
    76.2000       314
    76.2200       314
    76.2400       332
    76.2600       348
    76.2800       342
    76.3000       316
    76.3200       312
    76.3400       340
    76.3600       336
    76.3800       320
    76.4000       334
    76.4200       342
    76.4400       366
    76.4600       360
    76.4800       336
    76.5000       348
    76.5200       358
    76.5400       368
    76.5600       366
    76.5800       414
    76.6000       384
    76.6200       392
    76.6400       420
    76.6600       416
    76.6800       420
    76.7000       386
    76.7200       396
    76.7400       420
    76.7600       394
    76.7800       396
    76.8000       380
    76.8200       390
    76.8400       426
    76.8600       364
    76.8800       350
    76.9000       352
    76.9200       372
    76.9400       358
    76.9600       380
    76.9800       350
    77.0000       354
    77.0200       360
    77.0400       342
    77.0600       344
    77.0800       336
    77.1000       362
    77.1200       370
    77.1400       326
    77.1600       318
    77.1800       350
    77.2000       344
    77.2200       348
    77.2400       340
    77.2600       398
    77.2800       376
    77.3000       368
    77.3200       390
    77.3400       412
    77.3600       356
    77.3800       376
    77.4000       416
    77.4200       422
    77.4400       450
    77.4600       444
    77.4800       460
    77.5000       486
    77.5200       524
    77.5400       550
    77.5600       584
    77.5800       558
    77.6000       688
    77.6200       606
    77.6400       686
    77.6600       668
    77.6800       698
    77.7000       636
    77.7200       700
    77.7400       716
    77.7600       732
    77.7800       702
    77.8000       714
    77.8200       690
    77.8400       706
    77.8600       638
    77.8800       678
    77.9000       714
    77.9200       698
    77.9400       682
    77.9600       642
    77.9800       612
    78.0000       536
    78.0200       540
    78.0400       536
    78.0600       554
    78.0800       530
    78.1000       440
    78.1200       442
    78.1400       466
    78.1600       430
    78.1800       446
    78.2000       412
    78.2200       442
    78.2400       430
    78.2600       384
    78.2800       374
    78.3000       342
    78.3200       360
    78.3400       364
    78.3600       366
    78.3800       412
    78.4000       372
    78.4200       336
    78.4400       340
    78.4600       362
    78.4800       388
    78.5000       354
    78.5200       366
    78.5400       352
    78.5600       390
    78.5800       394
    78.6000       406
    78.6200       406
    78.6400       344
    78.6600       412
    78.6800       410
    78.7000       398
    78.7200       406
    78.7400       390
    78.7600       440
    78.7800       422
    78.8000       384
    78.8200       390
    78.8400       394
    78.8600       400
    78.8800       386
    78.9000       352
    78.9200       340
    78.9400       398
    78.9600       362
    78.9800       342
    79.0000       344
    79.0200       368
    79.0400       348
    79.0600       310
    79.0800       320
    79.1000       302
    79.1200       284
    79.1400       324
    79.1600       324
    79.1800       314
    79.2000       310
    79.2200       288
    79.2400       298
    79.2600       302
    79.2800       284
    79.3000       262
    79.3200       280
    79.3400       252
    79.3600       278
    79.3800       238
    79.4000       266
    79.4200       242
    79.4400       248
    79.4600       256
    79.4800       248
    79.5000       258
    79.5200       258
    79.5400       244
    79.5600       284
    79.5800       284
    79.6000       256
    79.6200       280
    79.6400       254
    79.6600       246
    79.6800       244
    79.7000       220
    79.7200       256
    79.7400       256
    79.7600       276
    79.7800       258
    79.8000       262
    79.8200       248
    79.8400       242
    79.8600       234
    79.8800       260
    79.9000       264
    79.9200       272
    79.9400       238
    79.9600       276
    79.9800       240
    80.0000       254
    80.0200       230
    80.0400       238
    80.0600       246
    80.0800       242
    80.1000       226
    80.1200       266
    80.1400       276
    80.1600       210
    80.1800       222
    80.2000       244
    80.2200       220
    80.2400       236
    80.2600       236
    80.2800       256
    80.3000       232
    80.3200       254
    80.3400       228
    80.3600       258
    80.3800       240
    80.4000       250
    80.4200       254
    80.4400       236
    80.4600       286
    80.4800       278
    80.5000       222
    80.5200       246
    80.5400       298
    80.5600       268
    80.5800       242
    80.6000       266
    80.6200       240
    80.6400       264
    80.6600       222
    80.6800       256
    80.7000       260
    80.7200       238
    80.7400       252
    80.7600       232
    80.7800       220
    80.8000       244
    80.8200       218
    80.8400       234
    80.8600       254
    80.8800       220
    80.9000       218
    80.9200       204
    80.9400       200
    80.9600       240
    80.9800       224
    81.0000       220
    81.0200       204
    81.0400       246
    81.0600       220
    81.0800       212
    81.1000       220
    81.1200       188
    81.1400       230
    81.1600       226
    81.1800       172
    81.2000       222
    81.2200       218
    81.2400       264
    81.2600       238
    81.2800       232
    81.3000       238
    81.3200       222
    81.3400       240
    81.3600       216
    81.3800       274
    81.4000       254
    81.4200       270
    81.4400       244
    81.4600       268
    81.4800       232
    81.5000       280
    81.5200       254
    81.5400       250
    81.5600       254
    81.5800       262
    81.6000       284
    81.6200       270
    81.6400       252
    81.6600       272
    81.6800       238
    81.7000       274
    81.7200       266
    81.7400       274
    81.7600       284
    81.7800       288
    81.8000       266
    81.8200       298
    81.8400       262
    81.8600       292
    81.8800       288
    81.9000       288
    81.9200       282
    81.9400       294
    81.9600       282
    81.9800       292
    82.0000       316
    82.0200       304
    82.0400       286
    82.0600       292
    82.0800       300
    82.1000       312
    82.1200       316
    82.1400       346
    82.1600       324
    82.1800       322
    82.2000       354
    82.2200       320
    82.2400       334
    82.2600       376
    82.2800       342
    82.3000       358
    82.3200       352
    82.3400       358
    82.3600       354
    82.3800       376
    82.4000       346
    82.4200       378
    82.4400       394
    82.4600       370
    82.4800       364
    82.5000       388
    82.5200       428
    82.5400       410
    82.5600       396
    82.5800       440
    82.6000       418
    82.6200       438
    82.6400       458
    82.6600       446
    82.6800       490
    82.7000       490
    82.7200       520
    82.7400       474
    82.7600       536
    82.7800       530
    82.8000       588
    82.8200       546
    82.8400       570
    82.8600       632
    82.8800       606
    82.9000       588
    82.9200       610
    82.9400       610
    82.9600       654
    82.9800       578
    83.0000       572
    83.0200       564
    83.0400       582
    83.0600       508
    83.0800       578
    83.1000       554
    83.1200       524
    83.1400       504
    83.1600       514
    83.1800       534
    83.2000       508
    83.2200       530
    83.2400       498
    83.2600       464
    83.2800       476
    83.3000       460
    83.3200       416
    83.3400       440
    83.3600       442
    83.3800       410
    83.4000       408
    83.4200       408
    83.4400       418
    83.4600       402
    83.4800       386
    83.5000       356
    83.5200       420
    83.5400       368
    83.5600       374
    83.5800       346
    83.6000       386
    83.6200       334
    83.6400       352
    83.6600       310
    83.6800       332
    83.7000       320
    83.7200       300
    83.7400       344
    83.7600       322
    83.7800       274
    83.8000       318
    83.8200       312
    83.8400       300
    83.8600       300
    83.8800       322
    83.9000       298
    83.9200       296
    83.9400       308
    83.9600       286
    83.9800       308
    84.0000       288
    84.0200       320
    84.0400       276
    84.0600       294
    84.0800       342
    84.1000       288
    84.1200       310
    84.1400       282
    84.1600       302
    84.1800       310
    84.2000       306
    84.2200       324
    84.2400       320
    84.2600       304
    84.2800       280
    84.3000       292
    84.3200       292
    84.3400       298
    84.3600       294
    84.3800       314
    84.4000       272
    84.4200       288
    84.4400       282
    84.4600       294
    84.4800       312
    84.5000       280
    84.5200       294
    84.5400       276
    84.5600       274
    84.5800       270
    84.6000       266
    84.6200       308
    84.6400       308
    84.6600       294
    84.6800       288
    84.7000       256
    84.7200       254
    84.7400       286
    84.7600       310
    84.7800       278
    84.8000       280
    84.8200       288
    84.8400       266
    84.8600       260
    84.8800       270
    84.9000       258
    84.9200       256
    84.9400       266
    84.9600       276
    84.9800       240
    85.0000       274
    85.0200       254
    85.0400       228
    85.0600       252
    85.0800       262
    85.1000       236
    85.1200       232
    85.1400       244
    85.1600       238
    85.1800       258
    85.2000       266
    85.2200       266
    85.2400       240
    85.2600       226
    85.2800       236
    85.3000       262
    85.3200       258
    85.3400       274
    85.3600       256
    85.3800       268
    85.4000       252
    85.4200       238
    85.4400       254
    85.4600       256
    85.4800       236
    85.5000       248
    85.5200       288
    85.5400       248
    85.5600       262
    85.5800       262
    85.6000       274
    85.6200       260
    85.6400       288
    85.6600       266
    85.6800       280
    85.7000       296
    85.7200       262
    85.7400       284
    85.7600       282
    85.7800       250
    85.8000       282
    85.8200       282
    85.8400       272
    85.8600       264
    85.8800       284
    85.9000       236
    85.9200       272
    85.9400       252
    85.9600       234
    85.9800       250
    86.0000       250
    86.0200       254
    86.0400       238
    86.0600       258
    86.0800       218
    86.1000       260
    86.1200       224
    86.1400       204
    86.1600       258
    86.1800       262
    86.2000       236
    86.2200       228
    86.2400       214
    86.2600       262
    86.2800       236
    86.3000       200
    86.3200       192
    86.3400       250
    86.3600       230
    86.3800       246
    86.4000       212
    86.4200       232
    86.4400       274
    86.4600       268
    86.4800       236
    86.5000       228
    86.5200       252
    86.5400       222
    86.5600       270
    86.5800       268
    86.6000       290
    86.6200       242
    86.6400       272
    86.6600       252
    86.6800       268
    86.7000       314
    86.7200       280
    86.7400       310
    86.7600       322
    86.7800       310
    86.8000       294
    86.8200       328
    86.8400       348
    86.8600       352
    86.8800       346
    86.9000       380
    86.9200       384
    86.9400       336
    86.9600       368
    86.9800       410
    87.0000       428
    87.0200       404
    87.0400       400
    87.0600       434
    87.0800       396
    87.1000       430
    87.1200       370
    87.1400       412
    87.1600       420
    87.1800       406
    87.2000       404
    87.2200       420
    87.2400       452
    87.2600       426
    87.2800       448
    87.3000       448
    87.3200       428
    87.3400       440
    87.3600       434
    87.3800       426
    87.4000       418
    87.4200       448
    87.4400       434
    87.4600       418
    87.4800       478
    87.5000       424
    87.5200       418
    87.5400       430
    87.5600       432
    87.5800       404
    87.6000       452
    87.6200       414
    87.6400       420
    87.6600       458
    87.6800       450
    87.7000       416
    87.7200       436
    87.7400       434
    87.7600       430
    87.7800       418
    87.8000       456
    87.8200       446
    87.8400       456
    87.8600       430
    87.8800       480
    87.9000       446
    87.9200       424
    87.9400       454
    87.9600       450
    87.9800       392
    88.0000       392
    88.0200       428
    88.0400       392
    88.0600       402
    88.0800       408
    88.1000       362
    88.1200       402
    88.1400       418
    88.1600       376
    88.1800       380
    88.2000       384
    88.2200       372
    88.2400       378
    88.2600       386
    88.2800       368
    88.3000       404
    88.3200       370
    88.3400       350
    88.3600       328
    88.3800       362
    88.4000       370
    88.4200       396
    88.4400       322
    88.4600       348
    88.4800       346
    88.5000       334
    88.5200       298
    88.5400       332
    88.5600       352
    88.5800       348
    88.6000       336
    88.6200       304
    88.6400       324
    88.6600       318
    88.6800       364
    88.7000       312
    88.7200       320
    88.7400       276
    88.7600       332
    88.7800       312
    88.8000       306
    88.8200       318
    88.8400       284
    88.8600       274
    88.8800       280
    88.9000       298
    88.9200       240
    88.9400       246
    88.9600       298
    88.9800       290
    89.0000       276
    89.0200       262
    89.0400       276
    89.0600       256
    89.0800       254
    89.1000       260
    89.1200       264
    89.1400       244
    89.1600       246
    89.1800       246
    89.2000       268
    89.2200       198
    89.2400       250
    89.2600       222
    89.2800       218
    89.3000       216
    89.3200       246
    89.3400       244
    89.3600       230
    89.3800       266
    89.4000       238
    89.4200       244
    89.4400       240
    89.4600       234
    89.4800       244
    89.5000       282
    89.5200       282
    89.5400       256
    89.5600       268
    89.5800       272
    89.6000       246
    89.6200       270
    89.6400       216
    89.6600       242
    89.6800       244
    89.7000       280
    89.7200       266
    89.7400       256
    89.7600       264
    89.7800       278
    89.8000       230
    89.8200       276
    89.8400       274
    89.8600       294
    89.8800       256
    89.9000       286
    89.9200       256
    89.9400       262
    89.9600       282
    89.9800       276
    90.0000       304
