    10.0000       404
    10.0200       366
    10.0400       388
    10.0600       374
    10.0800       396
    10.1000       368
    10.1200       372
    10.1400       374
    10.1600       376
    10.1800       364
    10.2000       334
    10.2200       360
    10.2400       338
    10.2600       360
    10.2800       338
    10.3000       354
    10.3200       348
    10.3400       324
    10.3600       368
    10.3800       356
    10.4000       342
    10.4200       342
    10.4400       312
    10.4600       346
    10.4800       342
    10.5000       342
    10.5200       350
    10.5400       352
    10.5600       388
    10.5800       328
    10.6000       364
    10.6200       326
    10.6400       356
    10.6600       332
    10.6800       352
    10.7000       308
    10.7200       318
    10.7400       338
    10.7600       362
    10.7800       316
    10.8000       308
    10.8200       342
    10.8400       342
    10.8600       288
    10.8800       306
    10.9000       318
    10.9200       348
    10.9400       340
    10.9600       340
    10.9800       312
    11.0000       336
    11.0200       330
    11.0400       320
    11.0600       334
    11.0800       358
    11.1000       340
    11.1200       324
    11.1400       320
    11.1600       370
    11.1800       318
    11.2000       350
    11.2200       306
    11.2400       322
    11.2600       346
    11.2800       314
    11.3000       348
    11.3200       328
    11.3400       322
    11.3600       354
    11.3800       336
    11.4000       334
    11.4200       352
    11.4400       324
    11.4600       292
    11.4800       308
    11.5000       324
    11.5200       342
    11.5400       284
    11.5600       304
    11.5800       296
    11.6000       340
    11.6200       330
    11.6400       330
    11.6600       326
    11.6800       304
    11.7000       316
    11.7200       304
    11.7400       314
    11.7600       328
    11.7800       302
    11.8000       318
    11.8200       282
    11.8400       322
    11.8600       294
    11.8800       288
    11.9000       334
    11.9200       292
    11.9400       318
    11.9600       320
    11.9800       290
    12.0000       310
    12.0200       336
    12.0400       260
    12.0600       312
    12.0800       288
    12.1000       304
    12.1200       322
    12.1400       304
    12.1600       294
    12.1800       292
    12.2000       284
    12.2200       344
    12.2400       320
    12.2600       302
    12.2800       294
    12.3000       300
    12.3200       280
    12.3400       294
    12.3600       306
    12.3800       288
    12.4000       310
    12.4200       288
    12.4400       290
    12.4600       318
    12.4800       296
    12.5000       306
    12.5200       254
    12.5400       312
    12.5600       282
    12.5800       298
    12.6000       316
    12.6200       302
    12.6400       326
    12.6600       246
    12.6800       284
    12.7000       306
    12.7200       304
    12.7400       304
    12.7600       244
    12.7800       288
    12.8000       262
    12.8200       266
    12.8400       280
    12.8600       278
    12.8800       286
    12.9000       264
    12.9200       304
    12.9400       268
    12.9600       242
    12.9800       278
    13.0000       246
    13.0200       274
    13.0400       276
    13.0600       330
    13.0800       260
    13.1000       252
    13.1200       266
    13.1400       288
    13.1600       264
    13.1800       304
    13.2000       250
    13.2200       282
    13.2400       262
    13.2600       294
    13.2800       304
    13.3000       274
    13.3200       288
    13.3400       290
    13.3600       256
    13.3800       268
    13.4000       274
    13.4200       280
    13.4400       262
    13.4600       270
    13.4800       246
    13.5000       250
    13.5200       282
    13.5400       270
    13.5600       240
    13.5800       258
    13.6000       248
    13.6200       304
    13.6400       278
    13.6600       252
    13.6800       272
    13.7000       256
    13.7200       270
    13.7400       240
    13.7600       262
    13.7800       258
    13.8000       280
    13.8200       236
    13.8400       258
    13.8600       262
    13.8800       250
    13.9000       280
    13.9200       280
    13.9400       254
    13.9600       254
    13.9800       248
    14.0000       228
    14.0200       212
    14.0400       240
    14.0600       252
    14.0800       238
    14.1000       258
    14.1200       264
    14.1400       268
    14.1600       246
    14.1800       238
    14.2000       274
    14.2200       248
    14.2400       248
    14.2600       202
    14.2800       296
    14.3000       266
    14.3200       264
    14.3400       286
    14.3600       238
    14.3800       252
    14.4000       264
    14.4200       264
    14.4400       244
    14.4600       256
    14.4800       274
    14.5000       268
    14.5200       224
    14.5400       226
    14.5600       240
    14.5800       250
    14.6000       240
    14.6200       256
    14.6400       238
    14.6600       228
    14.6800       212
    14.7000       274
    14.7200       248
    14.7400       236
    14.7600       270
    14.7800       274
    14.8000       230
    14.8200       246
    14.8400       222
    14.8600       224
    14.8800       262
    14.9000       240
    14.9200       256
    14.9400       244
    14.9600       224
    14.9800       224
    15.0000       262
    15.0200       252
    15.0400       222
    15.0600       302
    15.0800       266
    15.1000       244
    15.1200       262
    15.1400       258
    15.1600       232
    15.1800       280
    15.2000       248
    15.2200       258
    15.2400       238
    15.2600       242
    15.2800       258
    15.3000       258
    15.3200       282
    15.3400       238
    15.3600       244
    15.3800       248
    15.4000       244
    15.4200       252
    15.4400       248
    15.4600       250
    15.4800       216
    15.5000       250
    15.5200       226
    15.5400       246
    15.5600       244
    15.5800       228
    15.6000       232
    15.6200       252
    15.6400       266
    15.6600       226
    15.6800       244
    15.7000       266
    15.7200       252
    15.7400       238
    15.7600       228
    15.7800       220
    15.8000       256
    15.8200       236
    15.8400       212
    15.8600       216
    15.8800       232
    15.9000       238
    15.9200       218
    15.9400       248
    15.9600       194
    15.9800       230
    16.0000       238
    16.0200       208
    16.0400       222
    16.0600       264
    16.0800       224
    16.1000       246
    16.1200       258
    16.1400       224
    16.1600       234
    16.1800       238
    16.2000       230
    16.2200       220
    16.2400       232
    16.2600       230
    16.2800       246
    16.3000       226
    16.3200       214
    16.3400       210
    16.3600       236
    16.3800       236
    16.4000       218
    16.4200       240
    16.4400       240
    16.4600       234
    16.4800       202
    16.5000       230
    16.5200       256
    16.5400       222
    16.5600       212
    16.5800       232
    16.6000       240
    16.6200       212
    16.6400       258
    16.6600       212
    16.6800       220
    16.7000       252
    16.7200       216
    16.7400       230
    16.7600       218
    16.7800       198
    16.8000       222
    16.8200       232
    16.8400       204
    16.8600       232
    16.8800       238
    16.9000       214
    16.9200       216
    16.9400       228
    16.9600       224
    16.9800       218
    17.0000       268
    17.0200       228
    17.0400       250
    17.0600       246
    17.0800       232
    17.1000       244
    17.1200       228
    17.1400       254
    17.1600       242
    17.1800       234
    17.2000       224
    17.2200       262
    17.2400       256
    17.2600       234
    17.2800       228
    17.3000       228
    17.3200       228
    17.3400       234
    17.3600       238
    17.3800       244
    17.4000       220
    17.4200       250
    17.4400       236
    17.4600       234
    17.4800       222
    17.5000       212
    17.5200       262
    17.5400       186
    17.5600       244
    17.5800       224
    17.6000       206
    17.6200       228
    17.6400       218
    17.6600       226
    17.6800       252
    17.7000       224
    17.7200       230
    17.7400       224
    17.7600       218
    17.7800       234
    17.8000       224
    17.8200       216
    17.8400       212
    17.8600       216
    17.8800       212
    17.9000       226
    17.9200       186
    17.9400       220
    17.9600       218
    17.9800       232
    18.0000       214
    18.0200       222
    18.0400       228
    18.0600       216
    18.0800       216
    18.1000       228
    18.1200       210
    18.1400       228
    18.1600       214
    18.1800       204
    18.2000       216
    18.2200       210
    18.2400       208
    18.2600       204
    18.2800       230
    18.3000       234
    18.3200       230
    18.3400       228
    18.3600       218
    18.3800       224
    18.4000       216
    18.4200       236
    18.4400       238
    18.4600       214
    18.4800       250
    18.5000       220
    18.5200       246
    18.5400       248
    18.5600       192
    18.5800       210
    18.6000       232
    18.6200       242
    18.6400       242
    18.6600       246
    18.6800       250
    18.7000       246
    18.7200       266
    18.7400       254
    18.7600       248
    18.7800       288
    18.8000       260
    18.8200       282
    18.8400       254
    18.8600       236
    18.8800       244
    18.9000       306
    18.9200       304
    18.9400       336
    18.9600       304
    18.9800       344
    19.0000       316
    19.0200       352
    19.0400       344
    19.0600       360
    19.0800       398
    19.1000       422
    19.1200       416
    19.1400       442
    19.1600       466
    19.1800       522
    19.2000       590
    19.2200       652
    19.2400       696
    19.2600       828
    19.2800       840
    19.3000       986
    19.3200      1096
    19.3400      1202
    19.3600      1436
    19.3800      1616
    19.4000      1896
    19.4200      2244
    19.4400      2630
    19.4600      2936
    19.4800      3348
    19.5000      3832
    19.5200      4250
    19.5400      4514
    19.5600      4672
    19.5800      4442
    19.6000      4044
    19.6200      3482
    19.6400      2850
    19.6600      2276
    19.6800      1920
    19.7000      1658
    19.7200      1430
    19.7400      1460
    19.7600      1422
    19.7800      1484
    19.8000      1592
    19.8200      1744
    19.8400      1956
    19.8600      2112
    19.8800      2326
    19.9000      2630
    19.9200      2910
    19.9400      3178
    19.9600      3522
    19.9800      3554
    20.0000      3644
    20.0200      3602
    20.0400      3354
    20.0600      2844
    20.0800      2340
    20.1000      1908
    20.1200      1552
    20.1400      1198
    20.1600       998
    20.1800       832
    20.2000       796
    20.2200       648
    20.2400       646
    20.2600       594
    20.2800       560
    20.3000       476
    20.3200       504
    20.3400       492
    20.3600       486
    20.3800       474
    20.4000       402
    20.4200       390
    20.4400       370
    20.4600       326
    20.4800       322
    20.5000       336
    20.5200       312
    20.5400       284
    20.5600       278
    20.5800       268
    20.6000       274
    20.6200       272
    20.6400       260
    20.6600       274
    20.6800       222
    20.7000       274
    20.7200       256
    20.7400       252
    20.7600       232
    20.7800       252
    20.8000       252
    20.8200       252
    20.8400       240
    20.8600       230
    20.8800       254
    20.9000       254
    20.9200       240
    20.9400       224
    20.9600       254
    20.9800       242
    21.0000       264
    21.0200       284
    21.0400       270
    21.0600       246
    21.0800       256
    21.1000       236
    21.1200       260
    21.1400       268
    21.1600       274
    21.1800       258
    21.2000       250
    21.2200       266
    21.2400       250
    21.2600       278
    21.2800       250
    21.3000       268
    21.3200       242
    21.3400       248
    21.3600       202
    21.3800       208
    21.4000       220
    21.4200       232
    21.4400       210
    21.4600       226
    21.4800       212
    21.5000       212
    21.5200       254
    21.5400       202
    21.5600       212
    21.5800       222
    21.6000       232
    21.6200       206
    21.6400       196
    21.6600       220
    21.6800       184
    21.7000       212
    21.7200       224
    21.7400       242
    21.7600       186
    21.7800       202
    21.8000       232
    21.8200       244
    21.8400       202
    21.8600       210
    21.8800       206
    21.9000       202
    21.9200       198
    21.9400       216
    21.9600       224
    21.9800       246
    22.0000       210
    22.0200       218
    22.0400       244
    22.0600       220
    22.0800       192
    22.1000       240
    22.1200       256
    22.1400       268
    22.1600       254
    22.1800       254
    22.2000       270
    22.2200       276
    22.2400       264
    22.2600       290
    22.2800       302
    22.3000       264
    22.3200       314
    22.3400       306
    22.3600       330
    22.3800       358
    22.4000       400
    22.4200       392
    22.4400       436
    22.4600       432
    22.4800       508
    22.5000       518
    22.5200       636
    22.5400       734
    22.5600       812
    22.5800       916
    22.6000      1016
    22.6200      1192
    22.6400      1350
    22.6600      1562
    22.6800      1844
    22.7000      2060
    22.7200      2558
    22.7400      2962
    22.7600      3300
    22.7800      4080
    22.8000      4616
    22.8200      5152
    22.8400      5864
    22.8600      6248
    22.8800      6502
    22.9000      6230
    22.9200      5440
    22.9400      4690
    22.9600      3692
    22.9800      3084
    23.0000      2364
    23.0200      1854
    23.0400      1460
    23.0600      1256
    23.0800      1054
    23.1000       980
    23.1200       908
    23.1400       798
    23.1600       678
    23.1800       666
    23.2000       632
    23.2200       580
    23.2400       526
    23.2600       494
    23.2800       452
    23.3000       418
    23.3200       418
    23.3400       402
    23.3600       370
    23.3800       370
    23.4000       366
    23.4200       306
    23.4400       294
    23.4600       318
    23.4800       322
    23.5000       326
    23.5200       246
    23.5400       286
    23.5600       292
    23.5800       288
    23.6000       274
    23.6200       264
    23.6400       286
    23.6600       248
    23.6800       284
    23.7000       270
    23.7200       284
    23.7400       278
    23.7600       304
    23.7800       268
    23.8000       274
    23.8200       268
    23.8400       266
    23.8600       284
    23.8800       292
    23.9000       306
    23.9200       274
    23.9400       282
    23.9600       306
    23.9800       274
    24.0000       294
    24.0200       290
    24.0400       294
    24.0600       342
    24.0800       310
    24.1000       304
    24.1200       324
    24.1400       292
    24.1600       298
    24.1800       284
    24.2000       284
    24.2200       302
    24.2400       354
    24.2600       316
    24.2800       316
    24.3000       338
    24.3200       382
    24.3400       390
    24.3600       448
    24.3800       446
    24.4000       488
    24.4200       536
    24.4400       516
    24.4600       544
    24.4800       518
    24.5000       576
    24.5200       560
    24.5400       550
    24.5600       518
    24.5800       538
    24.6000       504
    24.6200       460
    24.6400       436
    24.6600       474
    24.6800       424
    24.7000       376
    24.7200       380
    24.7400       354
    24.7600       344
    24.7800       358
    24.8000       314
    24.8200       288
    24.8400       286
    24.8600       284
    24.8800       246
    24.9000       264
    24.9200       260
    24.9400       256
    24.9600       242
    24.9800       240
    25.0000       278
    25.0200       234
    25.0400       242
    25.0600       234
    25.0800       248
    25.1000       256
    25.1200       250
    25.1400       296
    25.1600       276
    25.1800       278
    25.2000       280
    25.2200       294
    25.2400       342
    25.2600       302
    25.2800       330
    25.3000       342
    25.3200       390
    25.3400       396
    25.3600       404
    25.3800       440
    25.4000       496
    25.4200       592
    25.4400       606
    25.4600       708
    25.4800       778
    25.5000       880
    25.5200       952
    25.5400      1126
    25.5600      1252
    25.5800      1320
    25.6000      1366
    25.6200      1370
    25.6400      1372
    25.6600      1300
    25.6800      1066
    25.7000       996
    25.7200       814
    25.7400       700
    25.7600       590
    25.7800       514
    25.8000       458
    25.8200       386
    25.8400       384
    25.8600       364
    25.8800       306
    25.9000       298
    25.9200       340
    25.9400       312
    25.9600       330
    25.9800       272
    26.0000       316
    26.0200       264
    26.0400       306
    26.0600       304
    26.0800       270
    26.1000       320
    26.1200       306
    26.1400       320
    26.1600       320
    26.1800       346
    26.2000       342
    26.2200       358
    26.2400       364
    26.2600       404
    26.2800       452
    26.3000       490
    26.3200       450
    26.3400       530
    26.3600       494
    26.3800       574
    26.4000       548
    26.4200       616
    26.4400       664
    26.4600       680
    26.4800       712
    26.5000       786
    26.5200       754
    26.5400       810
    26.5600       834
    26.5800       934
    26.6000       918
    26.6200       932
    26.6400       942
    26.6600       862
    26.6800       898
    26.7000       822
    26.7200       752
    26.7400       704
    26.7600       654
    26.7800       584
    26.8000       548
    26.8200       482
    26.8400       426
    26.8600       418
    26.8800       380
    26.9000       368
    26.9200       336
    26.9400       338
    26.9600       358
    26.9800       326
    27.0000       290
    27.0200       316
    27.0400       280
    27.0600       284
    27.0800       312
    27.1000       280
    27.1200       296
    27.1400       308
    27.1600       306
    27.1800       296
    27.2000       252
    27.2200       274
    27.2400       260
    27.2600       260
    27.2800       270
    27.3000       264
    27.3200       258
    27.3400       254
    27.3600       260
    27.3800       236
    27.4000       260
    27.4200       254
    27.4400       250
    27.4600       260
    27.4800       242
    27.5000       278
    27.5200       248
    27.5400       252
    27.5600       256
    27.5800       252
    27.6000       252
    27.6200       258
    27.6400       260
    27.6600       266
    27.6800       254
    27.7000       240
    27.7200       264
    27.7400       260
    27.7600       262
    27.7800       278
    27.8000       286
    27.8200       282
    27.8400       276
    27.8600       316
    27.8800       350
    27.9000       328
    27.9200       390
    27.9400       404
    27.9600       436
    27.9800       490
    28.0000       466
    28.0200       532
    28.0400       578
    28.0600       654
    28.0800       742
    28.1000       778
    28.1200       842
    28.1400      1018
    28.1600      1130
    28.1800      1276
    28.2000      1374
    28.2200      1540
    28.2400      1632
    28.2600      1660
    28.2800      1752
    28.3000      1644
    28.3200      1518
    28.3400      1384
    28.3600      1220
    28.3800      1018
    28.4000       874
    28.4200       742
    28.4400       642
    28.4600       596
    28.4800       462
    28.5000       408
    28.5200       390
    28.5400       400
    28.5600       372
    28.5800       368
    28.6000       300
    28.6200       268
    28.6400       314
    28.6600       274
    28.6800       250
    28.7000       258
    28.7200       272
    28.7400       236
    28.7600       268
    28.7800       234
    28.8000       246
    28.8200       248
    28.8400       208
    28.8600       232
    28.8800       210
    28.9000       208
    28.9200       230
    28.9400       240
    28.9600       240
    28.9800       226
    29.0000       200
    29.0200       194
    29.0400       210
    29.0600       230
    29.0800       226
    29.1000       204
    29.1200       200
    29.1400       232
    29.1600       214
    29.1800       234
    29.2000       216
    29.2200       210
    29.2400       202
    29.2600       212
    29.2800       238
    29.3000       230
    29.3200       232
    29.3400       218
    29.3600       214
    29.3800       244
    29.4000       236
    29.4200       240
    29.4400       216
    29.4600       240
    29.4800       246
    29.5000       248
    29.5200       250
    29.5400       212
    29.5600       240
    29.5800       234
    29.6000       264
    29.6200       242
    29.6400       232
    29.6600       272
    29.6800       232
    29.7000       248
    29.7200       268
    29.7400       236
    29.7600       246
    29.7800       230
    29.8000       226
    29.8200       210
    29.8400       224
    29.8600       226
    29.8800       272
    29.9000       234
    29.9200       214
    29.9400       262
    29.9600       262
    29.9800       258
    30.0000       258
    30.0200       262
    30.0400       272
    30.0600       270
    30.0800       260
    30.1000       220
    30.1200       276
    30.1400       240
    30.1600       250
    30.1800       292
    30.2000       294
    30.2200       288
    30.2400       278
    30.2600       256
    30.2800       282
    30.3000       286
    30.3200       256
    30.3400       296
    30.3600       264
    30.3800       282
    30.4000       272
    30.4200       274
    30.4400       272
    30.4600       268
    30.4800       272
    30.5000       328
    30.5200       312
    30.5400       298
    30.5600       300
    30.5800       330
    30.6000       380
    30.6200       346
    30.6400       350
    30.6600       364
    30.6800       416
    30.7000       394
    30.7200       336
    30.7400       364
    30.7600       368
    30.7800       362
    30.8000       358
    30.8200       318
    30.8400       326
    30.8600       344
    30.8800       282
    30.9000       272
    30.9200       304
    30.9400       314
    30.9600       300
    30.9800       300
    31.0000       310
    31.0200       308
    31.0400       314
    31.0600       300
    31.0800       322
    31.1000       308
    31.1200       342
    31.1400       344
    31.1600       338
    31.1800       324
    31.2000       334
    31.2200       328
    31.2400       340
    31.2600       326
    31.2800       354
    31.3000       360
    31.3200       340
    31.3400       382
    31.3600       386
    31.3800       348
    31.4000       374
    31.4200       408
    31.4400       396
    31.4600       394
    31.4800       412
    31.5000       426
    31.5200       478
    31.5400       470
    31.5600       482
    31.5800       522
    31.6000       594
    31.6200       570
    31.6400       622
    31.6600       702
    31.6800       678
    31.7000       822
    31.7200       824
    31.7400       890
    31.7600       946
    31.7800      1152
    31.8000      1266
    31.8200      1426
    31.8400      1510
    31.8600      1734
    31.8800      1932
    31.9000      2212
    31.9200      2520
    31.9400      2806
    31.9600      2942
    31.9800      3292
    32.0000      3432
    32.0200      3566
    32.0400      3334
    32.0600      3134
    32.0800      2894
    32.1000      2600
    32.1200      2420
    32.1400      2168
    32.1600      2024
    32.1800      1940
    32.2000      1866
    32.2200      1894
    32.2400      1974
    32.2600      1998
    32.2800      2206
    32.3000      2278
    32.3200      2560
    32.3400      2834
    32.3600      3130
    32.3800      3644
    32.4000      4242
    32.4200      4874
    32.4400      5586
    32.4600      6688
    32.4800      7614
    32.5000      8794
    32.5200      9608
    32.5400     10268
    32.5600     10826
    32.5800     10780
    32.6000     10500
    32.6200      9718
    32.6400      8944
    32.6600      7784
    32.6800      6774
    32.7000      5768
    32.7200      4902
    32.7400      4014
    32.7600      3356
    32.7800      2898
    32.8000      2414
    32.8200      2130
    32.8400      1964
    32.8600      1794
    32.8800      1724
    32.9000      1604
    32.9200      1526
    32.9400      1552
    32.9600      1582
    32.9800      1588
    33.0000      1772
    33.0200      1856
    33.0400      1908
    33.0600      2138
    33.0800      2170
    33.1000      2184
    33.1200      2226
    33.1400      2128
    33.1600      1934
    33.1800      1796
    33.2000      1636
    33.2200      1384
    33.2400      1168
    33.2600      1038
    33.2800       848
    33.3000       772
    33.3200       706
    33.3400       646
    33.3600       564
    33.3800       502
    33.4000       510
    33.4200       454
    33.4400       418
    33.4600       420
    33.4800       396
    33.5000       340
    33.5200       328
    33.5400       356
    33.5600       354
    33.5800       314
    33.6000       312
    33.6200       278
    33.6400       310
    33.6600       278
    33.6800       324
    33.7000       300
    33.7200       286
    33.7400       300
    33.7600       262
    33.7800       278
    33.8000       256
    33.8200       262
    33.8400       270
    33.8600       254
    33.8800       256
    33.9000       230
    33.9200       230
    33.9400       238
    33.9600       256
    33.9800       260
    34.0000       222
    34.0200       252
    34.0400       268
    34.0600       266
    34.0800       268
    34.1000       262
    34.1200       278
    34.1400       280
    34.1600       234
    34.1800       250
    34.2000       242
    34.2200       242
    34.2400       258
    34.2600       276
    34.2800       270
    34.3000       260
    34.3200       252
    34.3400       228
    34.3600       248
    34.3800       214
    34.4000       286
    34.4200       270
    34.4400       274
    34.4600       264
    34.4800       242
    34.5000       222
    34.5200       288
    34.5400       274
    34.5600       270
    34.5800       284
    34.6000       228
    34.6200       280
    34.6400       304
    34.6600       250
    34.6800       282
    34.7000       266
    34.7200       266
    34.7400       268
    34.7600       252
    34.7800       270
    34.8000       294
    34.8200       280
    34.8400       282
    34.8600       264
    34.8800       278
    34.9000       292
    34.9200       292
    34.9400       270
    34.9600       338
    34.9800       274
    35.0000       266
    35.0200       330
    35.0400       296
    35.0600       318
    35.0800       314
    35.1000       282
    35.1200       312
    35.1400       288
    35.1600       270
    35.1800       282
    35.2000       286
    35.2200       302
    35.2400       298
    35.2600       284
    35.2800       260
    35.3000       284
    35.3200       288
    35.3400       276
    35.3600       260
    35.3800       252
    35.4000       258
    35.4200       278
    35.4400       264
    35.4600       268
    35.4800       298
    35.5000       266
    35.5200       270
    35.5400       276
    35.5600       278
    35.5800       314
    35.6000       292
    35.6200       298
    35.6400       330
    35.6600       280
    35.6800       330
    35.7000       324
    35.7200       334
    35.7400       378
    35.7600       344
    35.7800       362
    35.8000       356
    35.8200       356
    35.8400       406
    35.8600       386
    35.8800       430
    35.9000       398
    35.9200       468
    35.9400       432
    35.9600       506
    35.9800       474
    36.0000       568
    36.0200       586
    36.0400       666
    36.0600       694
    36.0800       744
    36.1000       784
    36.1200       864
    36.1400       900
    36.1600       956
    36.1800       918
    36.2000       878
    36.2200       824
    36.2400       836
    36.2600       754
    36.2800       746
    36.3000       676
    36.3200       612
    36.3400       546
    36.3600       550
    36.3800       486
    36.4000       514
    36.4200       458
    36.4400       534
    36.4600       494
    36.4800       506
    36.5000       504
    36.5200       524
    36.5400       546
    36.5600       658
    36.5800       592
    36.6000       678
    36.6200       624
    36.6400       722
    36.6600       790
    36.6800       910
    36.7000       908
    36.7200      1048
    36.7400      1220
    36.7600      1304
    36.7800      1480
    36.8000      1756
    36.8200      1900
    36.8400      2254
    36.8600      2434
    36.8800      2600
    36.9000      2782
    36.9200      2822
    36.9400      2584
    36.9600      2472
    36.9800      2314
    37.0000      2066
    37.0200      1844
    37.0400      1652
    37.0600      1462
    37.0800      1312
    37.1000      1166
    37.1200       994
    37.1400       890
    37.1600       838
    37.1800       826
    37.2000       752
    37.2200       734
    37.2400       694
    37.2600       602
    37.2800       666
    37.3000       686
    37.3200       642
    37.3400       566
    37.3600       550
    37.3800       536
    37.4000       562
    37.4200       564
    37.4400       582
    37.4600       586
    37.4800       556
    37.5000       536
    37.5200       564
    37.5400       582
    37.5600       518
    37.5800       600
    37.6000       576
    37.6200       596
    37.6400       584
    37.6600       608
    37.6800       650
    37.7000       716
    37.7200       692
    37.7400       744
    37.7600       782
    37.7800       904
    37.8000       958
    37.8200       992
    37.8400      1122
    37.8600      1220
    37.8800      1346
    37.9000      1556
    37.9200      1702
    37.9400      1952
    37.9600      2116
    37.9800      2344
    38.0000      2626
    38.0200      2718
    38.0400      2860
    38.0600      2814
    38.0800      2834
    38.1000      2626
    38.1200      2494
    38.1400      2378
    38.1600      2162
    38.1800      2118
    38.2000      1968
    38.2200      1878
    38.2400      1970
    38.2600      1920
    38.2800      2028
    38.3000      2112
    38.3200      2328
    38.3400      2516
    38.3600      2824
    38.3800      3140
    38.4000      3608
    38.4200      3940
    38.4400      4210
    38.4600      4754
    38.4800      5138
    38.5000      5314
    38.5200      5516
    38.5400      5468
    38.5600      5344
    38.5800      5346
    38.6000      5276
    38.6200      5060
    38.6400      4800
    38.6600      4740
    38.6800      4694
    38.7000      4712
    38.7200      4754
    38.7400      4494
    38.7600      4444
    38.7800      4444
    38.8000      4070
    38.8200      3784
    38.8400      3434
    38.8600      3068
    38.8800      2738
    38.9000      2364
    38.9200      2070
    38.9400      1810
    38.9600      1620
    38.9800      1484
    39.0000      1352
    39.0200      1232
    39.0400      1188
    39.0600      1110
    39.0800      1110
    39.1000       988
    39.1200       962
    39.1400      1012
    39.1600      1016
    39.1800      1006
    39.2000       940
    39.2200       926
    39.2400       934
    39.2600       936
    39.2800      1026
    39.3000       924
    39.3200       980
    39.3400       942
    39.3600       946
    39.3800      1018
    39.4000      1004
    39.4200      1080
    39.4400      1096
    39.4600      1054
    39.4800      1084
    39.5000      1174
    39.5200      1294
    39.5400      1490
    39.5600      1592
    39.5800      1752
    39.6000      2018
    39.6200      2242
    39.6400      2562
    39.6600      2790
    39.6800      3066
    39.7000      3190
    39.7200      3148
    39.7400      3034
    39.7600      3046
    39.7800      2716
    39.8000      2564
    39.8200      2286
    39.8400      2078
    39.8600      1798
    39.8800      1488
    39.9000      1310
    39.9200      1186
    39.9400      1004
    39.9600       916
    39.9800       828
    40.0000       810
    40.0200       770
    40.0400       710
    40.0600       680
    40.0800       642
    40.1000       664
    40.1200       630
    40.1400       614
    40.1600       602
    40.1800       608
    40.2000       590
    40.2200       580
    40.2400       640
    40.2600       596
    40.2800       706
    40.3000       672
    40.3200       658
    40.3400       720
    40.3600       742
    40.3800       776
    40.4000       870
    40.4200       890
    40.4400      1024
    40.4600      1124
    40.4800      1166
    40.5000      1218
    40.5200      1408
    40.5400      1508
    40.5600      1632
    40.5800      1696
    40.6000      1768
    40.6200      1812
    40.6400      1774
    40.6600      1726
    40.6800      1654
    40.7000      1524
    40.7200      1480
    40.7400      1408
    40.7600      1310
    40.7800      1138
    40.8000      1052
    40.8200       916
    40.8400       842
    40.8600       784
    40.8800       754
    40.9000       646
    40.9200       634
    40.9400       586
    40.9600       578
    40.9800       542
    41.0000       550
    41.0200       526
    41.0400       530
    41.0600       476
    41.0800       486
    41.1000       468
    41.1200       500
    41.1400       504
    41.1600       432
    41.1800       490
    41.2000       488
    41.2200       478
    41.2400       470
    41.2600       496
    41.2800       464
    41.3000       496
    41.3200       474
    41.3400       474
    41.3600       444
    41.3800       506
    41.4000       520
    41.4200       506
    41.4400       464
    41.4600       522
    41.4800       558
    41.5000       512
    41.5200       554
    41.5400       576
    41.5600       614
    41.5800       582
    41.6000       678
    41.6200       690
    41.6400       722
    41.6600       772
    41.6800       840
    41.7000       926
    41.7200      1016
    41.7400      1096
    41.7600      1294
    41.7800      1370
    41.8000      1526
    41.8200      1722
    41.8400      1818
    41.8600      2032
    41.8800      2200
    41.9000      2290
    41.9200      2420
    41.9400      2444
    41.9600      2392
    41.9800      2248
    42.0000      2148
    42.0200      1840
    42.0400      1678
    42.0600      1600
    42.0800      1424
    42.1000      1208
    42.1200      1138
    42.1400      1000
    42.1600       916
    42.1800       790
    42.2000       746
    42.2200       700
    42.2400       684
    42.2600       600
    42.2800       602
    42.3000       588
    42.3200       568
    42.3400       568
    42.3600       550
    42.3800       464
    42.4000       470
    42.4200       498
    42.4400       492
    42.4600       414
    42.4800       498
    42.5000       412
    42.5200       460
    42.5400       434
    42.5600       456
    42.5800       420
    42.6000       434
    42.6200       436
    42.6400       482
    42.6600       430
    42.6800       446
    42.7000       450
    42.7200       428
    42.7400       504
    42.7600       502
    42.7800       492
    42.8000       534
    42.8200       514
    42.8400       548
    42.8600       562
    42.8800       562
    42.9000       568
    42.9200       666
    42.9400       766
    42.9600       772
    42.9800       826
    43.0000       906
    43.0200       970
    43.0400      1098
    43.0600      1234
    43.0800      1376
    43.1000      1496
    43.1200      1718
    43.1400      1810
    43.1600      2120
    43.1800      2254
    43.2000      2306
    43.2200      2402
    43.2400      2418
    43.2600      2384
    43.2800      2088
    43.3000      2002
    43.3200      1854
    43.3400      1668
    43.3600      1546
    43.3800      1360
    43.4000      1264
    43.4200      1076
    43.4400      1040
    43.4600       862
    43.4800       846
    43.5000       702
    43.5200       680
    43.5400       668
    43.5600       662
    43.5800       588
    43.6000       572
    43.6200       600
    43.6400       654
    43.6600       660
    43.6800       686
    43.7000       738
    43.7200       726
    43.7400       788
    43.7600       804
    43.7800       828
    43.8000       898
    43.8200       918
    43.8400       930
    43.8600       908
    43.8800       886
    43.9000       922
    43.9200       926
    43.9400       834
    43.9600       814
    43.9800       784
    44.0000       664
    44.0200       610
    44.0400       690
    44.0600       596
    44.0800       590
    44.1000       550
    44.1200       508
    44.1400       480
    44.1600       476
    44.1800       476
    44.2000       448
    44.2200       510
    44.2400       452
    44.2600       498
    44.2800       486
    44.3000       442
    44.3200       456
    44.3400       488
    44.3600       464
    44.3800       496
    44.4000       510
    44.4200       450
    44.4400       494
    44.4600       520
    44.4800       498
    44.5000       464
    44.5200       448
    44.5400       506
    44.5600       456
    44.5800       490
    44.6000       482
    44.6200       500
    44.6400       466
    44.6600       506
    44.6800       442
    44.7000       456
    44.7200       460
    44.7400       470
    44.7600       402
    44.7800       486
    44.8000       422
    44.8200       484
    44.8400       470
    44.8600       442
    44.8800       482
    44.9000       396
    44.9200       438
    44.9400       430
    44.9600       502
    44.9800       438
    45.0000       440
    45.0200       428
    45.0400       418
    45.0600       456
    45.0800       442
    45.1000       444
    45.1200       424
    45.1400       432
    45.1600       482
    45.1800       414
    45.2000       458
    45.2200       486
    45.2400       478
    45.2600       478
    45.2800       478
    45.3000       460
    45.3200       466
    45.3400       442
    45.3600       438
    45.3800       460
    45.4000       548
    45.4200       464
    45.4400       478
    45.4600       464
    45.4800       452
    45.5000       464
    45.5200       440
    45.5400       506
    45.5600       508
    45.5800       524
    45.6000       468
    45.6200       524
    45.6400       500
    45.6600       504
    45.6800       572
    45.7000       504
    45.7200       540
    45.7400       556
    45.7600       544
    45.7800       552
    45.8000       538
    45.8200       570
    45.8400       572
    45.8600       600
    45.8800       616
    45.9000       638
    45.9200       644
    45.9400       612
    45.9600       634
    45.9800       622
    46.0000       738
    46.0200       660
    46.0400       750
    46.0600       676
    46.0800       728
    46.1000       732
    46.1200       780
    46.1400       812
    46.1600       828
    46.1800       866
    46.2000       938
    46.2200       884
    46.2400      1034
    46.2600      1030
    46.2800      1088
    46.3000      1226
    46.3200      1296
    46.3400      1504
    46.3600      1578
    46.3800      1758
    46.4000      1950
    46.4200      2180
    46.4400      2308
    46.4600      2606
    46.4800      2866
    46.5000      3166
    46.5200      3714
    46.5400      3962
    46.5600      4540
    46.5800      5360
    46.6000      6070
    46.6200      6894
    46.6400      7812
    46.6600      8964
    46.6800      9916
    46.7000     10572
    46.7200     11182
    46.7400     11234
    46.7600     10920
    46.7800     10570
    46.8000      9978
    46.8200      9254
    46.8400      8768
    46.8600      8186
    46.8800      7484
    46.9000      6784
    46.9200      6020
    46.9400      5686
    46.9600      4970
    46.9800      4634
    47.0000      4074
    47.0200      3780
    47.0400      3466
    47.0600      3152
    47.0800      2924
    47.1000      2578
    47.1200      2416
    47.1400      2220
    47.1600      2120
    47.1800      1904
    47.2000      1698
    47.2200      1622
    47.2400      1386
    47.2600      1298
    47.2800      1272
    47.3000      1186
    47.3200      1070
    47.3400      1042
    47.3600       932
    47.3800       922
    47.4000       852
    47.4200       880
    47.4400       842
    47.4600       830
    47.4800       780
    47.5000       744
    47.5200       686
    47.5400       718
    47.5600       716
    47.5800       664
    47.6000       728
    47.6200       686
    47.6400       728
    47.6600       706
    47.6800       712
    47.7000       810
    47.7200       790
    47.7400       832
    47.7600       860
    47.7800       934
    47.8000       990
    47.8200      1022
    47.8400      1046
    47.8600      1132
    47.8800      1154
    47.9000      1118
    47.9200      1120
    47.9400      1090
    47.9600      1044
    47.9800      1008
    48.0000       922
    48.0200       932
    48.0400       940
    48.0600       926
    48.0800       946
    48.1000       936
    48.1200       990
    48.1400      1018
    48.1600       982
    48.1800      1076
    48.2000      1042
    48.2200      1072
    48.2400      1052
    48.2600      1046
    48.2800      1010
    48.3000      1014
    48.3200       960
    48.3400       912
    48.3600       862
    48.3800       884
    48.4000       712
    48.4200       702
    48.4400       674
    48.4600       662
    48.4800       612
    48.5000       542
    48.5200       534
    48.5400       460
    48.5600       530
    48.5800       482
    48.6000       424
    48.6200       434
    48.6400       434
    48.6600       374
    48.6800       392
    48.7000       422
    48.7200       392
    48.7400       388
    48.7600       374
    48.7800       376
    48.8000       348
    48.8200       310
    48.8400       348
    48.8600       366
    48.8800       358
    48.9000       328
    48.9200       334
    48.9400       306
    48.9600       348
    48.9800       312
    49.0000       374
    49.0200       330
    49.0400       326
    49.0600       328
    49.0800       318
    49.1000       306
    49.1200       322
    49.1400       344
    49.1600       314
    49.1800       330
    49.2000       310
    49.2200       342
    49.2400       324
    49.2600       340
    49.2800       306
    49.3000       298
    49.3200       314
    49.3400       350
    49.3600       354
    49.3800       320
    49.4000       336
    49.4200       330
    49.4400       324
    49.4600       336
    49.4800       308
    49.5000       334
    49.5200       332
    49.5400       356
    49.5600       326
    49.5800       308
    49.6000       314
    49.6200       350
    49.6400       344
    49.6600       328
    49.6800       342
    49.7000       334
    49.7200       354
    49.7400       352
    49.7600       318
    49.7800       360
    49.8000       348
    49.8200       342
    49.8400       356
    49.8600       380
    49.8800       376
    49.9000       390
    49.9200       332
    49.9400       354
    49.9600       380
    49.9800       396
    50.0000       410
    50.0200       434
    50.0400       410
    50.0600       464
    50.0800       430
    50.1000       450
    50.1200       470
    50.1400       480
    50.1600       494
    50.1800       548
    50.2000       528
    50.2200       532
    50.2400       536
    50.2600       556
    50.2800       540
    50.3000       588
    50.3200       590
    50.3400       598
    50.3600       572
    50.3800       576
    50.4000       586
    50.4200       614
    50.4400       586
    50.4600       550
    50.4800       572
    50.5000       548
    50.5200       596
    50.5400       562
    50.5600       576
    50.5800       624
    50.6000       602
    50.6200       624
    50.6400       562
    50.6600       654
    50.6800       604
    50.7000       604
    50.7200       620
    50.7400       598
    50.7600       644
    50.7800       718
    50.8000       732
    50.8200       770
    50.8400       750
    50.8600       786
    50.8800       862
    50.9000       910
    50.9200       906
    50.9400       942
    50.9600       904
    50.9800       860
    51.0000       920
    51.0200       904
    51.0400       814
    51.0600       800
    51.0800       798
    51.1000       740
    51.1200       792
    51.1400       664
    51.1600       684
    51.1800       652
    51.2000       650
    51.2200       614
    51.2400       640
    51.2600       678
    51.2800       664
    51.3000       676
    51.3200       666
    51.3400       714
    51.3600       700
    51.3800       798
    51.4000       746
    51.4200       812
    51.4400       870
    51.4600       870
    51.4800       820
    51.5000       814
    51.5200       820
    51.5400       820
    51.5600       840
    51.5800       812
    51.6000       842
    51.6200       800
    51.6400       756
    51.6600       772
    51.6800       834
    51.7000       752
    51.7200       788
    51.7400       854
    51.7600       954
    51.7800       962
    51.8000      1110
    51.8200      1076
    51.8400      1190
    51.8600      1178
    51.8800      1264
    51.9000      1254
    51.9200      1268
    51.9400      1182
    51.9600      1228
    51.9800      1192
    52.0000      1158
    52.0200      1184
    52.0400      1162
    52.0600      1062
    52.0800      1016
    52.1000       976
    52.1200       918
    52.1400       888
    52.1600       848
    52.1800       718
    52.2000       814
    52.2200       790
    52.2400       802
    52.2600       808
    52.2800       812
    52.3000       756
    52.3200       736
    52.3400       816
    52.3600       784
    52.3800       836
    52.4000       888
    52.4200       946
    52.4400      1032
    52.4600      1100
    52.4800      1146
    52.5000      1320
    52.5200      1396
    52.5400      1542
    52.5600      1610
    52.5800      1716
    52.6000      1750
    52.6200      1872
    52.6400      1828
    52.6600      1812
    52.6800      1734
    52.7000      1652
    52.7200      1686
    52.7400      1626
    52.7600      1518
    52.7800      1422
    52.8000      1374
    52.8200      1314
    52.8400      1192
    52.8600      1162
    52.8800      1080
    52.9000      1070
    52.9200      1034
    52.9400       954
    52.9600       912
    52.9800       902
    53.0000       934
    53.0200       960
    53.0400       994
    53.0600      1022
    53.0800      1126
    53.1000      1168
    53.1200      1244
    53.1400      1328
    53.1600      1530
    53.1800      1602
    53.2000      1730
    53.2200      1896
    53.2400      2004
    53.2600      2180
    53.2800      2310
    53.3000      2210
    53.3200      2320
    53.3400      2094
    53.3600      2008
    53.3800      1904
    53.4000      1880
    53.4200      1720
    53.4400      1578
    53.4600      1436
    53.4800      1442
    53.5000      1226
    53.5200      1086
    53.5400       978
    53.5600       820
    53.5800       766
    53.6000       732
    53.6200       676
    53.6400       628
    53.6600       596
    53.6800       566
    53.7000       496
    53.7200       474
    53.7400       440
    53.7600       458
    53.7800       456
    53.8000       470
    53.8200       476
    53.8400       406
    53.8600       396
    53.8800       392
    53.9000       382
    53.9200       394
    53.9400       358
    53.9600       330
    53.9800       370
    54.0000       318
    54.0200       368
    54.0400       352
    54.0600       376
    54.0800       386
    54.1000       328
    54.1200       350
    54.1400       358
    54.1600       322
    54.1800       404
    54.2000       378
    54.2200       380
    54.2400       376
    54.2600       404
    54.2800       390
    54.3000       364
    54.3200       376
    54.3400       390
    54.3600       386
    54.3800       438
    54.4000       474
    54.4200       464
    54.4400       472
    54.4600       494
    54.4800       476
    54.5000       552
    54.5200       572
    54.5400       616
    54.5600       630
    54.5800       658
    54.6000       652
    54.6200       764
    54.6400       798
    54.6600       800
    54.6800       790
    54.7000       860
    54.7200       946
    54.7400      1006
    54.7600       998
    54.7800      1068
    54.8000       966
    54.8200      1016
    54.8400       956
    54.8600       934
    54.8800       880
    54.9000       800
    54.9200       830
    54.9400       720
    54.9600       718
    54.9800       680
    55.0000       648
    55.0200       654
    55.0400       614
    55.0600       530
    55.0800       530
    55.1000       464
    55.1200       486
    55.1400       480
    55.1600       412
    55.1800       432
    55.2000       418
    55.2200       406
    55.2400       422
    55.2600       414
    55.2800       386
    55.3000       416
    55.3200       384
    55.3400       408
    55.3600       390
    55.3800       410
    55.4000       408
    55.4200       392
    55.4400       390
    55.4600       390
    55.4800       398
    55.5000       418
    55.5200       422
    55.5400       462
    55.5600       484
    55.5800       512
    55.6000       498
    55.6200       510
    55.6400       540
    55.6600       546
    55.6800       664
    55.7000       620
    55.7200       632
    55.7400       666
    55.7600       614
    55.7800       656
    55.8000       644
    55.8200       650
    55.8400       572
    55.8600       602
    55.8800       584
    55.9000       578
    55.9200       538
    55.9400       526
    55.9600       528
    55.9800       488
    56.0000       464
    56.0200       430
    56.0400       420
    56.0600       424
    56.0800       356
    56.1000       400
    56.1200       370
    56.1400       372
    56.1600       384
    56.1800       336
    56.2000       358
    56.2200       318
    56.2400       348
    56.2600       342
    56.2800       308
    56.3000       362
    56.3200       350
    56.3400       358
    56.3600       304
    56.3800       338
    56.4000       326
    56.4200       308
    56.4400       334
    56.4600       352
    56.4800       354
    56.5000       328
    56.5200       320
    56.5400       326
    56.5600       366
    56.5800       366
    56.6000       362
    56.6200       390
    56.6400       368
    56.6600       342
    56.6800       366
    56.7000       406
    56.7200       372
    56.7400       384
    56.7600       400
    56.7800       386
    56.8000       452
    56.8200       434
    56.8400       386
    56.8600       452
    56.8800       444
    56.9000       502
    56.9200       484
    56.9400       496
    56.9600       528
    56.9800       526
    57.0000       522
    57.0200       604
    57.0400       642
    57.0600       634
    57.0800       708
    57.1000       722
    57.1200       814
    57.1400       804
    57.1600       910
    57.1800       950
    57.2000       994
    57.2200      1148
    57.2400      1222
    57.2600      1374
    57.2800      1492
    57.3000      1552
    57.3200      1738
    57.3400      1902
    57.3600      2026
    57.3800      2112
    57.4000      2238
    57.4200      2212
    57.4400      2130
    57.4600      2160
    57.4800      2172
    57.5000      2100
    57.5200      2036
    57.5400      2064
    57.5600      2052
    57.5800      2016
    57.6000      1922
    57.6200      1926
    57.6400      1984
    57.6600      1966
    57.6800      1992
    57.7000      2260
    57.7200      2206
    57.7400      2228
    57.7600      2222
    57.7800      2300
    57.8000      2252
    57.8200      2132
    57.8400      2088
    57.8600      1992
    57.8800      1844
    57.9000      1828
    57.9200      1710
    57.9400      1660
    57.9600      1598
    57.9800      1448
    58.0000      1386
    58.0200      1328
    58.0400      1292
    58.0600      1178
    58.0800      1118
    58.1000      1110
    58.1200      1086
    58.1400      1054
    58.1600      1030
    58.1800      1090
    58.2000      1056
    58.2200      1162
    58.2400      1128
    58.2600      1218
    58.2800      1272
    58.3000      1340
    58.3200      1378
    58.3400      1486
    58.3600      1620
    58.3800      1704
    58.4000      1784
    58.4200      1932
    58.4400      2030
    58.4600      2240
    58.4800      2420
    58.5000      2492
    58.5200      2486
    58.5400      2756
    58.5600      2908
    58.5800      2990
    58.6000      3116
    58.6200      3290
    58.6400      3370
    58.6600      3558
    58.6800      3676
    58.7000      3942
    58.7200      4062
    58.7400      4120
    58.7600      4116
    58.7800      4178
    58.8000      4112
    58.8200      3996
    58.8400      3826
    58.8600      3688
    58.8800      3462
    58.9000      3372
    58.9200      3202
    58.9400      3002
    58.9600      2740
    58.9800      2426
    59.0000      2218
    59.0200      2084
    59.0400      1886
    59.0600      1730
    59.0800      1542
    59.1000      1540
    59.1200      1334
    59.1400      1092
    59.1600      1098
    59.1800      1024
    59.2000       934
    59.2200       910
    59.2400       796
    59.2600       798
    59.2800       768
    59.3000       670
    59.3200       668
    59.3400       636
    59.3600       622
    59.3800       600
    59.4000       636
    59.4200       584
    59.4400       518
    59.4600       570
    59.4800       538
    59.5000       534
    59.5200       510
    59.5400       500
    59.5600       474
    59.5800       446
    59.6000       480
    59.6200       446
    59.6400       454
    59.6600       402
    59.6800       410
    59.7000       422
    59.7200       374
    59.7400       394
    59.7600       376
    59.7800       420
    59.8000       360
    59.8200       396
    59.8400       364
    59.8600       350
    59.8800       406
    59.9000       380
    59.9200       350
    59.9400       364
    59.9600       336
    59.9800       342
    60.0000       382
    60.0200       352
    60.0400       304
    60.0600       370
    60.0800       346
    60.1000       362
    60.1200       358
    60.1400       366
    60.1600       344
    60.1800       356
    60.2000       404
    60.2200       364
    60.2400       368
    60.2600       358
    60.2800       348
    60.3000       342
    60.3200       354
    60.3400       350
    60.3600       376
    60.3800       388
    60.4000       380
    60.4200       346
    60.4400       366
    60.4600       394
    60.4800       374
    60.5000       372
    60.5200       356
    60.5400       380
    60.5600       382
    60.5800       378
    60.6000       366
    60.6200       398
    60.6400       352
    60.6600       394
    60.6800       372
    60.7000       384
    60.7200       386
    60.7400       402
    60.7600       376
    60.7800       370
    60.8000       406
    60.8200       386
    60.8400       424
    60.8600       426
    60.8800       402
    60.9000       408
    60.9200       474
    60.9400       438
    60.9600       526
    60.9800       490
    61.0000       482
    61.0200       528
    61.0400       536
    61.0600       536
    61.0800       566
    61.1000       614
    61.1200       686
    61.1400       612
    61.1600       548
    61.1800       618
    61.2000       648
    61.2200       602
    61.2400       594
    61.2600       598
    61.2800       650
    61.3000       612
    61.3200       592
    61.3400       590
    61.3600       598
    61.3800       612
    61.4000       586
    61.4200       628
    61.4400       634
    61.4600       674
    61.4800       628
    61.5000       624
    61.5200       654
    61.5400       642
    61.5600       678
    61.5800       674
    61.6000       640
    61.6200       636
    61.6400       674
    61.6600       630
    61.6800       622
    61.7000       570
    61.7200       562
    61.7400       552
    61.7600       614
    61.7800       582
    61.8000       554
    61.8200       558
    61.8400       596
    61.8600       578
    61.8800       578
    61.9000       600
    61.9200       602
    61.9400       628
    61.9600       648
    61.9800       616
    62.0000       632
    62.0200       612
    62.0400       644
    62.0600       680
    62.0800       602
    62.1000       680
    62.1200       690
    62.1400       706
    62.1600       678
    62.1800       682
    62.2000       688
    62.2200       670
    62.2400       632
    62.2600       646
    62.2800       660
    62.3000       632
    62.3200       634
    62.3400       648
    62.3600       644
    62.3800       602
    62.4000       634
    62.4200       608
    62.4400       634
    62.4600       604
    62.4800       532
    62.5000       520
    62.5200       486
    62.5400       532
    62.5600       464
    62.5800       468
    62.6000       470
    62.6200       416
    62.6400       436
    62.6600       426
    62.6800       412
    62.7000       406
    62.7200       376
    62.7400       364
    62.7600       376
    62.7800       334
    62.8000       336
    62.8200       326
    62.8400       310
    62.8600       300
    62.8800       318
    62.9000       280
    62.9200       304
    62.9400       296
    62.9600       260
    62.9800       294
    63.0000       312
    63.0200       270
    63.0400       298
    63.0600       288
    63.0800       310
    63.1000       266
    63.1200       278
    63.1400       280
    63.1600       274
    63.1800       270
    63.2000       298
    63.2200       224
    63.2400       242
    63.2600       270
    63.2800       258
    63.3000       270
    63.3200       266
    63.3400       268
    63.3600       240
    63.3800       268
    63.4000       276
    63.4200       274
    63.4400       286
    63.4600       268
    63.4800       248
    63.5000       258
    63.5200       316
    63.5400       278
    63.5600       294
    63.5800       290
    63.6000       306
    63.6200       334
    63.6400       312
    63.6600       316
    63.6800       352
    63.7000       340
    63.7200       396
    63.7400       384
    63.7600       422
    63.7800       442
    63.8000       444
    63.8200       510
    63.8400       510
    63.8600       490
    63.8800       554
    63.9000       552
    63.9200       540
    63.9400       560
    63.9600       508
    63.9800       508
    64.0000       456
    64.0200       446
    64.0400       464
    64.0600       450
    64.0800       428
    64.1000       410
    64.1200       388
    64.1400       394
    64.1600       354
    64.1800       346
    64.2000       336
    64.2200       298
    64.2400       300
    64.2600       274
    64.2800       284
    64.3000       258
    64.3200       282
    64.3400       282
    64.3600       254
    64.3800       256
    64.4000       284
    64.4200       230
    64.4400       254
    64.4600       252
    64.4800       260
    64.5000       248
    64.5200       238
    64.5400       258
    64.5600       264
    64.5800       258
    64.6000       260
    64.6200       266
    64.6400       254
    64.6600       232
    64.6800       252
    64.7000       206
    64.7200       252
    64.7400       252
    64.7600       260
    64.7800       220
    64.8000       240
    64.8200       256
    64.8400       282
    64.8600       270
    64.8800       296
    64.9000       250
    64.9200       252
    64.9400       276
    64.9600       288
    64.9800       290
    65.0000       320
    65.0200       314
    65.0400       318
    65.0600       316
    65.0800       366
    65.1000       336
    65.1200       396
    65.1400       392
    65.1600       408
    65.1800       456
    65.2000       440
    65.2200       452
    65.2400       480
    65.2600       448
    65.2800       458
    65.3000       512
    65.3200       486
    65.3400       548
    65.3600       498
    65.3800       554
    65.4000       508
    65.4200       502
    65.4400       508
    65.4600       450
    65.4800       482
    65.5000       492
    65.5200       456
    65.5400       398
    65.5600       404
    65.5800       408
    65.6000       342
    65.6200       378
    65.6400       398
    65.6600       322
    65.6800       326
    65.7000       340
    65.7200       334
    65.7400       300
    65.7600       296
    65.7800       322
    65.8000       274
    65.8200       262
    65.8400       308
    65.8600       294
    65.8800       294
    65.9000       284
    65.9200       304
    65.9400       284
    65.9600       280
    65.9800       260
    66.0000       274
    66.0200       292
    66.0400       284
    66.0600       278
    66.0800       300
    66.1000       300
    66.1200       284
    66.1400       314
    66.1600       286
    66.1800       284
    66.2000       284
    66.2200       288
    66.2400       312
    66.2600       262
    66.2800       324
    66.3000       318
    66.3200       334
    66.3400       346
    66.3600       306
    66.3800       324
    66.4000       356
    66.4200       382
    66.4400       366
    66.4600       368
    66.4800       410
    66.5000       398
    66.5200       390
    66.5400       472
    66.5600       410
    66.5800       392
    66.6000       444
    66.6200       454
    66.6400       482
    66.6600       524
    66.6800       530
    66.7000       566
    66.7200       588
    66.7400       632
    66.7600       612
    66.7800       616
    66.8000       690
    66.8200       700
    66.8400       726
    66.8600       730
    66.8800       746
    66.9000       770
    66.9200       794
    66.9400       772
    66.9600       740
    66.9800       714
    67.0000       748
    67.0200       704
    67.0400       668
    67.0600       670
    67.0800       670
    67.1000       620
    67.1200       626
    67.1400       572
    67.1600       530
    67.1800       492
    67.2000       526
    67.2200       500
    67.2400       474
    67.2600       470
    67.2800       418
    67.3000       392
    67.3200       390
    67.3400       418
    67.3600       360
    67.3800       394
    67.4000       380
    67.4200       382
    67.4400       342
    67.4600       390
    67.4800       356
    67.5000       352
    67.5200       342
    67.5400       346
    67.5600       354
    67.5800       332
    67.6000       372
    67.6200       352
    67.6400       374
    67.6600       388
    67.6800       382
    67.7000       438
    67.7200       396
    67.7400       424
    67.7600       472
    67.7800       466
    67.8000       492
    67.8200       482
    67.8400       528
    67.8600       558
    67.8800       596
    67.9000       600
    67.9200       634
    67.9400       662
    67.9600       684
    67.9800       734
    68.0000       826
    68.0200       896
    68.0400       948
    68.0600      1082
    68.0800      1122
    68.1000      1230
    68.1200      1308
    68.1400      1376
    68.1600      1362
    68.1800      1486
    68.2000      1464
    68.2200      1444
    68.2400      1484
    68.2600      1500
    68.2800      1482
    68.3000      1410
    68.3200      1436
    68.3400      1356
    68.3600      1300
    68.3800      1270
    68.4000      1212
    68.4200      1158
    68.4400      1076
    68.4600      1084
    68.4800       972
    68.5000       970
    68.5200       914
    68.5400       876
    68.5600       784
    68.5800       712
    68.6000       718
    68.6200       706
    68.6400       662
    68.6600       628
    68.6800       628
    68.7000       594
    68.7200       534
    68.7400       590
    68.7600       504
    68.7800       482
    68.8000       478
    68.8200       476
    68.8400       438
    68.8600       456
    68.8800       406
    68.9000       458
    68.9200       402
    68.9400       424
    68.9600       398
    68.9800       394
    69.0000       410
    69.0200       392
    69.0400       390
    69.0600       416
    69.0800       370
    69.1000       404
    69.1200       380
    69.1400       396
    69.1600       402
    69.1800       438
    69.2000       448
    69.2200       460
    69.2400       474
    69.2600       508
    69.2800       448
    69.3000       502
    69.3200       496
    69.3400       574
    69.3600       588
    69.3800       626
    69.4000       612
    69.4200       658
    69.4400       684
    69.4600       636
    69.4800       618
    69.5000       624
    69.5200       648
    69.5400       580
    69.5600       574
    69.5800       588
    69.6000       526
    69.6200       516
    69.6400       520
    69.6600       544
    69.6800       508
    69.7000       476
    69.7200       442
    69.7400       392
    69.7600       496
    69.7800       392
    69.8000       354
    69.8200       324
    69.8400       382
    69.8600       350
    69.8800       318
    69.9000       290
    69.9200       278
    69.9400       306
    69.9600       278
    69.9800       266
    70.0000       282
    70.0200       262
    70.0400       268
    70.0600       244
    70.0800       270
    70.1000       266
    70.1200       236
    70.1400       262
    70.1600       240
    70.1800       240
    70.2000       248
    70.2200       240
    70.2400       232
    70.2600       260
    70.2800       250
    70.3000       232
    70.3200       248
    70.3400       260
    70.3600       280
    70.3800       248
    70.4000       238
    70.4200       242
    70.4400       260
    70.4600       244
    70.4800       256
    70.5000       250
    70.5200       238
    70.5400       276
    70.5600       244
    70.5800       260
    70.6000       296
    70.6200       274
    70.6400       280
    70.6600       260
    70.6800       292
    70.7000       286
    70.7200       250
    70.7400       280
    70.7600       272
    70.7800       290
    70.8000       272
    70.8200       268
    70.8400       274
    70.8600       274
    70.8800       274
    70.9000       292
    70.9200       262
    70.9400       274
    70.9600       266
    70.9800       280
    71.0000       294
    71.0200       272
    71.0400       290
    71.0600       294
    71.0800       272
    71.1000       342
    71.1200       292
    71.1400       296
    71.1600       316
    71.1800       312
    71.2000       358
    71.2200       342
    71.2400       376
    71.2600       350
    71.2800       390
    71.3000       416
    71.3200       464
    71.3400       478
    71.3600       498
    71.3800       502
    71.4000       550
    71.4200       590
    71.4400       642
    71.4600       628
    71.4800       718
    71.5000       754
    71.5200       780
    71.5400       818
    71.5600       806
    71.5800       792
    71.6000       784
    71.6200       842
    71.6400       782
    71.6600       798
    71.6800       748
    71.7000       774
    71.7200       774
    71.7400       766
    71.7600       758
    71.7800       698
    71.8000       738
    71.8200       690
    71.8400       654
    71.8600       650
    71.8800       652
    71.9000       630
    71.9200       624
    71.9400       622
    71.9600       592
    71.9800       602
    72.0000       582
    72.0200       576
    72.0400       572
    72.0600       568
    72.0800       520
    72.1000       566
    72.1200       574
    72.1400       558
    72.1600       530
    72.1800       498
    72.2000       582
    72.2200       572
    72.2400       572
    72.2600       554
    72.2800       572
    72.3000       592
    72.3200       596
    72.3400       574
    72.3600       578
    72.3800       544
    72.4000       574
    72.4200       566
    72.4400       496
    72.4600       454
    72.4800       476
    72.5000       476
    72.5200       496
    72.5400       474
    72.5600       410
    72.5800       444
    72.6000       428
    72.6200       430
    72.6400       396
    72.6600       396
    72.6800       378
    72.7000       362
    72.7200       320
    72.7400       336
    72.7600       342
    72.7800       328
    72.8000       306
    72.8200       332
    72.8400       338
    72.8600       342
    72.8800       332
    72.9000       340
    72.9200       320
    72.9400       324
    72.9600       352
    72.9800       338
    73.0000       314
    73.0200       282
    73.0400       330
    73.0600       302
    73.0800       310
    73.1000       326
    73.1200       300
    73.1400       306
    73.1600       292
    73.1800       292
    73.2000       252
    73.2200       280
    73.2400       288
    73.2600       288
    73.2800       264
    73.3000       246
    73.3200       262
    73.3400       232
    73.3600       248
    73.3800       234
    73.4000       206
    73.4200       230
    73.4400       220
    73.4600       222
    73.4800       262
    73.5000       246
    73.5200       242
    73.5400       216
    73.5600       216
    73.5800       238
    73.6000       216
    73.6200       228
    73.6400       226
    73.6600       224
    73.6800       236
    73.7000       246
    73.7200       218
    73.7400       230
    73.7600       222
    73.7800       248
    73.8000       258
    73.8200       206
    73.8400       258
    73.8600       252
    73.8800       246
    73.9000       282
    73.9200       238
    73.9400       260
    73.9600       242
    73.9800       266
    74.0000       296
    74.0200       294
    74.0400       264
    74.0600       290
    74.0800       322
    74.1000       284
    74.1200       302
    74.1400       306
    74.1600       342
    74.1800       306
    74.2000       306
    74.2200       308
    74.2400       338
    74.2600       318
    74.2800       290
    74.3000       318
    74.3200       306
    74.3400       340
    74.3600       300
    74.3800       298
    74.4000       274
    74.4200       278
    74.4400       268
    74.4600       270
    74.4800       270
    74.5000       250
    74.5200       264
    74.5400       272
    74.5600       228
    74.5800       254
    74.6000       220
    74.6200       210
    74.6400       224
    74.6600       242
    74.6800       230
    74.7000       246
    74.7200       200
    74.7400       214
    74.7600       214
    74.7800       204
    74.8000       216
    74.8200       202
    74.8400       180
    74.8600       214
    74.8800       234
    74.9000       188
    74.9200       212
    74.9400       246
    74.9600       198
    74.9800       180
    75.0000       198
    75.0200       160
    75.0400       194
    75.0600       196
    75.0800       198
    75.1000       178
    75.1200       212
    75.1400       200
    75.1600       232
    75.1800       212
    75.2000       188
    75.2200       204
    75.2400       224
    75.2600       224
    75.2800       206
    75.3000       198
    75.3200       186
    75.3400       212
    75.3600       234
    75.3800       232
    75.4000       230
    75.4200       232
    75.4400       232
    75.4600       202
    75.4800       232
    75.5000       224
    75.5200       226
    75.5400       252
    75.5600       212
    75.5800       268
    75.6000       276
    75.6200       258
    75.6400       210
    75.6600       204
    75.6800       244
    75.7000       272
    75.7200       258
    75.7400       270
    75.7600       266
    75.7800       290
    75.8000       284
    75.8200       302
    75.8400       276
    75.8600       294
    75.8800       300
    75.9000       282
    75.9200       294
    75.9400       272
    75.9600       284
    75.9800       306
    76.0000       296
    76.0200       274
    76.0400       266
    76.0600       274
    76.0800       280
    76.1000       276
    76.1200       296
    76.1400       320
    76.1600       300
    76.1800       282
    76.2000       316
    76.2200       302
    76.2400       312
    76.2600       324
    76.2800       322
    76.3000       318
    76.3200       342
    76.3400       342
    76.3600       312
    76.3800       362
    76.4000       360
    76.4200       354
    76.4400       380
    76.4600       402
    76.4800       378
    76.5000       354
    76.5200       378
    76.5400       392
    76.5600       376
    76.5800       370
    76.6000       408
    76.6200       408
    76.6400       428
    76.6600       450
    76.6800       468
    76.7000       424
    76.7200       452
    76.7400       476
    76.7600       414
    76.7800       416
    76.8000       446
    76.8200       428
    76.8400       418
    76.8600       396
    76.8800       400
    76.9000       374
    76.9200       422
    76.9400       360
    76.9600       338
    76.9800       366
    77.0000       374
    77.0200       354
    77.0400       362
    77.0600       336
    77.0800       374
    77.1000       388
    77.1200       348
    77.1400       336
    77.1600       380
    77.1800       388
    77.2000       396
    77.2200       376
    77.2400       390
    77.2600       376
    77.2800       412
    77.3000       464
    77.3200       406
    77.3400       486
    77.3600       474
    77.3800       492
    77.4000       520
    77.4200       550
    77.4400       562
    77.4600       632
    77.4800       688
    77.5000       686
    77.5200       688
    77.5400       748
    77.5600       856
    77.5800       860
    77.6000       840
    77.6200       920
    77.6400      1006
    77.6600      1014
    77.6800      1042
    77.7000       992
    77.7200      1016
    77.7400      1050
    77.7600      1004
    77.7800       948
    77.8000       912
    77.8200       928
    77.8400       850
    77.8600       958
    77.8800       852
    77.9000       844
    77.9200       784
    77.9400       770
    77.9600       766
    77.9800       722
    78.0000       668
    78.0200       578
    78.0400       612
    78.0600       542
    78.0800       542
    78.1000       550
    78.1200       500
    78.1400       496
    78.1600       476
    78.1800       432
    78.2000       450
    78.2200       422
    78.2400       426
    78.2600       434
    78.2800       412
    78.3000       388
    78.3200       400
    78.3400       444
    78.3600       384
    78.3800       402
    78.4000       394
    78.4200       398
    78.4400       458
    78.4600       432
    78.4800       422
    78.5000       466
    78.5200       444
    78.5400       470
    78.5600       468
    78.5800       504
    78.6000       472
    78.6200       492
    78.6400       460
    78.6600       466
    78.6800       518
    78.7000       484
    78.7200       470
    78.7400       482
    78.7600       476
    78.7800       434
    78.8000       472
    78.8200       436
    78.8400       422
    78.8600       462
    78.8800       470
    78.9000       440
    78.9200       404
    78.9400       378
    78.9600       400
    78.9800       402
    79.0000       382
    79.0200       366
    79.0400       350
    79.0600       308
    79.0800       326
    79.1000       312
    79.1200       286
    79.1400       300
    79.1600       296
    79.1800       296
    79.2000       292
    79.2200       286
    79.2400       256
    79.2600       290
    79.2800       282
    79.3000       280
    79.3200       248
    79.3400       230
    79.3600       250
    79.3800       266
    79.4000       262
    79.4200       254
    79.4400       254
    79.4600       246
    79.4800       268
    79.5000       264
    79.5200       292
    79.5400       296
    79.5600       262
    79.5800       272
    79.6000       266
    79.6200       270
    79.6400       312
    79.6600       286
    79.6800       296
    79.7000       276
    79.7200       302
    79.7400       296
    79.7600       260
    79.7800       250
    79.8000       298
    79.8200       280
    79.8400       280
    79.8600       254
    79.8800       298
    79.9000       308
    79.9200       268
    79.9400       266
    79.9600       282
    79.9800       300
    80.0000       308
    80.0200       282
    80.0400       254
    80.0600       244
    80.0800       276
    80.1000       258
    80.1200       254
    80.1400       268
    80.1600       254
    80.1800       254
    80.2000       244
    80.2200       254
    80.2400       284
    80.2600       252
    80.2800       244
    80.3000       244
    80.3200       242
    80.3400       260
    80.3600       252
    80.3800       236
    80.4000       250
    80.4200       254
    80.4400       262
    80.4600       236
    80.4800       252
    80.5000       236
    80.5200       250
    80.5400       248
    80.5600       246
    80.5800       266
    80.6000       248
    80.6200       222
    80.6400       206
    80.6600       238
    80.6800       206
    80.7000       226
    80.7200       204
    80.7400       230
    80.7600       206
    80.7800       218
    80.8000       252
    80.8200       194
    80.8400       236
    80.8600       210
    80.8800       222
    80.9000       206
    80.9200       218
    80.9400       204
    80.9600       212
    80.9800       222
    81.0000       216
    81.0200       218
    81.0400       206
    81.0600       214
    81.0800       246
    81.1000       222
    81.1200       242
    81.1400       240
    81.1600       226
    81.1800       220
    81.2000       244
    81.2200       262
    81.2400       260
    81.2600       300
    81.2800       274
    81.3000       248
    81.3200       310
    81.3400       294
    81.3600       286
    81.3800       282
    81.4000       282
    81.4200       294
    81.4400       282
    81.4600       300
    81.4800       280
    81.5000       280
    81.5200       294
    81.5400       280
    81.5600       286
    81.5800       278
    81.6000       260
    81.6200       248
    81.6400       270
    81.6600       274
    81.6800       276
    81.7000       276
    81.7200       274
    81.7400       298
    81.7600       278
    81.7800       282
    81.8000       232
    81.8200       256
    81.8400       320
    81.8600       286
    81.8800       254
    81.9000       274
    81.9200       292
    81.9400       292
    81.9600       280
    81.9800       298
    82.0000       290
    82.0200       272
    82.0400       304
    82.0600       282
    82.0800       274
    82.1000       286
    82.1200       286
    82.1400       324
    82.1600       316
    82.1800       342
    82.2000       320
    82.2200       302
    82.2400       354
    82.2600       320
    82.2800       362
    82.3000       396
    82.3200       398
    82.3400       356
    82.3600       340
    82.3800       372
    82.4000       372
    82.4200       346
    82.4400       374
    82.4600       366
    82.4800       348
    82.5000       384
    82.5200       360
    82.5400       360
    82.5600       334
    82.5800       352
    82.6000       332
    82.6200       392
    82.6400       388
    82.6600       398
    82.6800       412
    82.7000       432
    82.7200       402
    82.7400       440
    82.7600       436
    82.7800       426
    82.8000       462
    82.8200       424
    82.8400       510
    82.8600       448
    82.8800       446
    82.9000       440
    82.9200       430
    82.9400       442
    82.9600       422
    82.9800       428
    83.0000       422
    83.0200       466
    83.0400       426
    83.0600       420
    83.0800       434
    83.1000       414
    83.1200       436
    83.1400       434
    83.1600       460
    83.1800       418
    83.2000       440
    83.2200       390
    83.2400       464
    83.2600       410
    83.2800       420
    83.3000       416
    83.3200       414
    83.3400       422
    83.3600       414
    83.3800       402
    83.4000       434
    83.4200       414
    83.4400       432
    83.4600       416
    83.4800       390
    83.5000       384
    83.5200       376
    83.5400       362
    83.5600       384
    83.5800       350
    83.6000       392
    83.6200       376
    83.6400       348
    83.6600       334
    83.6800       348
    83.7000       378
    83.7200       316
    83.7400       320
    83.7600       304
    83.7800       338
    83.8000       334
    83.8200       342
    83.8400       318
    83.8600       322
    83.8800       336
    83.9000       292
    83.9200       340
    83.9400       290
    83.9600       308
    83.9800       320
    84.0000       330
    84.0200       294
    84.0400       304
    84.0600       316
    84.0800       288
    84.1000       360
    84.1200       282
    84.1400       298
    84.1600       304
    84.1800       282
    84.2000       302
    84.2200       314
    84.2400       274
    84.2600       264
    84.2800       282
    84.3000       296
    84.3200       272
    84.3400       270
    84.3600       246
    84.3800       298
    84.4000       264
    84.4200       264
    84.4400       282
    84.4600       272
    84.4800       256
    84.5000       224
    84.5200       224
    84.5400       228
    84.5600       256
    84.5800       268
    84.6000       204
    84.6200       218
    84.6400       246
    84.6600       256
    84.6800       244
    84.7000       228
    84.7200       248
    84.7400       226
    84.7600       206
    84.7800       206
    84.8000       244
    84.8200       242
    84.8400       248
    84.8600       238
    84.8800       244
    84.9000       252
    84.9200       222
    84.9400       248
    84.9600       218
    84.9800       252
    85.0000       232
    85.0200       222
    85.0400       210
    85.0600       230
    85.0800       236
    85.1000       262
    85.1200       228
    85.1400       236
    85.1600       220
    85.1800       222
    85.2000       222
    85.2200       218
    85.2400       206
    85.2600       224
    85.2800       270
    85.3000       228
    85.3200       236
    85.3400       244
    85.3600       246
    85.3800       252
    85.4000       260
    85.4200       282
    85.4400       264
    85.4600       284
    85.4800       276
    85.5000       314
    85.5200       300
    85.5400       288
    85.5600       304
    85.5800       280
    85.6000       338
    85.6200       290
    85.6400       266
    85.6600       270
    85.6800       272
    85.7000       252
    85.7200       280
    85.7400       290
    85.7600       284
    85.7800       276
    85.8000       270
    85.8200       280
    85.8400       252
    85.8600       246
    85.8800       262
    85.9000       250
    85.9200       216
    85.9400       244
    85.9600       240
    85.9800       254
    86.0000       230
    86.0200       210
    86.0400       206
    86.0600       236
    86.0800       218
    86.1000       200
    86.1200       210
    86.1400       262
    86.1600       202
    86.1800       188
    86.2000       202
    86.2200       226
    86.2400       220
    86.2600       188
    86.2800       216
    86.3000       190
    86.3200       186
    86.3400       196
    86.3600       212
    86.3800       200
    86.4000       230
    86.4200       186
    86.4400       226
    86.4600       202
    86.4800       226
    86.5000       230
    86.5200       210
    86.5400       246
    86.5600       210
    86.5800       254
    86.6000       202
    86.6200       228
    86.6400       234
    86.6600       242
    86.6800       238
    86.7000       292
    86.7200       280
    86.7400       292
    86.7600       270
    86.7800       266
    86.8000       306
    86.8200       304
    86.8400       334
    86.8600       300
    86.8800       348
    86.9000       346
    86.9200       358
    86.9400       356
    86.9600       398
    86.9800       374
    87.0000       410
    87.0200       350
    87.0400       376
    87.0600       382
    87.0800       388
    87.1000       354
    87.1200       384
    87.1400       396
    87.1600       362
    87.1800       380
    87.2000       386
    87.2200       392
    87.2400       382
    87.2600       390
    87.2800       414
    87.3000       362
    87.3200       386
    87.3400       418
    87.3600       390
    87.3800       404
    87.4000       410
    87.4200       380
    87.4400       366
    87.4600       392
    87.4800       342
    87.5000       386
    87.5200       330
    87.5400       380
    87.5600       358
    87.5800       362
    87.6000       370
    87.6200       402
    87.6400       384
    87.6600       374
    87.6800       372
    87.7000       376
    87.7200       392
    87.7400       388
    87.7600       394
    87.7800       390
    87.8000       402
    87.8200       388
    87.8400       406
    87.8600       380
    87.8800       374
    87.9000       374
    87.9200       400
    87.9400       390
    87.9600       386
    87.9800       380
    88.0000       362
    88.0200       364
    88.0400       370
    88.0600       422
    88.0800       352
    88.1000       384
    88.1200       374
    88.1400       380
    88.1600       338
    88.1800       382
    88.2000       324
    88.2200       340
    88.2400       356
    88.2600       334
    88.2800       322
    88.3000       318
    88.3200       320
    88.3400       316
    88.3600       264
    88.3800       314
    88.4000       278
    88.4200       340
    88.4400       320
    88.4600       310
    88.4800       304
    88.5000       324
    88.5200       288
    88.5400       270
    88.5600       274
    88.5800       288
    88.6000       300
    88.6200       282
    88.6400       276
    88.6600       248
    88.6800       304
    88.7000       306
    88.7200       308
    88.7400       252
    88.7600       304
    88.7800       268
    88.8000       292
    88.8200       276
    88.8400       266
    88.8600       264
    88.8800       270
    88.9000       264
    88.9200       284
    88.9400       272
    88.9600       280
    88.9800       258
    89.0000       280
    89.0200       280
    89.0400       272
    89.0600       264
    89.0800       252
    89.1000       266
    89.1200       238
    89.1400       276
    89.1600       232
    89.1800       256
    89.2000       256
    89.2200       224
    89.2400       240
    89.2600       266
    89.2800       238
    89.3000       274
    89.3200       258
    89.3400       252
    89.3600       278
    89.3800       280
    89.4000       252
    89.4200       282
    89.4400       314
    89.4600       308
    89.4800       274
    89.5000       266
    89.5200       260
    89.5400       270
    89.5600       290
    89.5800       308
    89.6000       304
    89.6200       268
    89.6400       294
    89.6600       284
    89.6800       330
    89.7000       308
    89.7200       290
    89.7400       306
    89.7600       264
    89.7800       298
    89.8000       296
    89.8200       308
    89.8400       318
    89.8600       322
    89.8800       332
    89.9000       314
    89.9200       322
    89.9400       338
    89.9600       308
    89.9800       336
    90.0000       338
