    10.0000       364
    10.0200       354
    10.0400       422
    10.0600       358
    10.0800       370
    10.1000       364
    10.1200       340
    10.1400       352
    10.1600       338
    10.1800       316
    10.2000       368
    10.2200       374
    10.2400       374
    10.2600       324
    10.2800       398
    10.3000       334
    10.3200       346
    10.3400       322
    10.3600       342
    10.3800       364
    10.4000       334
    10.4200       392
    10.4400       338
    10.4600       358
    10.4800       342
    10.5000       356
    10.5200       336
    10.5400       356
    10.5600       308
    10.5800       370
    10.6000       316
    10.6200       342
    10.6400       314
    10.6600       364
    10.6800       350
    10.7000       348
    10.7200       310
    10.7400       362
    10.7600       298
    10.7800       312
    10.8000       308
    10.8200       348
    10.8400       328
    10.8600       344
    10.8800       338
    10.9000       322
    10.9200       322
    10.9400       352
    10.9600       302
    10.9800       330
    11.0000       340
    11.0200       354
    11.0400       324
    11.0600       316
    11.0800       318
    11.1000       320
    11.1200       314
    11.1400       318
    11.1600       296
    11.1800       322
    11.2000       344
    11.2200       318
    11.2400       348
    11.2600       300
    11.2800       300
    11.3000       350
    11.3200       324
    11.3400       308
    11.3600       316
    11.3800       316
    11.4000       322
    11.4200       328
    11.4400       308
    11.4600       318
    11.4800       334
    11.5000       308
    11.5200       320
    11.5400       320
    11.5600       332
    11.5800       308
    11.6000       296
    11.6200       302
    11.6400       356
    11.6600       326
    11.6800       334
    11.7000       322
    11.7200       352
    11.7400       356
    11.7600       338
    11.7800       336
    11.8000       328
    11.8200       334
    11.8400       344
    11.8600       374
    11.8800       380
    11.9000       364
    11.9200       378
    11.9400       394
    11.9600       390
    11.9800       388
    12.0000       406
    12.0200       446
    12.0400       452
    12.0600       444
    12.0800       490
    12.1000       530
    12.1200       538
    12.1400       570
    12.1600       626
    12.1800       592
    12.2000       616
    12.2200       614
    12.2400       596
    12.2600       594
    12.2800       506
    12.3000       422
    12.3200       406
    12.3400       390
    12.3600       328
    12.3800       324
    12.4000       324
    12.4200       326
    12.4400       296
    12.4600       294
    12.4800       326
    12.5000       314
    12.5200       322
    12.5400       288
    12.5600       314
    12.5800       266
    12.6000       326
    12.6200       302
    12.6400       268
    12.6600       302
    12.6800       254
    12.7000       318
    12.7200       286
    12.7400       272
    12.7600       276
    12.7800       274
    12.8000       328
    12.8200       286
    12.8400       310
    12.8600       282
    12.8800       280
    12.9000       260
    12.9200       278
    12.9400       270
    12.9600       308
    12.9800       272
    13.0000       290
    13.0200       272
    13.0400       276
    13.0600       268
    13.0800       278
    13.1000       270
    13.1200       270
    13.1400       262
    13.1600       246
    13.1800       286
    13.2000       240
    13.2200       240
    13.2400       258
    13.2600       254
    13.2800       252
    13.3000       254
    13.3200       278
    13.3400       240
    13.3600       248
    13.3800       266
    13.4000       256
    13.4200       282
    13.4400       236
    13.4600       270
    13.4800       268
    13.5000       268
    13.5200       262
    13.5400       264
    13.5600       254
    13.5800       258
    13.6000       254
    13.6200       248
    13.6400       226
    13.6600       284
    13.6800       280
    13.7000       298
    13.7200       250
    13.7400       230
    13.7600       250
    13.7800       264
    13.8000       246
    13.8200       228
    13.8400       252
    13.8600       266
    13.8800       252
    13.9000       246
    13.9200       238
    13.9400       260
    13.9600       268
    13.9800       238
    14.0000       252
    14.0200       276
    14.0400       250
    14.0600       256
    14.0800       228
    14.1000       254
    14.1200       250
    14.1400       256
    14.1600       236
    14.1800       234
    14.2000       242
    14.2200       262
    14.2400       244
    14.2600       246
    14.2800       262
    14.3000       244
    14.3200       238
    14.3400       246
    14.3600       212
    14.3800       242
    14.4000       240
    14.4200       268
    14.4400       266
    14.4600       218
    14.4800       252
    14.5000       234
    14.5200       286
    14.5400       244
    14.5600       254
    14.5800       244
    14.6000       240
    14.6200       254
    14.6400       254
    14.6600       234
    14.6800       232
    14.7000       278
    14.7200       274
    14.7400       254
    14.7600       260
    14.7800       244
    14.8000       256
    14.8200       296
    14.8400       256
    14.8600       282
    14.8800       300
    14.9000       324
    14.9200       304
    14.9400       322
    14.9600       338
    14.9800       370
    15.0000       370
    15.0200       376
    15.0400       382
    15.0600       378
    15.0800       428
    15.1000       392
    15.1200       438
    15.1400       512
    15.1600       480
    15.1800       498
    15.2000       504
    15.2200       440
    15.2400       444
    15.2600       402
    15.2800       348
    15.3000       296
    15.3200       304
    15.3400       268
    15.3600       272
    15.3800       222
    15.4000       266
    15.4200       256
    15.4400       208
    15.4600       244
    15.4800       244
    15.5000       246
    15.5200       240
    15.5400       224
    15.5600       246
    15.5800       212
    15.6000       222
    15.6200       224
    15.6400       216
    15.6600       224
    15.6800       232
    15.7000       222
    15.7200       254
    15.7400       248
    15.7600       244
    15.7800       216
    15.8000       224
    15.8200       250
    15.8400       232
    15.8600       256
    15.8800       224
    15.9000       216
    15.9200       220
    15.9400       228
    15.9600       220
    15.9800       206
    16.0000       214
    16.0200       208
    16.0400       208
    16.0600       220
    16.0800       242
    16.1000       200
    16.1200       208
    16.1400       196
    16.1600       216
    16.1800       246
    16.2000       216
    16.2200       222
    16.2400       224
    16.2600       220
    16.2800       268
    16.3000       254
    16.3200       234
    16.3400       222
    16.3600       248
    16.3800       262
    16.4000       242
    16.4200       226
    16.4400       220
    16.4600       246
    16.4800       222
    16.5000       216
    16.5200       232
    16.5400       256
    16.5600       222
    16.5800       234
    16.6000       246
    16.6200       240
    16.6400       232
    16.6600       224
    16.6800       236
    16.7000       256
    16.7200       262
    16.7400       264
    16.7600       278
    16.7800       306
    16.8000       288
    16.8200       314
    16.8400       308
    16.8600       382
    16.8800       378
    16.9000       396
    16.9200       420
    16.9400       456
    16.9600       510
    16.9800       532
    17.0000       570
    17.0200       646
    17.0400       664
    17.0600       746
    17.0800       812
    17.1000       734
    17.1200       760
    17.1400       750
    17.1600       744
    17.1800       686
    17.2000       702
    17.2200       682
    17.2400       646
    17.2600       650
    17.2800       656
    17.3000       632
    17.3200       554
    17.3400       584
    17.3600       536
    17.3800       482
    17.4000       426
    17.4200       382
    17.4400       374
    17.4600       344
    17.4800       348
    17.5000       328
    17.5200       318
    17.5400       328
    17.5600       292
    17.5800       304
    17.6000       338
    17.6200       324
    17.6400       314
    17.6600       292
    17.6800       316
    17.7000       346
    17.7200       328
    17.7400       332
    17.7600       306
    17.7800       304
    17.8000       342
    17.8200       316
    17.8400       304
    17.8600       290
    17.8800       278
    17.9000       240
    17.9200       262
    17.9400       218
    17.9600       226
    17.9800       218
    18.0000       194
    18.0200       238
    18.0400       226
    18.0600       236
    18.0800       196
    18.1000       244
    18.1200       222
    18.1400       226
    18.1600       222
    18.1800       192
    18.2000       202
    18.2200       198
    18.2400       218
    18.2600       220
    18.2800       170
    18.3000       250
    18.3200       228
    18.3400       240
    18.3600       188
    18.3800       218
    18.4000       200
    18.4200       236
    18.4400       222
    18.4600       224
    18.4800       208
    18.5000       206
    18.5200       206
    18.5400       218
    18.5600       184
    18.5800       222
    18.6000       228
    18.6200       222
    18.6400       202
    18.6600       236
    18.6800       250
    18.7000       220
    18.7200       230
    18.7400       216
    18.7600       260
    18.7800       262
    18.8000       270
    18.8200       274
    18.8400       294
    18.8600       260
    18.8800       262
    18.9000       270
    18.9200       286
    18.9400       290
    18.9600       282
    18.9800       346
    19.0000       338
    19.0200       314
    19.0400       308
    19.0600       312
    19.0800       374
    19.1000       338
    19.1200       390
    19.1400       398
    19.1600       416
    19.1800       444
    19.2000       508
    19.2200       516
    19.2400       636
    19.2600       640
    19.2800       704
    19.3000       736
    19.3200       882
    19.3400       970
    19.3600      1112
    19.3800      1222
    19.4000      1460
    19.4200      1622
    19.4400      1936
    19.4600      2316
    19.4800      2512
    19.5000      2930
    19.5200      3276
    19.5400      3496
    19.5600      3754
    19.5800      3806
    19.6000      3466
    19.6200      3172
    19.6400      2736
    19.6600      2188
    19.6800      1842
    19.7000      1554
    19.7200      1224
    19.7400      1266
    19.7600      1194
    19.7800      1278
    19.8000      1224
    19.8200      1378
    19.8400      1478
    19.8600      1640
    19.8800      1706
    19.9000      2064
    19.9200      2262
    19.9400      2474
    19.9600      2668
    19.9800      2860
    20.0000      2908
    20.0200      2840
    20.0400      2716
    20.0600      2418
    20.0800      2020
    20.1000      1756
    20.1200      1380
    20.1400      1072
    20.1600       882
    20.1800       702
    20.2000       662
    20.2200       590
    20.2400       526
    20.2600       456
    20.2800       422
    20.3000       398
    20.3200       408
    20.3400       386
    20.3600       348
    20.3800       324
    20.4000       318
    20.4200       318
    20.4400       304
    20.4600       264
    20.4800       282
    20.5000       280
    20.5200       288
    20.5400       310
    20.5600       254
    20.5800       262
    20.6000       248
    20.6200       264
    20.6400       228
    20.6600       260
    20.6800       252
    20.7000       248
    20.7200       272
    20.7400       264
    20.7600       256
    20.7800       266
    20.8000       250
    20.8200       306
    20.8400       320
    20.8600       316
    20.8800       342
    20.9000       374
    20.9200       402
    20.9400       426
    20.9600       450
    20.9800       518
    21.0000       576
    21.0200       646
    21.0400       722
    21.0600       804
    21.0800       914
    21.1000      1102
    21.1200      1212
    21.1400      1364
    21.1600      1490
    21.1800      1692
    21.2000      1704
    21.2200      1862
    21.2400      1780
    21.2600      1710
    21.2800      1608
    21.3000      1352
    21.3200      1168
    21.3400      1008
    21.3600       820
    21.3800       664
    21.4000       566
    21.4200       478
    21.4400       440
    21.4600       398
    21.4800       338
    21.5000       326
    21.5200       294
    21.5400       288
    21.5600       264
    21.5800       268
    21.6000       266
    21.6200       250
    21.6400       244
    21.6600       266
    21.6800       258
    21.7000       222
    21.7200       230
    21.7400       222
    21.7600       254
    21.7800       218
    21.8000       244
    21.8200       210
    21.8400       238
    21.8600       240
    21.8800       220
    21.9000       226
    21.9200       230
    21.9400       232
    21.9600       214
    21.9800       224
    22.0000       216
    22.0200       242
    22.0400       230
    22.0600       222
    22.0800       212
    22.1000       240
    22.1200       246
    22.1400       242
    22.1600       220
    22.1800       230
    22.2000       252
    22.2200       248
    22.2400       268
    22.2600       244
    22.2800       282
    22.3000       284
    22.3200       320
    22.3400       272
    22.3600       304
    22.3800       362
    22.4000       320
    22.4200       384
    22.4400       398
    22.4600       420
    22.4800       442
    22.5000       490
    22.5200       524
    22.5400       592
    22.5600       696
    22.5800       718
    22.6000       862
    22.6200       882
    22.6400      1052
    22.6600      1196
    22.6800      1398
    22.7000      1564
    22.7200      1838
    22.7400      2226
    22.7600      2566
    22.7800      2934
    22.8000      3552
    22.8200      3884
    22.8400      4378
    22.8600      4826
    22.8800      4954
    22.9000      4820
    22.9200      4586
    22.9400      4046
    22.9600      3344
    22.9800      2720
    23.0000      2148
    23.0200      1658
    23.0400      1298
    23.0600      1024
    23.0800       892
    23.1000       760
    23.1200       662
    23.1400       666
    23.1600       590
    23.1800       532
    23.2000       500
    23.2200       450
    23.2400       396
    23.2600       366
    23.2800       384
    23.3000       370
    23.3200       350
    23.3400       304
    23.3600       296
    23.3800       294
    23.4000       314
    23.4200       298
    23.4400       288
    23.4600       264
    23.4800       272
    23.5000       240
    23.5200       252
    23.5400       280
    23.5600       258
    23.5800       268
    23.6000       272
    23.6200       274
    23.6400       242
    23.6600       242
    23.6800       218
    23.7000       230
    23.7200       256
    23.7400       228
    23.7600       242
    23.7800       272
    23.8000       250
    23.8200       224
    23.8400       274
    23.8600       218
    23.8800       248
    23.9000       252
    23.9200       248
    23.9400       250
    23.9600       254
    23.9800       234
    24.0000       248
    24.0200       248
    24.0400       258
    24.0600       248
    24.0800       254
    24.1000       278
    24.1200       248
    24.1400       312
    24.1600       258
    24.1800       312
    24.2000       304
    24.2200       312
    24.2400       362
    24.2600       370
    24.2800       380
    24.3000       452
    24.3200       498
    24.3400       504
    24.3600       540
    24.3800       608
    24.4000       682
    24.4200       776
    24.4400       804
    24.4600       872
    24.4800      1062
    24.5000      1060
    24.5200      1124
    24.5400      1232
    24.5600      1194
    24.5800      1174
    24.6000      1152
    24.6200      1042
    24.6400       982
    24.6600       934
    24.6800       818
    24.7000       784
    24.7200       706
    24.7400       640
    24.7600       584
    24.7800       544
    24.8000       542
    24.8200       468
    24.8400       464
    24.8600       424
    24.8800       392
    24.9000       418
    24.9200       416
    24.9400       418
    24.9600       414
    24.9800       398
    25.0000       394
    25.0200       396
    25.0400       404
    25.0600       386
    25.0800       428
    25.1000       440
    25.1200       472
    25.1400       486
    25.1600       512
    25.1800       550
    25.2000       540
    25.2200       484
    25.2400       490
    25.2600       536
    25.2800       626
    25.3000       560
    25.3200       530
    25.3400       524
    25.3600       660
    25.3800       618
    25.4000       632
    25.4200       608
    25.4400       656
    25.4600       722
    25.4800       794
    25.5000       808
    25.5200       894
    25.5400       998
    25.5600      1110
    25.5800      1176
    25.6000      1278
    25.6200      1222
    25.6400      1216
    25.6600      1246
    25.6800      1106
    25.7000      1012
    25.7200       842
    25.7400       778
    25.7600       644
    25.7800       572
    25.8000       510
    25.8200       442
    25.8400       414
    25.8600       414
    25.8800       380
    25.9000       316
    25.9200       360
    25.9400       358
    25.9600       358
    25.9800       360
    26.0000       288
    26.0200       296
    26.0400       310
    26.0600       260
    26.0800       292
    26.1000       280
    26.1200       308
    26.1400       296
    26.1600       292
    26.1800       302
    26.2000       332
    26.2200       306
    26.2400       354
    26.2600       276
    26.2800       298
    26.3000       302
    26.3200       318
    26.3400       324
    26.3600       378
    26.3800       360
    26.4000       382
    26.4200       424
    26.4400       364
    26.4600       422
    26.4800       420
    26.5000       460
    26.5200       460
    26.5400       478
    26.5600       474
    26.5800       516
    26.6000       522
    26.6200       542
    26.6400       574
    26.6600       596
    26.6800       520
    26.7000       528
    26.7200       506
    26.7400       510
    26.7600       444
    26.7800       462
    26.8000       428
    26.8200       368
    26.8400       390
    26.8600       332
    26.8800       322
    26.9000       302
    26.9200       300
    26.9400       286
    26.9600       284
    26.9800       286
    27.0000       298
    27.0200       256
    27.0400       306
    27.0600       318
    27.0800       300
    27.1000       304
    27.1200       340
    27.1400       316
    27.1600       322
    27.1800       344
    27.2000       356
    27.2200       368
    27.2400       388
    27.2600       426
    27.2800       470
    27.3000       524
    27.3200       534
    27.3400       588
    27.3600       680
    27.3800       740
    27.4000       864
    27.4200       980
    27.4400       990
    27.4600      1076
    27.4800      1130
    27.5000      1132
    27.5200      1136
    27.5400      1164
    27.5600      1044
    27.5800      1014
    27.6000       870
    27.6200       824
    27.6400       710
    27.6600       598
    27.6800       568
    27.7000       496
    27.7200       470
    27.7400       424
    27.7600       372
    27.7800       400
    27.8000       342
    27.8200       338
    27.8400       334
    27.8600       316
    27.8800       328
    27.9000       324
    27.9200       308
    27.9400       316
    27.9600       320
    27.9800       324
    28.0000       342
    28.0200       314
    28.0400       304
    28.0600       296
    28.0800       310
    28.1000       358
    28.1200       356
    28.1400       336
    28.1600       348
    28.1800       368
    28.2000       406
    28.2200       436
    28.2400       424
    28.2600       476
    28.2800       426
    28.3000       436
    28.3200       454
    28.3400       404
    28.3600       382
    28.3800       354
    28.4000       374
    28.4200       304
    28.4400       286
    28.4600       328
    28.4800       286
    28.5000       264
    28.5200       260
    28.5400       284
    28.5600       266
    28.5800       238
    28.6000       258
    28.6200       248
    28.6400       232
    28.6600       234
    28.6800       264
    28.7000       222
    28.7200       256
    28.7400       268
    28.7600       242
    28.7800       258
    28.8000       248
    28.8200       258
    28.8400       250
    28.8600       236
    28.8800       218
    28.9000       236
    28.9200       224
    28.9400       240
    28.9600       242
    28.9800       244
    29.0000       238
    29.0200       252
    29.0400       244
    29.0600       236
    29.0800       260
    29.1000       230
    29.1200       270
    29.1400       234
    29.1600       238
    29.1800       236
    29.2000       242
    29.2200       228
    29.2400       276
    29.2600       278
    29.2800       278
    29.3000       290
    29.3200       320
    29.3400       300
    29.3600       298
    29.3800       300
    29.4000       324
    29.4200       320
    29.4400       350
    29.4600       336
    29.4800       350
    29.5000       392
    29.5200       394
    29.5400       396
    29.5600       422
    29.5800       408
    29.6000       396
    29.6200       428
    29.6400       418
    29.6600       394
    29.6800       412
    29.7000       410
    29.7200       410
    29.7400       394
    29.7600       342
    29.7800       352
    29.8000       384
    29.8200       410
    29.8400       386
    29.8600       432
    29.8800       414
    29.9000       440
    29.9200       490
    29.9400       518
    29.9600       544
    29.9800       632
    30.0000       678
    30.0200       748
    30.0400       902
    30.0600       966
    30.0800      1108
    30.1000      1284
    30.1200      1362
    30.1400      1554
    30.1600      1680
    30.1800      1716
    30.2000      1820
    30.2200      1886
    30.2400      1828
    30.2600      1708
    30.2800      1598
    30.3000      1586
    30.3200      1496
    30.3400      1386
    30.3600      1296
    30.3800      1284
    30.4000      1230
    30.4200      1230
    30.4400      1302
    30.4600      1254
    30.4800      1282
    30.5000      1370
    30.5200      1374
    30.5400      1508
    30.5600      1568
    30.5800      1748
    30.6000      1794
    30.6200      1848
    30.6400      1922
    30.6600      1830
    30.6800      1842
    30.7000      1754
    30.7200      1612
    30.7400      1452
    30.7600      1248
    30.7800      1142
    30.8000      1034
    30.8200       886
    30.8400       794
    30.8600       696
    30.8800       658
    30.9000       578
    30.9200       570
    30.9400       526
    30.9600       574
    30.9800       522
    31.0000       538
    31.0200       512
    31.0400       556
    31.0600       484
    31.0800       566
    31.1000       550
    31.1200       514
    31.1400       548
    31.1600       526
    31.1800       578
    31.2000       588
    31.2200       550
    31.2400       572
    31.2600       542
    31.2800       502
    31.3000       492
    31.3200       476
    31.3400       472
    31.3600       380
    31.3800       438
    31.4000       386
    31.4200       358
    31.4400       338
    31.4600       368
    31.4800       390
    31.5000       394
    31.5200       368
    31.5400       422
    31.5600       424
    31.5800       454
    31.6000       452
    31.6200       440
    31.6400       444
    31.6600       496
    31.6800       520
    31.7000       592
    31.7200       630
    31.7400       652
    31.7600       688
    31.7800       780
    31.8000       854
    31.8200       990
    31.8400       988
    31.8600      1204
    31.8800      1380
    31.9000      1476
    31.9200      1670
    31.9400      1970
    31.9600      2140
    31.9800      2392
    32.0000      2512
    32.0200      2730
    32.0400      2738
    32.0600      2660
    32.0800      2506
    32.1000      2336
    32.1200      2162
    32.1400      1846
    32.1600      1762
    32.1800      1554
    32.2000      1516
    32.2200      1502
    32.2400      1538
    32.2600      1586
    32.2800      1660
    32.3000      1776
    32.3200      1982
    32.3400      2096
    32.3600      2432
    32.3800      2698
    32.4000      3184
    32.4200      3698
    32.4400      4216
    32.4600      4758
    32.4800      5520
    32.5000      6404
    32.5200      7186
    32.5400      7962
    32.5600      8610
    32.5800      8824
    32.6000      8782
    32.6200      8506
    32.6400      8016
    32.6600      7292
    32.6800      6564
    32.7000      5628
    32.7200      4830
    32.7400      4132
    32.7600      3510
    32.7800      2842
    32.8000      2390
    32.8200      2100
    32.8400      1890
    32.8600      1730
    32.8800      1502
    32.9000      1408
    32.9200      1358
    32.9400      1308
    32.9600      1374
    32.9800      1444
    33.0000      1482
    33.0200      1500
    33.0400      1674
    33.0600      1708
    33.0800      1690
    33.1000      1872
    33.1200      1778
    33.1400      1792
    33.1600      1668
    33.1800      1598
    33.2000      1426
    33.2200      1200
    33.2400      1046
    33.2600       952
    33.2800       786
    33.3000       698
    33.3200       634
    33.3400       560
    33.3600       504
    33.3800       464
    33.4000       490
    33.4200       442
    33.4400       408
    33.4600       396
    33.4800       348
    33.5000       350
    33.5200       342
    33.5400       296
    33.5600       296
    33.5800       268
    33.6000       304
    33.6200       292
    33.6400       274
    33.6600       270
    33.6800       234
    33.7000       258
    33.7200       242
    33.7400       252
    33.7600       228
    33.7800       238
    33.8000       272
    33.8200       262
    33.8400       264
    33.8600       244
    33.8800       220
    33.9000       222
    33.9200       228
    33.9400       250
    33.9600       242
    33.9800       244
    34.0000       206
    34.0200       228
    34.0400       256
    34.0600       266
    34.0800       236
    34.1000       222
    34.1200       276
    34.1400       234
    34.1600       240
    34.1800       256
    34.2000       238
    34.2200       244
    34.2400       236
    34.2600       224
    34.2800       250
    34.3000       228
    34.3200       264
    34.3400       232
    34.3600       254
    34.3800       254
    34.4000       278
    34.4200       276
    34.4400       264
    34.4600       260
    34.4800       280
    34.5000       284
    34.5200       302
    34.5400       322
    34.5600       292
    34.5800       314
    34.6000       260
    34.6200       294
    34.6400       304
    34.6600       286
    34.6800       344
    34.7000       298
    34.7200       288
    34.7400       318
    34.7600       294
    34.7800       320
    34.8000       328
    34.8200       290
    34.8400       286
    34.8600       322
    34.8800       300
    34.9000       300
    34.9200       314
    34.9400       310
    34.9600       304
    34.9800       340
    35.0000       380
    35.0200       326
    35.0400       360
    35.0600       350
    35.0800       358
    35.1000       354
    35.1200       366
    35.1400       334
    35.1600       334
    35.1800       312
    35.2000       330
    35.2200       320
    35.2400       322
    35.2600       242
    35.2800       250
    35.3000       250
    35.3200       280
    35.3400       268
    35.3600       264
    35.3800       270
    35.4000       218
    35.4200       244
    35.4400       248
    35.4600       242
    35.4800       240
    35.5000       250
    35.5200       236
    35.5400       216
    35.5600       268
    35.5800       258
    35.6000       270
    35.6200       252
    35.6400       268
    35.6600       340
    35.6800       290
    35.7000       290
    35.7200       314
    35.7400       306
    35.7600       338
    35.7800       314
    35.8000       332
    35.8200       376
    35.8400       354
    35.8600       364
    35.8800       362
    35.9000       384
    35.9200       430
    35.9400       450
    35.9600       436
    35.9800       448
    36.0000       484
    36.0200       534
    36.0400       532
    36.0600       586
    36.0800       656
    36.1000       688
    36.1200       746
    36.1400       774
    36.1600       832
    36.1800       800
    36.2000       838
    36.2200       796
    36.2400       718
    36.2600       728
    36.2800       608
    36.3000       608
    36.3200       550
    36.3400       496
    36.3600       482
    36.3800       406
    36.4000       386
    36.4200       444
    36.4400       406
    36.4600       380
    36.4800       422
    36.5000       406
    36.5200       410
    36.5400       482
    36.5600       446
    36.5800       494
    36.6000       482
    36.6200       536
    36.6400       532
    36.6600       632
    36.6800       710
    36.7000       790
    36.7200       828
    36.7400       962
    36.7600      1034
    36.7800      1202
    36.8000      1272
    36.8200      1528
    36.8400      1730
    36.8600      1946
    36.8800      2108
    36.9000      2192
    36.9200      2212
    36.9400      2178
    36.9600      2096
    36.9800      2094
    37.0000      1898
    37.0200      1754
    37.0400      1728
    37.0600      1438
    37.0800      1328
    37.1000      1224
    37.1200      1154
    37.1400      1112
    37.1600      1042
    37.1800      1010
    37.2000       966
    37.2200       980
    37.2400       904
    37.2600       806
    37.2800       856
    37.3000       806
    37.3200       648
    37.3400       662
    37.3600       674
    37.3800       618
    37.4000       604
    37.4200       568
    37.4400       586
    37.4600       552
    37.4800       580
    37.5000       602
    37.5200       616
    37.5400       614
    37.5600       620
    37.5800       594
    37.6000       660
    37.6200       728
    37.6400       678
    37.6600       698
    37.6800       720
    37.7000       778
    37.7200       706
    37.7400       768
    37.7600       804
    37.7800       820
    37.8000       848
    37.8200       902
    37.8400       938
    37.8600      1018
    37.8800      1146
    37.9000      1212
    37.9200      1248
    37.9400      1498
    37.9600      1626
    37.9800      1810
    38.0000      2014
    38.0200      2202
    38.0400      2238
    38.0600      2316
    38.0800      2340
    38.1000      2336
    38.1200      2136
    38.1400      2054
    38.1600      2018
    38.1800      1862
    38.2000      1752
    38.2200      1746
    38.2400      1814
    38.2600      1778
    38.2800      1788
    38.3000      1794
    38.3200      2004
    38.3400      2156
    38.3600      2416
    38.3800      2728
    38.4000      2930
    38.4200      3338
    38.4400      3676
    38.4600      4016
    38.4800      4460
    38.5000      4828
    38.5200      4938
    38.5400      4976
    38.5600      5232
    38.5800      5258
    38.6000      5056
    38.6200      4968
    38.6400      4866
    38.6600      4846
    38.6800      4656
    38.7000      4716
    38.7200      4542
    38.7400      4354
    38.7600      4286
    38.7800      4124
    38.8000      3954
    38.8200      3740
    38.8400      3292
    38.8600      2946
    38.8800      2576
    38.9000      2368
    38.9200      2174
    38.9400      1906
    38.9600      1732
    38.9800      1458
    39.0000      1370
    39.0200      1280
    39.0400      1160
    39.0600      1168
    39.0800      1182
    39.1000      1086
    39.1200      1080
    39.1400      1032
    39.1600      1056
    39.1800      1024
    39.2000      1012
    39.2200      1098
    39.2400      1072
    39.2600      1060
    39.2800      1104
    39.3000      1124
    39.3200      1066
    39.3400      1086
    39.3600      1070
    39.3800      1104
    39.4000      1100
    39.4200      1110
    39.4400      1094
    39.4600      1054
    39.4800      1072
    39.5000      1108
    39.5200      1182
    39.5400      1248
    39.5600      1364
    39.5800      1402
    39.6000      1620
    39.6200      1744
    39.6400      1858
    39.6600      2096
    39.6800      2362
    39.7000      2526
    39.7200      2684
    39.7400      2712
    39.7600      2678
    39.7800      2574
    39.8000      2360
    39.8200      2258
    39.8400      1934
    39.8600      1804
    39.8800      1592
    39.9000      1364
    39.9200      1272
    39.9400      1146
    39.9600      1000
    39.9800       914
    40.0000       864
    40.0200       822
    40.0400       736
    40.0600       740
    40.0800       778
    40.1000       682
    40.1200       640
    40.1400       698
    40.1600       642
    40.1800       690
    40.2000       640
    40.2200       630
    40.2400       636
    40.2600       672
    40.2800       666
    40.3000       730
    40.3200       708
    40.3400       718
    40.3600       736
    40.3800       740
    40.4000       826
    40.4200       856
    40.4400       970
    40.4600       992
    40.4800       964
    40.5000      1190
    40.5200      1272
    40.5400      1368
    40.5600      1402
    40.5800      1516
    40.6000      1546
    40.6200      1614
    40.6400      1626
    40.6600      1546
    40.6800      1526
    40.7000      1488
    40.7200      1350
    40.7400      1284
    40.7600      1224
    40.7800      1094
    40.8000      1018
    40.8200       966
    40.8400       868
    40.8600       804
    40.8800       756
    40.9000       738
    40.9200       672
    40.9400       708
    40.9600       700
    40.9800       668
    41.0000       676
    41.0200       688
    41.0400       690
    41.0600       744
    41.0800       778
    41.1000       810
    41.1200       854
    41.1400       950
    41.1600      1072
    41.1800      1078
    41.2000      1184
    41.2200      1294
    41.2400      1386
    41.2600      1404
    41.2800      1480
    41.3000      1622
    41.3200      1512
    41.3400      1598
    41.3600      1492
    41.3800      1460
    41.4000      1420
    41.4200      1272
    41.4400      1260
    41.4600      1182
    41.4800      1108
    41.5000      1040
    41.5200      1024
    41.5400       974
    41.5600       892
    41.5800       882
    41.6000       824
    41.6200       810
    41.6400       804
    41.6600       818
    41.6800       774
    41.7000       816
    41.7200       914
    41.7400       930
    41.7600      1054
    41.7800      1128
    41.8000      1204
    41.8200      1372
    41.8400      1492
    41.8600      1690
    41.8800      1784
    41.9000      1848
    41.9200      1876
    41.9400      1962
    41.9600      1890
    41.9800      1834
    42.0000      1786
    42.0200      1706
    42.0400      1586
    42.0600      1390
    42.0800      1336
    42.1000      1212
    42.1200      1070
    42.1400       936
    42.1600       844
    42.1800       804
    42.2000       654
    42.2200       636
    42.2400       596
    42.2600       588
    42.2800       524
    42.3000       538
    42.3200       504
    42.3400       474
    42.3600       444
    42.3800       446
    42.4000       460
    42.4200       448
    42.4400       384
    42.4600       426
    42.4800       380
    42.5000       442
    42.5200       386
    42.5400       408
    42.5600       384
    42.5800       364
    42.6000       386
    42.6200       396
    42.6400       396
    42.6600       364
    42.6800       450
    42.7000       412
    42.7200       404
    42.7400       418
    42.7600       400
    42.7800       426
    42.8000       464
    42.8200       394
    42.8400       434
    42.8600       528
    42.8800       498
    42.9000       522
    42.9200       598
    42.9400       582
    42.9600       616
    42.9800       662
    43.0000       742
    43.0200       774
    43.0400       862
    43.0600       958
    43.0800      1064
    43.1000      1190
    43.1200      1272
    43.1400      1470
    43.1600      1638
    43.1800      1796
    43.2000      1950
    43.2200      1978
    43.2400      2100
    43.2600      2090
    43.2800      2026
    43.3000      1914
    43.3200      1854
    43.3400      1684
    43.3600      1540
    43.3800      1450
    43.4000      1236
    43.4200      1176
    43.4400      1044
    43.4600       912
    43.4800       844
    43.5000       802
    43.5200       746
    43.5400       670
    43.5600       614
    43.5800       576
    43.6000       610
    43.6200       626
    43.6400       598
    43.6600       552
    43.6800       620
    43.7000       646
    43.7200       648
    43.7400       650
    43.7600       672
    43.7800       718
    43.8000       738
    43.8200       760
    43.8400       806
    43.8600       794
    43.8800       826
    43.9000       766
    43.9200       770
    43.9400       700
    43.9600       694
    43.9800       630
    44.0000       646
    44.0200       614
    44.0400       580
    44.0600       548
    44.0800       574
    44.1000       466
    44.1200       494
    44.1400       454
    44.1600       472
    44.1800       450
    44.2000       460
    44.2200       428
    44.2400       444
    44.2600       424
    44.2800       472
    44.3000       454
    44.3200       440
    44.3400       424
    44.3600       422
    44.3800       438
    44.4000       454
    44.4200       420
    44.4400       460
    44.4600       474
    44.4800       456
    44.5000       480
    44.5200       560
    44.5400       522
    44.5600       514
    44.5800       600
    44.6000       602
    44.6200       562
    44.6400       618
    44.6600       598
    44.6800       674
    44.7000       724
    44.7200       662
    44.7400       694
    44.7600       764
    44.7800       768
    44.8000       824
    44.8200       784
    44.8400       846
    44.8600       836
    44.8800       932
    44.9000       966
    44.9200       972
    44.9400      1060
    44.9600      1204
    44.9800      1144
    45.0000      1290
    45.0200      1444
    45.0400      1540
    45.0600      1510
    45.0800      1604
    45.1000      1604
    45.1200      1576
    45.1400      1566
    45.1600      1630
    45.1800      1568
    45.2000      1446
    45.2200      1440
    45.2400      1400
    45.2600      1322
    45.2800      1266
    45.3000      1174
    45.3200      1118
    45.3400      1040
    45.3600       948
    45.3800       968
    45.4000       900
    45.4200       826
    45.4400       838
    45.4600       826
    45.4800       722
    45.5000       724
    45.5200       668
    45.5400       652
    45.5600       674
    45.5800       632
    45.6000       652
    45.6200       574
    45.6400       606
    45.6600       618
    45.6800       640
    45.7000       634
    45.7200       626
    45.7400       592
    45.7600       602
    45.7800       634
    45.8000       616
    45.8200       590
    45.8400       598
    45.8600       610
    45.8800       662
    45.9000       610
    45.9200       624
    45.9400       652
    45.9600       592
    45.9800       634
    46.0000       594
    46.0200       600
    46.0400       598
    46.0600       630
    46.0800       644
    46.1000       588
    46.1200       630
    46.1400       692
    46.1600       744
    46.1800       754
    46.2000       796
    46.2200       818
    46.2400       822
    46.2600       884
    46.2800       950
    46.3000       948
    46.3200      1086
    46.3400      1142
    46.3600      1228
    46.3800      1454
    46.4000      1486
    46.4200      1654
    46.4400      1760
    46.4600      1878
    46.4800      2132
    46.5000      2400
    46.5200      2648
    46.5400      3052
    46.5600      3458
    46.5800      3948
    46.6000      4316
    46.6200      5140
    46.6400      5680
    46.6600      6424
    46.6800      7106
    46.7000      7654
    46.7200      8264
    46.7400      8570
    46.7600      8748
    46.7800      8348
    46.8000      8104
    46.8200      7706
    46.8400      7112
    46.8600      6648
    46.8800      6018
    46.9000      5642
    46.9200      4834
    46.9400      4292
    46.9600      3678
    46.9800      3312
    47.0000      2880
    47.0200      2474
    47.0400      2170
    47.0600      2036
    47.0800      1786
    47.1000      1628
    47.1200      1546
    47.1400      1338
    47.1600      1258
    47.1800      1128
    47.2000      1060
    47.2200       996
    47.2400      1024
    47.2600       830
    47.2800       858
    47.3000       816
    47.3200       726
    47.3400       722
    47.3600       694
    47.3800       662
    47.4000       612
    47.4200       610
    47.4400       646
    47.4600       532
    47.4800       564
    47.5000       520
    47.5200       516
    47.5400       534
    47.5600       512
    47.5800       542
    47.6000       556
    47.6200       538
    47.6400       584
    47.6600       550
    47.6800       570
    47.7000       536
    47.7200       640
    47.7400       652
    47.7600       666
    47.7800       652
    47.8000       746
    47.8200       780
    47.8400       794
    47.8600       894
    47.8800       882
    47.9000       846
    47.9200       854
    47.9400       884
    47.9600       862
    47.9800       852
    48.0000       914
    48.0200       886
    48.0400       828
    48.0600       856
    48.0800       820
    48.1000       776
    48.1200       802
    48.1400       788
    48.1600       816
    48.1800       876
    48.2000       916
    48.2200       944
    48.2400       988
    48.2600       966
    48.2800      1040
    48.3000       950
    48.3200      1028
    48.3400       960
    48.3600       966
    48.3800       958
    48.4000       968
    48.4200       922
    48.4400       892
    48.4600       990
    48.4800      1032
    48.5000       954
    48.5200      1008
    48.5400       996
    48.5600      1046
    48.5800      1032
    48.6000      1094
    48.6200      1094
    48.6400      1088
    48.6600      1116
    48.6800      1018
    48.7000      1056
    48.7200       946
    48.7400       988
    48.7600       924
    48.7800       872
    48.8000       776
    48.8200       792
    48.8400       782
    48.8600       702
    48.8800       668
    48.9000       594
    48.9200       546
    48.9400       578
    48.9600       516
    48.9800       480
    49.0000       492
    49.0200       438
    49.0400       418
    49.0600       414
    49.0800       434
    49.1000       400
    49.1200       380
    49.1400       376
    49.1600       372
    49.1800       356
    49.2000       342
    49.2200       354
    49.2400       390
    49.2600       334
    49.2800       326
    49.3000       304
    49.3200       308
    49.3400       298
    49.3600       306
    49.3800       308
    49.4000       304
    49.4200       334
    49.4400       306
    49.4600       316
    49.4800       334
    49.5000       310
    49.5200       320
    49.5400       300
    49.5600       362
    49.5800       322
    49.6000       336
    49.6200       334
    49.6400       344
    49.6600       356
    49.6800       340
    49.7000       380
    49.7200       348
    49.7400       346
    49.7600       356
    49.7800       374
    49.8000       370
    49.8200       376
    49.8400       378
    49.8600       376
    49.8800       386
    49.9000       408
    49.9200       406
    49.9400       386
    49.9600       458
    49.9800       448
    50.0000       508
    50.0200       484
    50.0400       538
    50.0600       512
    50.0800       572
    50.1000       640
    50.1200       690
    50.1400       688
    50.1600       712
    50.1800       774
    50.2000       868
    50.2200       906
    50.2400       996
    50.2600      1040
    50.2800      1106
    50.3000      1184
    50.3200      1244
    50.3400      1312
    50.3600      1282
    50.3800      1310
    50.4000      1282
    50.4200      1212
    50.4400      1226
    50.4600      1226
    50.4800      1132
    50.5000      1088
    50.5200      1020
    50.5400      1060
    50.5600      1086
    50.5800       982
    50.6000       974
    50.6200       964
    50.6400       978
    50.6600       986
    50.6800       940
    50.7000       984
    50.7200      1004
    50.7400       972
    50.7600      1024
    50.7800       982
    50.8000      1060
    50.8200      1002
    50.8400      1132
    50.8600      1090
    50.8800      1044
    50.9000      1140
    50.9200      1062
    50.9400      1044
    50.9600      1106
    50.9800      1070
    51.0000       982
    51.0200       984
    51.0400       952
    51.0600      1026
    51.0800       930
    51.1000       888
    51.1200       838
    51.1400       854
    51.1600       798
    51.1800       736
    51.2000       726
    51.2200       716
    51.2400       686
    51.2600       752
    51.2800       660
    51.3000       664
    51.3200       698
    51.3400       748
    51.3600       748
    51.3800       796
    51.4000       810
    51.4200       810
    51.4400       886
    51.4600       846
    51.4800       866
    51.5000       846
    51.5200       802
    51.5400       846
    51.5600       858
    51.5800       856
    51.6000       798
    51.6200       850
    51.6400       820
    51.6600       822
    51.6800       900
    51.7000       882
    51.7200       888
    51.7400       930
    51.7600       966
    51.7800      1020
    51.8000      1080
    51.8200      1078
    51.8400      1122
    51.8600      1184
    51.8800      1248
    51.9000      1252
    51.9200      1290
    51.9400      1306
    51.9600      1396
    51.9800      1300
    52.0000      1330
    52.0200      1284
    52.0400      1210
    52.0600      1260
    52.0800      1086
    52.1000      1074
    52.1200       976
    52.1400       980
    52.1600       926
    52.1800       838
    52.2000       856
    52.2200       798
    52.2400       778
    52.2600       740
    52.2800       704
    52.3000       730
    52.3200       756
    52.3400       734
    52.3600       738
    52.3800       750
    52.4000       862
    52.4200       818
    52.4400       874
    52.4600       958
    52.4800       998
    52.5000      1042
    52.5200      1184
    52.5400      1210
    52.5600      1272
    52.5800      1374
    52.6000      1484
    52.6200      1496
    52.6400      1540
    52.6600      1560
    52.6800      1566
    52.7000      1470
    52.7200      1438
    52.7400      1444
    52.7600      1384
    52.7800      1352
    52.8000      1234
    52.8200      1168
    52.8400      1244
    52.8600      1160
    52.8800      1102
    52.9000       996
    52.9200       944
    52.9400       922
    52.9600       916
    52.9800       878
    53.0000       828
    53.0200       872
    53.0400       814
    53.0600       880
    53.0800       916
    53.1000       974
    53.1200      1020
    53.1400      1030
    53.1600      1122
    53.1800      1212
    53.2000      1288
    53.2200      1430
    53.2400      1560
    53.2600      1628
    53.2800      1722
    53.3000      1806
    53.3200      1828
    53.3400      1784
    53.3600      1824
    53.3800      1686
    53.4000      1688
    53.4200      1560
    53.4400      1510
    53.4600      1382
    53.4800      1326
    53.5000      1224
    53.5200      1114
    53.5400      1028
    53.5600       948
    53.5800       864
    53.6000       778
    53.6200       726
    53.6400       724
    53.6600       636
    53.6800       658
    53.7000       558
    53.7200       580
    53.7400       548
    53.7600       492
    53.7800       492
    53.8000       476
    53.8200       506
    53.8400       456
    53.8600       478
    53.8800       414
    53.9000       402
    53.9200       424
    53.9400       394
    53.9600       432
    53.9800       406
    54.0000       430
    54.0200       440
    54.0400       424
    54.0600       422
    54.0800       388
    54.1000       408
    54.1200       408
    54.1400       418
    54.1600       382
    54.1800       430
    54.2000       404
    54.2200       438
    54.2400       468
    54.2600       430
    54.2800       426
    54.3000       386
    54.3200       446
    54.3400       466
    54.3600       456
    54.3800       482
    54.4000       498
    54.4200       474
    54.4400       494
    54.4600       480
    54.4800       548
    54.5000       560
    54.5200       540
    54.5400       584
    54.5600       600
    54.5800       610
    54.6000       618
    54.6200       724
    54.6400       702
    54.6600       762
    54.6800       760
    54.7000       814
    54.7200       832
    54.7400       914
    54.7600       896
    54.7800       936
    54.8000       966
    54.8200       880
    54.8400       916
    54.8600       886
    54.8800       854
    54.9000       824
    54.9200       900
    54.9400       770
    54.9600       790
    54.9800       826
    55.0000       888
    55.0200       774
    55.0400       766
    55.0600       774
    55.0800       798
    55.1000       864
    55.1200       842
    55.1400       850
    55.1600       824
    55.1800       864
    55.2000       892
    55.2200       890
    55.2400       862
    55.2600       854
    55.2800       816
    55.3000       796
    55.3200       802
    55.3400       788
    55.3600       740
    55.3800       708
    55.4000       710
    55.4200       702
    55.4400       664
    55.4600       648
    55.4800       618
    55.5000       584
    55.5200       570
    55.5400       566
    55.5600       504
    55.5800       526
    55.6000       512
    55.6200       460
    55.6400       436
    55.6600       436
    55.6800       386
    55.7000       448
    55.7200       444
    55.7400       424
    55.7600       442
    55.7800       440
    55.8000       394
    55.8200       386
    55.8400       390
    55.8600       360
    55.8800       390
    55.9000       362
    55.9200       378
    55.9400       370
    55.9600       332
    55.9800       338
    56.0000       354
    56.0200       330
    56.0400       340
    56.0600       314
    56.0800       324
    56.1000       314
    56.1200       316
    56.1400       316
    56.1600       298
    56.1800       276
    56.2000       332
    56.2200       312
    56.2400       308
    56.2600       312
    56.2800       338
    56.3000       268
    56.3200       310
    56.3400       320
    56.3600       290
    56.3800       336
    56.4000       340
    56.4200       346
    56.4400       344
    56.4600       358
    56.4800       334
    56.5000       336
    56.5200       366
    56.5400       358
    56.5600       356
    56.5800       374
    56.6000       348
    56.6200       354
    56.6400       378
    56.6600       430
    56.6800       440
    56.7000       422
    56.7200       376
    56.7400       426
    56.7600       426
    56.7800       404
    56.8000       380
    56.8200       446
    56.8400       436
    56.8600       418
    56.8800       458
    56.9000       462
    56.9200       462
    56.9400       494
    56.9600       516
    56.9800       448
    57.0000       482
    57.0200       494
    57.0400       530
    57.0600       526
    57.0800       592
    57.1000       592
    57.1200       602
    57.1400       612
    57.1600       682
    57.1800       724
    57.2000       738
    57.2200       826
    57.2400       922
    57.2600      1016
    57.2800      1070
    57.3000      1170
    57.3200      1304
    57.3400      1412
    57.3600      1552
    57.3800      1650
    57.4000      1832
    57.4200      1772
    57.4400      1840
    57.4600      1806
    57.4800      1814
    57.5000      1752
    57.5200      1698
    57.5400      1712
    57.5600      1694
    57.5800      1740
    57.6000      1644
    57.6200      1698
    57.6400      1668
    57.6600      1634
    57.6800      1614
    57.7000      1754
    57.7200      1782
    57.7400      1732
    57.7600      1814
    57.7800      1866
    57.8000      1782
    57.8200      1762
    57.8400      1748
    57.8600      1684
    57.8800      1664
    57.9000      1570
    57.9200      1520
    57.9400      1452
    57.9600      1404
    57.9800      1386
    58.0000      1262
    58.0200      1256
    58.0400      1152
    58.0600      1024
    58.0800      1032
    58.1000       932
    58.1200       996
    58.1400       892
    58.1600       946
    58.1800       910
    58.2000       980
    58.2200       952
    58.2400      1022
    58.2600      1066
    58.2800      1094
    58.3000      1130
    58.3200      1234
    58.3400      1280
    58.3600      1320
    58.3800      1376
    58.4000      1544
    58.4200      1616
    58.4400      1700
    58.4600      1808
    58.4800      1894
    58.5000      1952
    58.5200      2100
    58.5400      2280
    58.5600      2414
    58.5800      2484
    58.6000      2586
    58.6200      2652
    58.6400      2698
    58.6600      2980
    58.6800      2948
    58.7000      3012
    58.7200      3172
    58.7400      3340
    58.7600      3332
    58.7800      3318
    58.8000      3342
    58.8200      3266
    58.8400      3146
    58.8600      3110
    58.8800      3074
    58.9000      2726
    58.9200      2636
    58.9400      2538
    58.9600      2398
    58.9800      2270
    59.0000      2098
    59.0200      1898
    59.0400      1754
    59.0600      1682
    59.0800      1548
    59.1000      1332
    59.1200      1280
    59.1400      1202
    59.1600      1038
    59.1800      1086
    59.2000       970
    59.2200       912
    59.2400       908
    59.2600       850
    59.2800       838
    59.3000       848
    59.3200       846
    59.3400       768
    59.3600       780
    59.3800       770
    59.4000       796
    59.4200       778
    59.4400       800
    59.4600       756
    59.4800       758
    59.5000       814
    59.5200       766
    59.5400       792
    59.5600       740
    59.5800       780
    59.6000       808
    59.6200       778
    59.6400       760
    59.6600       798
    59.6800       808
    59.7000       766
    59.7200       850
    59.7400       812
    59.7600       780
    59.7800       790
    59.8000       746
    59.8200       758
    59.8400       770
    59.8600       688
    59.8800       720
    59.9000       686
    59.9200       664
    59.9400       676
    59.9600       666
    59.9800       624
    60.0000       638
    60.0200       638
    60.0400       576
    60.0600       564
    60.0800       522
    60.1000       494
    60.1200       474
    60.1400       510
    60.1600       484
    60.1800       442
    60.2000       426
    60.2200       440
    60.2400       404
    60.2600       400
    60.2800       416
    60.3000       374
    60.3200       422
    60.3400       436
    60.3600       382
    60.3800       376
    60.4000       346
    60.4200       366
    60.4400       410
    60.4600       340
    60.4800       402
    60.5000       380
    60.5200       396
    60.5400       402
    60.5600       396
    60.5800       398
    60.6000       408
    60.6200       388
    60.6400       392
    60.6600       416
    60.6800       402
    60.7000       404
    60.7200       430
    60.7400       440
    60.7600       446
    60.7800       426
    60.8000       438
    60.8200       428
    60.8400       462
    60.8600       456
    60.8800       464
    60.9000       454
    60.9200       510
    60.9400       492
    60.9600       530
    60.9800       588
    61.0000       554
    61.0200       572
    61.0400       604
    61.0600       626
    61.0800       656
    61.1000       636
    61.1200       720
    61.1400       702
    61.1600       652
    61.1800       728
    61.2000       730
    61.2200       750
    61.2400       718
    61.2600       734
    61.2800       726
    61.3000       770
    61.3200       750
    61.3400       780
    61.3600       766
    61.3800       792
    61.4000       748
    61.4200       752
    61.4400       744
    61.4600       794
    61.4800       738
    61.5000       790
    61.5200       678
    61.5400       768
    61.5600       786
    61.5800       786
    61.6000       730
    61.6200       738
    61.6400       698
    61.6600       680
    61.6800       678
    61.7000       658
    61.7200       646
    61.7400       650
    61.7600       650
    61.7800       640
    61.8000       616
    61.8200       580
    61.8400       524
    61.8600       552
    61.8800       574
    61.9000       566
    61.9200       542
    61.9400       558
    61.9600       544
    61.9800       576
    62.0000       582
    62.0200       552
    62.0400       512
    62.0600       570
    62.0800       600
    62.1000       604
    62.1200       554
    62.1400       588
    62.1600       622
    62.1800       594
    62.2000       602
    62.2200       586
    62.2400       558
    62.2600       540
    62.2800       560
    62.3000       554
    62.3200       494
    62.3400       548
    62.3600       542
    62.3800       554
    62.4000       520
    62.4200       514
    62.4400       502
    62.4600       524
    62.4800       494
    62.5000       480
    62.5200       458
    62.5400       460
    62.5600       418
    62.5800       436
    62.6000       446
    62.6200       414
    62.6400       456
    62.6600       406
    62.6800       434
    62.7000       414
    62.7200       358
    62.7400       430
    62.7600       392
    62.7800       402
    62.8000       362
    62.8200       346
    62.8400       362
    62.8600       394
    62.8800       338
    62.9000       346
    62.9200       358
    62.9400       338
    62.9600       334
    62.9800       324
    63.0000       330
    63.0200       306
    63.0400       298
    63.0600       298
    63.0800       308
    63.1000       300
    63.1200       294
    63.1400       270
    63.1600       266
    63.1800       294
    63.2000       262
    63.2200       264
    63.2400       288
    63.2600       252
    63.2800       258
    63.3000       252
    63.3200       260
    63.3400       278
    63.3600       292
    63.3800       286
    63.4000       264
    63.4200       306
    63.4400       286
    63.4600       280
    63.4800       264
    63.5000       272
    63.5200       316
    63.5400       308
    63.5600       314
    63.5800       338
    63.6000       320
    63.6200       324
    63.6400       348
    63.6600       350
    63.6800       334
    63.7000       376
    63.7200       396
    63.7400       410
    63.7600       444
    63.7800       418
    63.8000       452
    63.8200       452
    63.8400       478
    63.8600       498
    63.8800       546
    63.9000       514
    63.9200       544
    63.9400       534
    63.9600       516
    63.9800       542
    64.0000       548
    64.0200       470
    64.0400       470
    64.0600       462
    64.0800       506
    64.1000       452
    64.1200       450
    64.1400       458
    64.1600       408
    64.1800       366
    64.2000       366
    64.2200       364
    64.2400       320
    64.2600       336
    64.2800       304
    64.3000       326
    64.3200       312
    64.3400       296
    64.3600       318
    64.3800       290
    64.4000       312
    64.4200       274
    64.4400       286
    64.4600       252
    64.4800       272
    64.5000       266
    64.5200       284
    64.5400       260
    64.5600       256
    64.5800       258
    64.6000       246
    64.6200       270
    64.6400       256
    64.6600       240
    64.6800       254
    64.7000       262
    64.7200       270
    64.7400       266
    64.7600       270
    64.7800       280
    64.8000       264
    64.8200       296
    64.8400       292
    64.8600       274
    64.8800       292
    64.9000       270
    64.9200       298
    64.9400       270
    64.9600       264
    64.9800       298
    65.0000       304
    65.0200       330
    65.0400       344
    65.0600       368
    65.0800       374
    65.1000       368
    65.1200       400
    65.1400       366
    65.1600       332
    65.1800       384
    65.2000       402
    65.2200       450
    65.2400       438
    65.2600       430
    65.2800       466
    65.3000       438
    65.3200       500
    65.3400       454
    65.3600       464
    65.3800       492
    65.4000       464
    65.4200       468
    65.4400       490
    65.4600       470
    65.4800       474
    65.5000       474
    65.5200       426
    65.5400       400
    65.5600       384
    65.5800       434
    65.6000       386
    65.6200       406
    65.6400       374
    65.6600       372
    65.6800       382
    65.7000       332
    65.7200       352
    65.7400       320
    65.7600       312
    65.7800       354
    65.8000       312
    65.8200       308
    65.8400       278
    65.8600       294
    65.8800       308
    65.9000       292
    65.9200       284
    65.9400       286
    65.9600       268
    65.9800       258
    66.0000       282
    66.0200       262
    66.0400       280
    66.0600       260
    66.0800       268
    66.1000       262
    66.1200       264
    66.1400       256
    66.1600       258
    66.1800       238
    66.2000       258
    66.2200       238
    66.2400       264
    66.2600       286
    66.2800       284
    66.3000       288
    66.3200       264
    66.3400       288
    66.3600       298
    66.3800       298
    66.4000       276
    66.4200       314
    66.4400       368
    66.4600       322
    66.4800       352
    66.5000       372
    66.5200       366
    66.5400       350
    66.5600       372
    66.5800       348
    66.6000       386
    66.6200       384
    66.6400       474
    66.6600       432
    66.6800       452
    66.7000       470
    66.7200       458
    66.7400       530
    66.7600       546
    66.7800       566
    66.8000       548
    66.8200       612
    66.8400       556
    66.8600       654
    66.8800       648
    66.9000       626
    66.9200       636
    66.9400       676
    66.9600       682
    66.9800       732
    67.0000       638
    67.0200       706
    67.0400       714
    67.0600       622
    67.0800       628
    67.1000       574
    67.1200       556
    67.1400       584
    67.1600       574
    67.1800       518
    67.2000       546
    67.2200       510
    67.2400       464
    67.2600       464
    67.2800       448
    67.3000       436
    67.3200       394
    67.3400       372
    67.3600       382
    67.3800       366
    67.4000       338
    67.4200       346
    67.4400       348
    67.4600       352
    67.4800       330
    67.5000       358
    67.5200       326
    67.5400       336
    67.5600       324
    67.5800       312
    67.6000       318
    67.6200       308
    67.6400       342
    67.6600       322
    67.6800       318
    67.7000       370
    67.7200       340
    67.7400       380
    67.7600       362
    67.7800       376
    67.8000       420
    67.8200       444
    67.8400       430
    67.8600       462
    67.8800       466
    67.9000       472
    67.9200       488
    67.9400       576
    67.9600       586
    67.9800       618
    68.0000       660
    68.0200       712
    68.0400       834
    68.0600       854
    68.0800       878
    68.1000       956
    68.1200      1060
    68.1400      1108
    68.1600      1198
    68.1800      1214
    68.2000      1258
    68.2200      1222
    68.2400      1278
    68.2600      1370
    68.2800      1240
    68.3000      1290
    68.3200      1312
    68.3400      1284
    68.3600      1288
    68.3800      1158
    68.4000      1164
    68.4200      1106
    68.4400      1034
    68.4600      1020
    68.4800       986
    68.5000       878
    68.5200       844
    68.5400       808
    68.5600       754
    68.5800       756
    68.6000       696
    68.6200       664
    68.6400       602
    68.6600       580
    68.6800       556
    68.7000       510
    68.7200       500
    68.7400       470
    68.7600       454
    68.7800       418
    68.8000       400
    68.8200       412
    68.8400       416
    68.8600       374
    68.8800       402
    68.9000       402
    68.9200       378
    68.9400       344
    68.9600       320
    68.9800       364
    69.0000       350
    69.0200       362
    69.0400       336
    69.0600       346
    69.0800       316
    69.1000       316
    69.1200       296
    69.1400       374
    69.1600       358
    69.1800       374
    69.2000       378
    69.2200       386
    69.2400       378
    69.2600       386
    69.2800       360
    69.3000       374
    69.3200       420
    69.3400       446
    69.3600       498
    69.3800       526
    69.4000       528
    69.4200       550
    69.4400       562
    69.4600       490
    69.4800       600
    69.5000       602
    69.5200       562
    69.5400       576
    69.5600       506
    69.5800       536
    69.6000       492
    69.6200       484
    69.6400       488
    69.6600       492
    69.6800       466
    69.7000       460
    69.7200       434
    69.7400       414
    69.7600       436
    69.7800       430
    69.8000       402
    69.8200       390
    69.8400       372
    69.8600       308
    69.8800       330
    69.9000       316
    69.9200       316
    69.9400       290
    69.9600       296
    69.9800       300
    70.0000       304
    70.0200       266
    70.0400       242
    70.0600       286
    70.0800       260
    70.1000       258
    70.1200       282
    70.1400       296
    70.1600       248
    70.1800       238
    70.2000       234
    70.2200       268
    70.2400       252
    70.2600       234
    70.2800       218
    70.3000       244
    70.3200       238
    70.3400       214
    70.3600       258
    70.3800       260
    70.4000       266
    70.4200       226
    70.4400       220
    70.4600       244
    70.4800       234
    70.5000       236
    70.5200       264
    70.5400       202
    70.5600       240
    70.5800       234
    70.6000       232
    70.6200       248
    70.6400       282
    70.6600       256
    70.6800       248
    70.7000       252
    70.7200       238
    70.7400       232
    70.7600       276
    70.7800       244
    70.8000       252
    70.8200       238
    70.8400       226
    70.8600       248
    70.8800       230
    70.9000       274
    70.9200       230
    70.9400       248
    70.9600       234
    70.9800       246
    71.0000       230
    71.0200       230
    71.0400       228
    71.0600       212
    71.0800       272
    71.1000       254
    71.1200       238
    71.1400       244
    71.1600       250
    71.1800       268
    71.2000       292
    71.2200       308
    71.2400       310
    71.2600       292
    71.2800       318
    71.3000       364
    71.3200       364
    71.3400       388
    71.3600       472
    71.3800       382
    71.4000       434
    71.4200       496
    71.4400       506
    71.4600       482
    71.4800       544
    71.5000       614
    71.5200       582
    71.5400       606
    71.5600       610
    71.5800       644
    71.6000       652
    71.6200       658
    71.6400       648
    71.6600       724
    71.6800       668
    71.7000       640
    71.7200       654
    71.7400       640
    71.7600       568
    71.7800       642
    71.8000       624
    71.8200       578
    71.8400       580
    71.8600       600
    71.8800       570
    71.9000       574
    71.9200       564
    71.9400       568
    71.9600       544
    71.9800       550
    72.0000       532
    72.0200       506
    72.0400       554
    72.0600       454
    72.0800       442
    72.1000       526
    72.1200       478
    72.1400       480
    72.1600       478
    72.1800       464
    72.2000       538
    72.2200       474
    72.2400       472
    72.2600       526
    72.2800       522
    72.3000       568
    72.3200       568
    72.3400       532
    72.3600       526
    72.3800       530
    72.4000       574
    72.4200       578
    72.4400       538
    72.4600       532
    72.4800       524
    72.5000       570
    72.5200       484
    72.5400       572
    72.5600       554
    72.5800       516
    72.6000       494
    72.6200       540
    72.6400       480
    72.6600       450
    72.6800       464
    72.7000       458
    72.7200       428
    72.7400       464
    72.7600       434
    72.7800       428
    72.8000       422
    72.8200       410
    72.8400       374
    72.8600       402
    72.8800       424
    72.9000       394
    72.9200       384
    72.9400       414
    72.9600       404
    72.9800       346
    73.0000       378
    73.0200       314
    73.0400       348
    73.0600       356
    73.0800       330
    73.1000       312
    73.1200       328
    73.1400       304
    73.1600       328
    73.1800       290
    73.2000       326
    73.2200       286
    73.2400       266
    73.2600       252
    73.2800       250
    73.3000       306
    73.3200       254
    73.3400       244
    73.3600       266
    73.3800       250
    73.4000       262
    73.4200       254
    73.4400       258
    73.4600       212
    73.4800       264
    73.5000       234
    73.5200       240
    73.5400       238
    73.5600       254
    73.5800       268
    73.6000       262
    73.6200       232
    73.6400       230
    73.6600       252
    73.6800       232
    73.7000       240
    73.7200       240
    73.7400       256
    73.7600       246
    73.7800       290
    73.8000       214
    73.8200       246
    73.8400       262
    73.8600       232
    73.8800       244
    73.9000       270
    73.9200       268
    73.9400       274
    73.9600       280
    73.9800       244
    74.0000       312
    74.0200       326
    74.0400       290
    74.0600       294
    74.0800       280
    74.1000       288
    74.1200       324
    74.1400       310
    74.1600       324
    74.1800       286
    74.2000       316
    74.2200       320
    74.2400       290
    74.2600       294
    74.2800       310
    74.3000       300
    74.3200       308
    74.3400       276
    74.3600       272
    74.3800       282
    74.4000       274
    74.4200       276
    74.4400       268
    74.4600       250
    74.4800       260
    74.5000       268
    74.5200       240
    74.5400       226
    74.5600       258
    74.5800       232
    74.6000       216
    74.6200       236
    74.6400       218
    74.6600       224
    74.6800       206
    74.7000       190
    74.7200       234
    74.7400       206
    74.7600       236
    74.7800       220
    74.8000       230
    74.8200       204
    74.8400       220
    74.8600       210
    74.8800       186
    74.9000       204
    74.9200       214
    74.9400       194
    74.9600       216
    74.9800       212
    75.0000       220
    75.0200       204
    75.0400       228
    75.0600       196
    75.0800       206
    75.1000       200
    75.1200       214
    75.1400       226
    75.1600       214
    75.1800       210
    75.2000       246
    75.2200       224
    75.2400       242
    75.2600       218
    75.2800       228
    75.3000       242
    75.3200       238
    75.3400       210
    75.3600       252
    75.3800       262
    75.4000       242
    75.4200       244
    75.4400       238
    75.4600       230
    75.4800       214
    75.5000       250
    75.5200       198
    75.5400       218
    75.5600       224
    75.5800       234
    75.6000       238
    75.6200       202
    75.6400       256
    75.6600       250
    75.6800       224
    75.7000       204
    75.7200       242
    75.7400       250
    75.7600       250
    75.7800       220
    75.8000       236
    75.8200       234
    75.8400       240
    75.8600       230
    75.8800       228
    75.9000       244
    75.9200       218
    75.9400       224
    75.9600       216
    75.9800       264
    76.0000       246
    76.0200       228
    76.0400       248
    76.0600       210
    76.0800       248
    76.1000       216
    76.1200       230
    76.1400       252
    76.1600       252
    76.1800       286
    76.2000       268
    76.2200       232
    76.2400       268
    76.2600       268
    76.2800       268
    76.3000       278
    76.3200       302
    76.3400       294
    76.3600       328
    76.3800       316
    76.4000       340
    76.4200       344
    76.4400       340
    76.4600       352
    76.4800       322
    76.5000       362
    76.5200       392
    76.5400       380
    76.5600       360
    76.5800       382
    76.6000       378
    76.6200       412
    76.6400       432
    76.6600       428
    76.6800       400
    76.7000       452
    76.7200       440
    76.7400       392
    76.7600       446
    76.7800       444
    76.8000       402
    76.8200       432
    76.8400       394
    76.8600       398
    76.8800       410
    76.9000       364
    76.9200       394
    76.9400       362
    76.9600       378
    76.9800       364
    77.0000       346
    77.0200       396
    77.0400       362
    77.0600       364
    77.0800       342
    77.1000       356
    77.1200       340
    77.1400       320
    77.1600       368
    77.1800       382
    77.2000       356
    77.2200       302
    77.2400       370
    77.2600       366
    77.2800       382
    77.3000       400
    77.3200       348
    77.3400       354
    77.3600       408
    77.3800       422
    77.4000       432
    77.4200       428
    77.4400       464
    77.4600       538
    77.4800       556
    77.5000       590
    77.5200       598
    77.5400       660
    77.5600       642
    77.5800       666
    77.6000       718
    77.6200       756
    77.6400       778
    77.6600       792
    77.6800       902
    77.7000       892
    77.7200       892
    77.7400       856
    77.7600       816
    77.7800       830
    77.8000       864
    77.8200       824
    77.8400       846
    77.8600       856
    77.8800       766
    77.9000       752
    77.9200       796
    77.9400       764
    77.9600       674
    77.9800       666
    78.0000       652
    78.0200       594
    78.0400       604
    78.0600       616
    78.0800       558
    78.1000       528
    78.1200       506
    78.1400       454
    78.1600       512
    78.1800       494
    78.2000       452
    78.2200       428
    78.2400       404
    78.2600       394
    78.2800       390
    78.3000       402
    78.3200       386
    78.3400       384
    78.3600       372
    78.3800       410
    78.4000       386
    78.4200       354
    78.4400       394
    78.4600       378
    78.4800       384
    78.5000       422
    78.5200       400
    78.5400       410
    78.5600       408
    78.5800       386
    78.6000       416
    78.6200       450
    78.6400       458
    78.6600       392
    78.6800       434
    78.7000       414
    78.7200       440
    78.7400       424
    78.7600       450
    78.7800       436
    78.8000       426
    78.8200       392
    78.8400       408
    78.8600       414
    78.8800       388
    78.9000       404
    78.9200       386
    78.9400       366
    78.9600       348
    78.9800       352
    79.0000       372
    79.0200       346
    79.0400       350
    79.0600       340
    79.0800       338
    79.1000       334
    79.1200       314
    79.1400       276
    79.1600       318
    79.1800       282
    79.2000       304
    79.2200       272
    79.2400       266
    79.2600       270
    79.2800       280
    79.3000       272
    79.3200       274
    79.3400       274
    79.3600       248
    79.3800       272
    79.4000       246
    79.4200       256
    79.4400       246
    79.4600       258
    79.4800       256
    79.5000       254
    79.5200       238
    79.5400       262
    79.5600       266
    79.5800       234
    79.6000       294
    79.6200       278
    79.6400       262
    79.6600       246
    79.6800       284
    79.7000       284
    79.7200       276
    79.7400       270
    79.7600       244
    79.7800       274
    79.8000       234
    79.8200       256
    79.8400       252
    79.8600       262
    79.8800       238
    79.9000       274
    79.9200       270
    79.9400       270
    79.9600       268
    79.9800       234
    80.0000       268
    80.0200       268
    80.0400       290
    80.0600       268
    80.0800       246
    80.1000       248
    80.1200       272
    80.1400       272
    80.1600       250
    80.1800       282
    80.2000       268
    80.2200       254
    80.2400       218
    80.2600       272
    80.2800       254
    80.3000       226
    80.3200       294
    80.3400       234
    80.3600       284
    80.3800       274
    80.4000       250
    80.4200       274
    80.4400       292
    80.4600       280
    80.4800       286
    80.5000       286
    80.5200       270
    80.5400       274
    80.5600       276
    80.5800       294
    80.6000       286
    80.6200       248
    80.6400       272
    80.6600       238
    80.6800       250
    80.7000       260
    80.7200       320
    80.7400       250
    80.7600       266
    80.7800       286
    80.8000       276
    80.8200       246
    80.8400       252
    80.8600       232
    80.8800       266
    80.9000       254
    80.9200       258
    80.9400       252
    80.9600       220
    80.9800       228
    81.0000       214
    81.0200       246
    81.0400       228
    81.0600       240
    81.0800       238
    81.1000       248
    81.1200       206
    81.1400       260
    81.1600       224
    81.1800       228
    81.2000       248
    81.2200       256
    81.2400       222
    81.2600       250
    81.2800       244
    81.3000       298
    81.3200       242
    81.3400       284
    81.3600       286
    81.3800       274
    81.4000       308
    81.4200       270
    81.4400       258
    81.4600       290
    81.4800       276
    81.5000       250
    81.5200       296
    81.5400       268
    81.5600       258
    81.5800       262
    81.6000       302
    81.6200       236
    81.6400       290
    81.6600       286
    81.6800       266
    81.7000       284
    81.7200       294
    81.7400       282
    81.7600       306
    81.7800       314
    81.8000       266
    81.8200       260
    81.8400       294
    81.8600       314
    81.8800       320
    81.9000       316
    81.9200       308
    81.9400       318
    81.9600       306
    81.9800       286
    82.0000       306
    82.0200       306
    82.0400       318
    82.0600       316
    82.0800       304
    82.1000       356
    82.1200       350
    82.1400       322
    82.1600       328
    82.1800       354
    82.2000       334
    82.2200       352
    82.2400       324
    82.2600       370
    82.2800       350
    82.3000       362
    82.3200       390
    82.3400       374
    82.3600       396
    82.3800       364
    82.4000       368
    82.4200       358
    82.4400       346
    82.4600       388
    82.4800       382
    82.5000       388
    82.5200       408
    82.5400       384
    82.5600       352
    82.5800       384
    82.6000       384
    82.6200       372
    82.6400       438
    82.6600       428
    82.6800       442
    82.7000       420
    82.7200       434
    82.7400       438
    82.7600       456
    82.7800       418
    82.8000       478
    82.8200       464
    82.8400       474
    82.8600       478
    82.8800       490
    82.9000       456
    82.9200       480
    82.9400       458
    82.9600       478
    82.9800       502
    83.0000       460
    83.0200       530
    83.0400       428
    83.0600       442
    83.0800       482
    83.1000       452
    83.1200       484
    83.1400       488
    83.1600       414
    83.1800       460
    83.2000       440
    83.2200       442
    83.2400       388
    83.2600       462
    83.2800       436
    83.3000       416
    83.3200       438
    83.3400       394
    83.3600       412
    83.3800       424
    83.4000       428
    83.4200       400
    83.4400       404
    83.4600       384
    83.4800       376
    83.5000       414
    83.5200       368
    83.5400       394
    83.5600       346
    83.5800       358
    83.6000       346
    83.6200       356
    83.6400       342
    83.6600       314
    83.6800       360
    83.7000       328
    83.7200       286
    83.7400       304
    83.7600       324
    83.7800       324
    83.8000       294
    83.8200       302
    83.8400       310
    83.8600       314
    83.8800       348
    83.9000       332
    83.9200       334
    83.9400       310
    83.9600       290
    83.9800       294
    84.0000       306
    84.0200       292
    84.0400       306
    84.0600       290
    84.0800       330
    84.1000       314
    84.1200       320
    84.1400       294
    84.1600       276
    84.1800       294
    84.2000       318
    84.2200       328
    84.2400       296
    84.2600       288
    84.2800       288
    84.3000       300
    84.3200       314
    84.3400       310
    84.3600       288
    84.3800       292
    84.4000       264
    84.4200       316
    84.4400       284
    84.4600       310
    84.4800       320
    84.5000       308
    84.5200       296
    84.5400       306
    84.5600       280
    84.5800       300
    84.6000       298
    84.6200       292
    84.6400       260
    84.6600       252
    84.6800       286
    84.7000       242
    84.7200       244
    84.7400       286
    84.7600       296
    84.7800       260
    84.8000       262
    84.8200       250
    84.8400       276
    84.8600       298
    84.8800       280
    84.9000       254
    84.9200       286
    84.9400       226
    84.9600       242
    84.9800       256
    85.0000       236
    85.0200       252
    85.0400       240
    85.0600       254
    85.0800       252
    85.1000       242
    85.1200       248
    85.1400       236
    85.1600       270
    85.1800       218
    85.2000       238
    85.2200       250
    85.2400       222
    85.2600       240
    85.2800       248
    85.3000       246
    85.3200       242
    85.3400       240
    85.3600       238
    85.3800       228
    85.4000       270
    85.4200       238
    85.4400       278
    85.4600       280
    85.4800       258
    85.5000       252
    85.5200       278
    85.5400       266
    85.5600       274
    85.5800       304
    85.6000       302
    85.6200       316
    85.6400       286
    85.6600       288
    85.6800       300
    85.7000       320
    85.7200       280
    85.7400       290
    85.7600       292
    85.7800       282
    85.8000       304
    85.8200       270
    85.8400       302
    85.8600       250
    85.8800       260
    85.9000       278
    85.9200       266
    85.9400       258
    85.9600       276
    85.9800       286
    86.0000       250
    86.0200       242
    86.0400       250
    86.0600       264
    86.0800       270
    86.1000       242
    86.1200       236
    86.1400       244
    86.1600       220
    86.1800       236
    86.2000       276
    86.2200       224
    86.2400       226
    86.2600       230
    86.2800       234
    86.3000       198
    86.3200       236
    86.3400       224
    86.3600       228
    86.3800       234
    86.4000       228
    86.4200       218
    86.4400       228
    86.4600       250
    86.4800       224
    86.5000       236
    86.5200       250
    86.5400       238
    86.5600       232
    86.5800       226
    86.6000       258
    86.6200       248
    86.6400       266
    86.6600       242
    86.6800       276
    86.7000       272
    86.7200       270
    86.7400       256
    86.7600       276
    86.7800       294
    86.8000       254
    86.8200       290
    86.8400       292
    86.8600       274
    86.8800       286
    86.9000       328
    86.9200       296
    86.9400       300
    86.9600       340
    86.9800       332
    87.0000       336
    87.0200       330
    87.0400       342
    87.0600       358
    87.0800       324
    87.1000       354
    87.1200       320
    87.1400       348
    87.1600       338
    87.1800       324
    87.2000       346
    87.2200       306
    87.2400       320
    87.2600       326
    87.2800       362
    87.3000       304
    87.3200       286
    87.3400       320
    87.3600       316
    87.3800       302
    87.4000       298
    87.4200       322
    87.4400       294
    87.4600       304
    87.4800       276
    87.5000       286
    87.5200       332
    87.5400       314
    87.5600       292
    87.5800       304
    87.6000       290
    87.6200       304
    87.6400       308
    87.6600       354
    87.6800       324
    87.7000       326
    87.7200       324
    87.7400       334
    87.7600       338
    87.7800       322
    87.8000       324
    87.8200       354
    87.8400       368
    87.8600       382
    87.8800       356
    87.9000       364
    87.9200       352
    87.9400       376
    87.9600       378
    87.9800       382
    88.0000       372
    88.0200       392
    88.0400       388
    88.0600       378
    88.0800       364
    88.1000       388
    88.1200       432
    88.1400       412
    88.1600       378
    88.1800       394
    88.2000       398
    88.2200       408
    88.2400       382
    88.2600       388
    88.2800       406
    88.3000       374
    88.3200       376
    88.3400       376
    88.3600       360
    88.3800       394
    88.4000       376
    88.4200       378
    88.4400       326
    88.4600       380
    88.4800       370
    88.5000       342
    88.5200       352
    88.5400       366
    88.5600       374
    88.5800       356
    88.6000       382
    88.6200       360
    88.6400       358
    88.6600       354
    88.6800       374
    88.7000       368
    88.7200       348
    88.7400       364
    88.7600       338
    88.7800       338
    88.8000       320
    88.8200       302
    88.8400       328
    88.8600       320
    88.8800       338
    88.9000       304
    88.9200       310
    88.9400       328
    88.9600       298
    88.9800       326
    89.0000       300
    89.0200       280
    89.0400       270
    89.0600       282
    89.0800       268
    89.1000       254
    89.1200       252
    89.1400       240
    89.1600       270
    89.1800       266
    89.2000       244
    89.2200       246
    89.2400       256
    89.2600       264
    89.2800       272
    89.3000       230
    89.3200       244
    89.3400       258
    89.3600       246
    89.3800       238
    89.4000       240
    89.4200       244
    89.4400       266
    89.4600       292
    89.4800       250
    89.5000       252
    89.5200       270
    89.5400       276
    89.5600       260
    89.5800       290
    89.6000       314
    89.6200       292
    89.6400       254
    89.6600       272
    89.6800       240
    89.7000       300
    89.7200       280
    89.7400       318
    89.7600       280
    89.7800       306
    89.8000       260
    89.8200       288
    89.8400       286
    89.8600       294
    89.8800       302
    89.9000       300
    89.9200       278
    89.9400       322
    89.9600       282
    89.9800       296
    90.0000       292
