    10.0000       374
    10.0200       416
    10.0400       398
    10.0600       380
    10.0800       418
    10.1000       370
    10.1200       386
    10.1400       408
    10.1600       428
    10.1800       412
    10.2000       404
    10.2200       372
    10.2400       388
    10.2600       362
    10.2800       348
    10.3000       364
    10.3200       346
    10.3400       362
    10.3600       348
    10.3800       356
    10.4000       340
    10.4200       394
    10.4400       376
    10.4600       368
    10.4800       340
    10.5000       356
    10.5200       342
    10.5400       350
    10.5600       352
    10.5800       376
    10.6000       308
    10.6200       338
    10.6400       338
    10.6600       346
    10.6800       324
    10.7000       358
    10.7200       294
    10.7400       346
    10.7600       342
    10.7800       332
    10.8000       312
    10.8200       304
    10.8400       346
    10.8600       358
    10.8800       354
    10.9000       358
    10.9200       324
    10.9400       310
    10.9600       350
    10.9800       358
    11.0000       378
    11.0200       364
    11.0400       334
    11.0600       324
    11.0800       328
    11.1000       338
    11.1200       324
    11.1400       306
    11.1600       322
    11.1800       326
    11.2000       322
    11.2200       312
    11.2400       300
    11.2600       290
    11.2800       328
    11.3000       330
    11.3200       330
    11.3400       320
    11.3600       352
    11.3800       306
    11.4000       312
    11.4200       312
    11.4400       324
    11.4600       302
    11.4800       302
    11.5000       326
    11.5200       354
    11.5400       354
    11.5600       326
    11.5800       330
    11.6000       310
    11.6200       322
    11.6400       308
    11.6600       308
    11.6800       286
    11.7000       308
    11.7200       348
    11.7400       326
    11.7600       344
    11.7800       312
    11.8000       310
    11.8200       326
    11.8400       360
    11.8600       300
    11.8800       358
    11.9000       354
    11.9200       350
    11.9400       386
    11.9600       348
    11.9800       372
    12.0000       346
    12.0200       368
    12.0400       362
    12.0600       356
    12.0800       368
    12.1000       402
    12.1200       398
    12.1400       422
    12.1600       426
    12.1800       440
    12.2000       448
    12.2200       452
    12.2400       452
    12.2600       456
    12.2800       398
    12.3000       332
    12.3200       350
    12.3400       310
    12.3600       330
    12.3800       278
    12.4000       320
    12.4200       314
    12.4400       306
    12.4600       276
    12.4800       292
    12.5000       280
    12.5200       340
    12.5400       278
    12.5600       290
    12.5800       256
    12.6000       344
    12.6200       310
    12.6400       272
    12.6600       260
    12.6800       296
    12.7000       292
    12.7200       310
    12.7400       312
    12.7600       282
    12.7800       282
    12.8000       270
    12.8200       286
    12.8400       270
    12.8600       286
    12.8800       306
    12.9000       306
    12.9200       304
    12.9400       258
    12.9600       302
    12.9800       262
    13.0000       272
    13.0200       258
    13.0400       268
    13.0600       268
    13.0800       300
    13.1000       282
    13.1200       294
    13.1400       260
    13.1600       270
    13.1800       278
    13.2000       236
    13.2200       264
    13.2400       268
    13.2600       278
    13.2800       284
    13.3000       288
    13.3200       266
    13.3400       266
    13.3600       272
    13.3800       288
    13.4000       268
    13.4200       276
    13.4400       288
    13.4600       254
    13.4800       282
    13.5000       248
    13.5200       220
    13.5400       262
    13.5600       258
    13.5800       272
    13.6000       270
    13.6200       256
    13.6400       242
    13.6600       256
    13.6800       280
    13.7000       246
    13.7200       258
    13.7400       286
    13.7600       284
    13.7800       280
    13.8000       274
    13.8200       244
    13.8400       240
    13.8600       284
    13.8800       260
    13.9000       260
    13.9200       236
    13.9400       274
    13.9600       260
    13.9800       264
    14.0000       246
    14.0200       272
    14.0400       254
    14.0600       274
    14.0800       240
    14.1000       246
    14.1200       284
    14.1400       258
    14.1600       244
    14.1800       262
    14.2000       268
    14.2200       218
    14.2400       230
    14.2600       246
    14.2800       246
    14.3000       228
    14.3200       264
    14.3400       252
    14.3600       258
    14.3800       246
    14.4000       250
    14.4200       232
    14.4400       236
    14.4600       246
    14.4800       252
    14.5000       242
    14.5200       246
    14.5400       208
    14.5600       270
    14.5800       264
    14.6000       254
    14.6200       248
    14.6400       276
    14.6600       230
    14.6800       214
    14.7000       262
    14.7200       264
    14.7400       254
    14.7600       240
    14.7800       258
    14.8000       242
    14.8200       270
    14.8400       260
    14.8600       266
    14.8800       282
    14.9000       258
    14.9200       268
    14.9400       304
    14.9600       296
    14.9800       298
    15.0000       298
    15.0200       316
    15.0400       322
    15.0600       342
    15.0800       316
    15.1000       326
    15.1200       380
    15.1400       370
    15.1600       416
    15.1800       378
    15.2000       360
    15.2200       358
    15.2400       346
    15.2600       332
    15.2800       292
    15.3000       292
    15.3200       272
    15.3400       264
    15.3600       248
    15.3800       254
    15.4000       250
    15.4200       260
    15.4400       260
    15.4600       264
    15.4800       270
    15.5000       266
    15.5200       274
    15.5400       302
    15.5600       278
    15.5800       280
    15.6000       268
    15.6200       264
    15.6400       248
    15.6600       224
    15.6800       266
    15.7000       274
    15.7200       232
    15.7400       222
    15.7600       244
    15.7800       248
    15.8000       254
    15.8200       240
    15.8400       210
    15.8600       200
    15.8800       212
    15.9000       252
    15.9200       240
    15.9400       250
    15.9600       216
    15.9800       228
    16.0000       208
    16.0200       224
    16.0400       204
    16.0600       240
    16.0800       226
    16.1000       212
    16.1200       242
    16.1400       228
    16.1600       234
    16.1800       224
    16.2000       204
    16.2200       202
    16.2400       238
    16.2600       258
    16.2800       220
    16.3000       214
    16.3200       242
    16.3400       238
    16.3600       244
    16.3800       246
    16.4000       236
    16.4200       266
    16.4400       240
    16.4600       248
    16.4800       246
    16.5000       248
    16.5200       218
    16.5400       222
    16.5600       236
    16.5800       220
    16.6000       224
    16.6200       230
    16.6400       240
    16.6600       234
    16.6800       244
    16.7000       242
    16.7200       264
    16.7400       250
    16.7600       266
    16.7800       272
    16.8000       284
    16.8200       282
    16.8400       284
    16.8600       294
    16.8800       302
    16.9000       294
    16.9200       294
    16.9400       352
    16.9600       358
    16.9800       390
    17.0000       404
    17.0200       456
    17.0400       456
    17.0600       508
    17.0800       520
    17.1000       552
    17.1200       508
    17.1400       504
    17.1600       484
    17.1800       472
    17.2000       440
    17.2200       426
    17.2400       440
    17.2600       436
    17.2800       430
    17.3000       392
    17.3200       378
    17.3400       368
    17.3600       366
    17.3800       336
    17.4000       316
    17.4200       354
    17.4400       306
    17.4600       282
    17.4800       310
    17.5000       272
    17.5200       268
    17.5400       264
    17.5600       280
    17.5800       274
    17.6000       284
    17.6200       244
    17.6400       254
    17.6600       278
    17.6800       272
    17.7000       290
    17.7200       284
    17.7400       304
    17.7600       298
    17.7800       280
    17.8000       268
    17.8200       270
    17.8400       256
    17.8600       242
    17.8800       280
    17.9000       234
    17.9200       242
    17.9400       234
    17.9600       226
    17.9800       234
    18.0000       204
    18.0200       218
    18.0400       212
    18.0600       222
    18.0800       200
    18.1000       208
    18.1200       206
    18.1400       260
    18.1600       204
    18.1800       240
    18.2000       224
    18.2200       210
    18.2400       210
    18.2600       218
    18.2800       186
    18.3000       214
    18.3200       216
    18.3400       224
    18.3600       230
    18.3800       226
    18.4000       202
    18.4200       220
    18.4400       232
    18.4600       228
    18.4800       218
    18.5000       218
    18.5200       222
    18.5400       226
    18.5600       246
    18.5800       230
    18.6000       218
    18.6200       226
    18.6400       258
    18.6600       268
    18.6800       248
    18.7000       258
    18.7200       246
    18.7400       248
    18.7600       268
    18.7800       266
    18.8000       272
    18.8200       288
    18.8400       284
    18.8600       280
    18.8800       296
    18.9000       282
    18.9200       312
    18.9400       334
    18.9600       348
    18.9800       330
    19.0000       352
    19.0200       330
    19.0400       356
    19.0600       348
    19.0800       394
    19.1000       384
    19.1200       416
    19.1400       428
    19.1600       480
    19.1800       476
    19.2000       516
    19.2200       588
    19.2400       572
    19.2600       654
    19.2800       762
    19.3000       890
    19.3200       964
    19.3400      1062
    19.3600      1174
    19.3800      1278
    19.4000      1602
    19.4200      1686
    19.4400      2096
    19.4600      2298
    19.4800      2666
    19.5000      3072
    19.5200      3464
    19.5400      3838
    19.5600      3816
    19.5800      3778
    19.6000      3536
    19.6200      3010
    19.6400      2516
    19.6600      1904
    19.6800      1652
    19.7000      1522
    19.7200      1278
    19.7400      1290
    19.7600      1258
    19.7800      1308
    19.8000      1382
    19.8200      1492
    19.8400      1692
    19.8600      1926
    19.8800      2078
    19.9000      2252
    19.9200      2554
    19.9400      2832
    19.9600      2990
    19.9800      3204
    20.0000      3154
    20.0200      3022
    20.0400      2794
    20.0600      2402
    20.0800      2094
    20.1000      1716
    20.1200      1436
    20.1400      1106
    20.1600      1004
    20.1800       830
    20.2000       730
    20.2200       676
    20.2400       650
    20.2600       626
    20.2800       602
    20.3000       580
    20.3200       566
    20.3400       528
    20.3600       472
    20.3800       476
    20.4000       422
    20.4200       410
    20.4400       390
    20.4600       346
    20.4800       318
    20.5000       348
    20.5200       322
    20.5400       272
    20.5600       288
    20.5800       282
    20.6000       254
    20.6200       252
    20.6400       286
    20.6600       252
    20.6800       244
    20.7000       266
    20.7200       270
    20.7400       258
    20.7600       238
    20.7800       266
    20.8000       256
    20.8200       276
    20.8400       256
    20.8600       290
    20.8800       280
    20.9000       292
    20.9200       316
    20.9400       318
    20.9600       344
    20.9800       358
    21.0000       408
    21.0200       422
    21.0400       470
    21.0600       506
    21.0800       472
    21.1000       572
    21.1200       634
    21.1400       704
    21.1600       784
    21.1800       810
    21.2000       878
    21.2200       850
    21.2400       908
    21.2600       846
    21.2800       790
    21.3000       758
    21.3200       658
    21.3400       558
    21.3600       466
    21.3800       398
    21.4000       392
    21.4200       364
    21.4400       310
    21.4600       320
    21.4800       276
    21.5000       288
    21.5200       248
    21.5400       258
    21.5600       238
    21.5800       252
    21.6000       258
    21.6200       244
    21.6400       246
    21.6600       240
    21.6800       226
    21.7000       218
    21.7200       212
    21.7400       216
    21.7600       222
    21.7800       236
    21.8000       230
    21.8200       222
    21.8400       236
    21.8600       234
    21.8800       250
    21.9000       250
    21.9200       218
    21.9400       242
    21.9600       240
    21.9800       236
    22.0000       282
    22.0200       230
    22.0400       226
    22.0600       252
    22.0800       234
    22.1000       242
    22.1200       240
    22.1400       254
    22.1600       262
    22.1800       240
    22.2000       266
    22.2200       248
    22.2400       282
    22.2600       264
    22.2800       282
    22.3000       306
    22.3200       292
    22.3400       308
    22.3600       332
    22.3800       358
    22.4000       316
    22.4200       376
    22.4400       414
    22.4600       400
    22.4800       472
    22.5000       506
    22.5200       562
    22.5400       622
    22.5600       684
    22.5800       788
    22.6000       876
    22.6200      1030
    22.6400      1080
    22.6600      1264
    22.6800      1462
    22.7000      1676
    22.7200      1972
    22.7400      2214
    22.7600      2710
    22.7800      2986
    22.8000      3520
    22.8200      3830
    22.8400      4434
    22.8600      4752
    22.8800      4826
    22.9000      4860
    22.9200      4106
    22.9400      3546
    22.9600      2958
    22.9800      2350
    23.0000      1834
    23.0200      1422
    23.0400      1128
    23.0600       964
    23.0800       848
    23.1000       702
    23.1200       624
    23.1400       546
    23.1600       488
    23.1800       496
    23.2000       476
    23.2200       426
    23.2400       414
    23.2600       368
    23.2800       386
    23.3000       316
    23.3200       336
    23.3400       342
    23.3600       284
    23.3800       312
    23.4000       326
    23.4200       284
    23.4400       282
    23.4600       260
    23.4800       276
    23.5000       254
    23.5200       266
    23.5400       252
    23.5600       252
    23.5800       270
    23.6000       278
    23.6200       278
    23.6400       250
    23.6600       254
    23.6800       252
    23.7000       262
    23.7200       244
    23.7400       276
    23.7600       284
    23.7800       258
    23.8000       254
    23.8200       272
    23.8400       254
    23.8600       244
    23.8800       230
    23.9000       266
    23.9200       274
    23.9400       286
    23.9600       264
    23.9800       276
    24.0000       274
    24.0200       294
    24.0400       304
    24.0600       286
    24.0800       284
    24.1000       288
    24.1200       318
    24.1400       326
    24.1600       342
    24.1800       346
    24.2000       352
    24.2200       322
    24.2400       380
    24.2600       356
    24.2800       432
    24.3000       434
    24.3200       498
    24.3400       530
    24.3600       628
    24.3800       624
    24.4000       718
    24.4200       766
    24.4400       836
    24.4600       900
    24.4800      1016
    24.5000      1156
    24.5200      1132
    24.5400      1120
    24.5600      1086
    24.5800      1098
    24.6000      1018
    24.6200       976
    24.6400       952
    24.6600       960
    24.6800       932
    24.7000       816
    24.7200       796
    24.7400       766
    24.7600       718
    24.7800       666
    24.8000       540
    24.8200       552
    24.8400       482
    24.8600       442
    24.8800       410
    24.9000       402
    24.9200       372
    24.9400       378
    24.9600       406
    24.9800       378
    25.0000       366
    25.0200       384
    25.0400       362
    25.0600       352
    25.0800       380
    25.1000       370
    25.1200       400
    25.1400       432
    25.1600       432
    25.1800       432
    25.2000       458
    25.2200       454
    25.2400       472
    25.2600       484
    25.2800       452
    25.3000       468
    25.3200       498
    25.3400       478
    25.3600       542
    25.3800       510
    25.4000       494
    25.4200       612
    25.4400       636
    25.4600       720
    25.4800       722
    25.5000       832
    25.5200       962
    25.5400      1024
    25.5600      1092
    25.5800      1216
    25.6000      1232
    25.6200      1264
    25.6400      1222
    25.6600      1114
    25.6800      1038
    25.7000       912
    25.7200       772
    25.7400       652
    25.7600       570
    25.7800       510
    25.8000       496
    25.8200       460
    25.8400       386
    25.8600       380
    25.8800       360
    25.9000       348
    25.9200       338
    25.9400       348
    25.9600       336
    25.9800       330
    26.0000       326
    26.0200       330
    26.0400       280
    26.0600       336
    26.0800       304
    26.1000       318
    26.1200       346
    26.1400       348
    26.1600       358
    26.1800       368
    26.2000       378
    26.2200       408
    26.2400       422
    26.2600       460
    26.2800       496
    26.3000       522
    26.3200       556
    26.3400       598
    26.3600       684
    26.3800       744
    26.4000       760
    26.4200       846
    26.4400       922
    26.4600       960
    26.4800      1076
    26.5000      1138
    26.5200      1140
    26.5400      1248
    26.5600      1350
    26.5800      1440
    26.6000      1468
    26.6200      1528
    26.6400      1506
    26.6600      1486
    26.6800      1440
    26.7000      1428
    26.7200      1362
    26.7400      1250
    26.7600      1084
    26.7800       986
    26.8000       880
    26.8200       794
    26.8400       680
    26.8600       588
    26.8800       554
    26.9000       512
    26.9200       462
    26.9400       462
    26.9600       396
    26.9800       402
    27.0000       414
    27.0200       366
    27.0400       376
    27.0600       338
    27.0800       330
    27.1000       344
    27.1200       368
    27.1400       332
    27.1600       364
    27.1800       364
    27.2000       358
    27.2200       372
    27.2400       350
    27.2600       410
    27.2800       408
    27.3000       406
    27.3200       406
    27.3400       432
    27.3600       450
    27.3800       492
    27.4000       526
    27.4200       504
    27.4400       572
    27.4600       586
    27.4800       650
    27.5000       628
    27.5200       628
    27.5400       660
    27.5600       596
    27.5800       570
    27.6000       486
    27.6200       500
    27.6400       462
    27.6600       396
    27.6800       378
    27.7000       372
    27.7200       352
    27.7400       344
    27.7600       338
    27.7800       326
    27.8000       314
    27.8200       310
    27.8400       340
    27.8600       352
    27.8800       304
    27.9000       334
    27.9200       350
    27.9400       376
    27.9600       368
    27.9800       380
    28.0000       432
    28.0200       412
    28.0400       398
    28.0600       452
    28.0800       454
    28.1000       526
    28.1200       536
    28.1400       582
    28.1600       648
    28.1800       686
    28.2000       750
    28.2200       808
    28.2400       794
    28.2600       840
    28.2800       958
    28.3000       856
    28.3200       864
    28.3400       770
    28.3600       678
    28.3800       666
    28.4000       584
    28.4200       518
    28.4400       454
    28.4600       438
    28.4800       428
    28.5000       342
    28.5200       328
    28.5400       346
    28.5600       308
    28.5800       314
    28.6000       296
    28.6200       292
    28.6400       292
    28.6600       280
    28.6800       264
    28.7000       250
    28.7200       248
    28.7400       228
    28.7600       268
    28.7800       238
    28.8000       256
    28.8200       244
    28.8400       248
    28.8600       238
    28.8800       220
    28.9000       228
    28.9200       234
    28.9400       240
    28.9600       244
    28.9800       260
    29.0000       252
    29.0200       252
    29.0400       256
    29.0600       238
    29.0800       236
    29.1000       238
    29.1200       272
    29.1400       242
    29.1600       234
    29.1800       246
    29.2000       256
    29.2200       246
    29.2400       220
    29.2600       266
    29.2800       240
    29.3000       292
    29.3200       290
    29.3400       304
    29.3600       298
    29.3800       264
    29.4000       298
    29.4200       308
    29.4400       306
    29.4600       310
    29.4800       320
    29.5000       326
    29.5200       364
    29.5400       380
    29.5600       338
    29.5800       330
    29.6000       366
    29.6200       360
    29.6400       334
    29.6600       318
    29.6800       342
    29.7000       290
    29.7200       336
    29.7400       298
    29.7600       318
    29.7800       302
    29.8000       316
    29.8200       296
    29.8400       310
    29.8600       326
    29.8800       338
    29.9000       328
    29.9200       402
    29.9400       392
    29.9600       344
    29.9800       404
    30.0000       452
    30.0200       490
    30.0400       530
    30.0600       574
    30.0800       612
    30.1000       736
    30.1200       784
    30.1400       820
    30.1600       870
    30.1800       844
    30.2000       890
    30.2200       860
    30.2400       894
    30.2600       922
    30.2800       828
    30.3000       804
    30.3200       820
    30.3400       722
    30.3600       760
    30.3800       724
    30.4000       744
    30.4200       712
    30.4400       736
    30.4600       816
    30.4800       890
    30.5000       844
    30.5200       914
    30.5400      1000
    30.5600       972
    30.5800      1064
    30.6000      1096
    30.6200      1248
    30.6400      1140
    30.6600      1152
    30.6800      1144
    30.7000      1058
    30.7200       958
    30.7400       916
    30.7600       848
    30.7800       732
    30.8000       684
    30.8200       626
    30.8400       542
    30.8600       492
    30.8800       476
    30.9000       456
    30.9200       436
    30.9400       430
    30.9600       450
    30.9800       494
    31.0000       426
    31.0200       482
    31.0400       450
    31.0600       454
    31.0800       446
    31.1000       510
    31.1200       494
    31.1400       508
    31.1600       504
    31.1800       564
    31.2000       506
    31.2200       530
    31.2400       540
    31.2600       470
    31.2800       434
    31.3000       474
    31.3200       442
    31.3400       414
    31.3600       446
    31.3800       386
    31.4000       448
    31.4200       396
    31.4400       410
    31.4600       444
    31.4800       438
    31.5000       442
    31.5200       468
    31.5400       454
    31.5600       486
    31.5800       518
    31.6000       504
    31.6200       580
    31.6400       570
    31.6600       612
    31.6800       680
    31.7000       732
    31.7200       796
    31.7400       876
    31.7600       922
    31.7800       974
    31.8000      1078
    31.8200      1302
    31.8400      1376
    31.8600      1482
    31.8800      1760
    31.9000      1844
    31.9200      2020
    31.9400      2296
    31.9600      2596
    31.9800      2724
    32.0000      2916
    32.0200      2946
    32.0400      2930
    32.0600      2836
    32.0800      2646
    32.1000      2368
    32.1200      2198
    32.1400      2076
    32.1600      1892
    32.1800      1694
    32.2000      1674
    32.2200      1646
    32.2400      1632
    32.2600      1676
    32.2800      1780
    32.3000      1958
    32.3200      2106
    32.3400      2362
    32.3600      2630
    32.3800      2988
    32.4000      3286
    32.4200      3872
    32.4400      4410
    32.4600      5096
    32.4800      5870
    32.5000      6736
    32.5200      7362
    32.5400      8128
    32.5600      8306
    32.5800      8412
    32.6000      8490
    32.6200      7782
    32.6400      7306
    32.6600      6436
    32.6800      5686
    32.7000      4802
    32.7200      4100
    32.7400      3486
    32.7600      2920
    32.7800      2450
    32.8000      2194
    32.8200      1886
    32.8400      1632
    32.8600      1516
    32.8800      1422
    32.9000      1360
    32.9200      1314
    32.9400      1360
    32.9600      1382
    32.9800      1458
    33.0000      1504
    33.0200      1554
    33.0400      1682
    33.0600      1738
    33.0800      1772
    33.1000      1846
    33.1200      1832
    33.1400      1690
    33.1600      1652
    33.1800      1470
    33.2000      1288
    33.2200      1118
    33.2400       970
    33.2600       862
    33.2800       764
    33.3000       714
    33.3200       578
    33.3400       546
    33.3600       558
    33.3800       452
    33.4000       422
    33.4200       378
    33.4400       372
    33.4600       346
    33.4800       388
    33.5000       374
    33.5200       324
    33.5400       338
    33.5600       318
    33.5800       322
    33.6000       300
    33.6200       336
    33.6400       338
    33.6600       282
    33.6800       268
    33.7000       266
    33.7200       270
    33.7400       292
    33.7600       244
    33.7800       262
    33.8000       246
    33.8200       256
    33.8400       210
    33.8600       228
    33.8800       232
    33.9000       272
    33.9200       248
    33.9400       230
    33.9600       250
    33.9800       250
    34.0000       230
    34.0200       242
    34.0400       252
    34.0600       224
    34.0800       262
    34.1000       256
    34.1200       256
    34.1400       252
    34.1600       244
    34.1800       222
    34.2000       236
    34.2200       278
    34.2400       232
    34.2600       248
    34.2800       278
    34.3000       238
    34.3200       220
    34.3400       232
    34.3600       252
    34.3800       238
    34.4000       234
    34.4200       242
    34.4400       244
    34.4600       286
    34.4800       234
    34.5000       296
    34.5200       286
    34.5400       282
    34.5600       282
    34.5800       312
    34.6000       280
    34.6200       302
    34.6400       304
    34.6600       302
    34.6800       304
    34.7000       298
    34.7200       290
    34.7400       294
    34.7600       324
    34.7800       280
    34.8000       298
    34.8200       286
    34.8400       310
    34.8600       314
    34.8800       322
    34.9000       340
    34.9200       342
    34.9400       310
    34.9600       330
    34.9800       374
    35.0000       336
    35.0200       338
    35.0400       386
    35.0600       400
    35.0800       362
    35.1000       442
    35.1200       394
    35.1400       408
    35.1600       416
    35.1800       366
    35.2000       378
    35.2200       356
    35.2400       332
    35.2600       318
    35.2800       274
    35.3000       264
    35.3200       278
    35.3400       294
    35.3600       292
    35.3800       264
    35.4000       306
    35.4200       288
    35.4400       276
    35.4600       276
    35.4800       274
    35.5000       260
    35.5200       278
    35.5400       300
    35.5600       306
    35.5800       296
    35.6000       328
    35.6200       334
    35.6400       282
    35.6600       248
    35.6800       344
    35.7000       366
    35.7200       414
    35.7400       356
    35.7600       390
    35.7800       436
    35.8000       372
    35.8200       378
    35.8400       396
    35.8600       396
    35.8800       410
    35.9000       438
    35.9200       432
    35.9400       422
    35.9600       516
    35.9800       532
    36.0000       524
    36.0200       538
    36.0400       546
    36.0600       592
    36.0800       620
    36.1000       648
    36.1200       744
    36.1400       736
    36.1600       756
    36.1800       808
    36.2000       738
    36.2200       718
    36.2400       658
    36.2600       666
    36.2800       642
    36.3000       540
    36.3200       558
    36.3400       476
    36.3600       500
    36.3800       440
    36.4000       454
    36.4200       458
    36.4400       456
    36.4600       428
    36.4800       414
    36.5000       428
    36.5200       488
    36.5400       504
    36.5600       522
    36.5800       504
    36.6000       556
    36.6200       620
    36.6400       690
    36.6600       720
    36.6800       792
    36.7000       892
    36.7200       936
    36.7400      1038
    36.7600      1152
    36.7800      1238
    36.8000      1454
    36.8200      1550
    36.8400      1866
    36.8600      1894
    36.8800      2100
    36.9000      2176
    36.9200      2220
    36.9400      2154
    36.9600      2062
    36.9800      1902
    37.0000      1754
    37.0200      1614
    37.0400      1400
    37.0600      1324
    37.0800      1172
    37.1000      1042
    37.1200      1014
    37.1400       950
    37.1600       906
    37.1800       892
    37.2000       800
    37.2200       798
    37.2400       806
    37.2600       768
    37.2800       700
    37.3000       752
    37.3200       738
    37.3400       738
    37.3600       724
    37.3800       690
    37.4000       732
    37.4200       674
    37.4400       728
    37.4600       670
    37.4800       732
    37.5000       726
    37.5200       686
    37.5400       814
    37.5600       828
    37.5800       784
    37.6000       844
    37.6200       900
    37.6400       890
    37.6600       892
    37.6800       910
    37.7000       938
    37.7200       976
    37.7400       972
    37.7600      1042
    37.7800       968
    37.8000      1080
    37.8200      1084
    37.8400      1092
    37.8600      1204
    37.8800      1290
    37.9000      1356
    37.9200      1532
    37.9400      1612
    37.9600      1770
    37.9800      1966
    38.0000      2108
    38.0200      2268
    38.0400      2352
    38.0600      2298
    38.0800      2384
    38.1000      2216
    38.1200      2140
    38.1400      2172
    38.1600      1972
    38.1800      1858
    38.2000      1776
    38.2200      1686
    38.2400      1758
    38.2600      1796
    38.2800      1816
    38.3000      1894
    38.3200      2082
    38.3400      2200
    38.3600      2486
    38.3800      2720
    38.4000      3060
    38.4200      3432
    38.4400      3778
    38.4600      4196
    38.4800      4410
    38.5000      4652
    38.5200      4654
    38.5400      4608
    38.5600      4782
    38.5800      4672
    38.6000      4646
    38.6200      4674
    38.6400      4368
    38.6600      4364
    38.6800      4198
    38.7000      4122
    38.7200      4154
    38.7400      4018
    38.7600      3810
    38.7800      3694
    38.8000      3610
    38.8200      3240
    38.8400      2796
    38.8600      2632
    38.8800      2318
    38.9000      2072
    38.9200      1932
    38.9400      1670
    38.9600      1540
    38.9800      1414
    39.0000      1302
    39.0200      1244
    39.0400      1138
    39.0600      1160
    39.0800      1122
    39.1000      1148
    39.1200      1174
    39.1400      1168
    39.1600      1144
    39.1800      1162
    39.2000      1180
    39.2200      1222
    39.2400      1252
    39.2600      1258
    39.2800      1272
    39.3000      1326
    39.3200      1342
    39.3400      1246
    39.3600      1258
    39.3800      1228
    39.4000      1264
    39.4200      1212
    39.4400      1274
    39.4600      1230
    39.4800      1250
    39.5000      1230
    39.5200      1360
    39.5400      1392
    39.5600      1506
    39.5800      1570
    39.6000      1764
    39.6200      1920
    39.6400      2092
    39.6600      2290
    39.6800      2466
    39.7000      2560
    39.7200      2664
    39.7400      2646
    39.7600      2588
    39.7800      2386
    39.8000      2192
    39.8200      2014
    39.8400      1796
    39.8600      1694
    39.8800      1504
    39.9000      1330
    39.9200      1104
    39.9400      1032
    39.9600       904
    39.9800       804
    40.0000       762
    40.0200       720
    40.0400       708
    40.0600       688
    40.0800       680
    40.1000       692
    40.1200       680
    40.1400       670
    40.1600       614
    40.1800       642
    40.2000       642
    40.2200       598
    40.2400       598
    40.2600       644
    40.2800       662
    40.3000       668
    40.3200       700
    40.3400       716
    40.3600       764
    40.3800       818
    40.4000       818
    40.4200       896
    40.4400       948
    40.4600      1030
    40.4800      1108
    40.5000      1170
    40.5200      1248
    40.5400      1332
    40.5600      1414
    40.5800      1480
    40.6000      1480
    40.6200      1512
    40.6400      1458
    40.6600      1454
    40.6800      1380
    40.7000      1364
    40.7200      1236
    40.7400      1182
    40.7600      1040
    40.7800      1002
    40.8000       876
    40.8200       860
    40.8400       778
    40.8600       778
    40.8800       692
    40.9000       616
    40.9200       644
    40.9400       646
    40.9600       608
    40.9800       596
    41.0000       600
    41.0200       540
    41.0400       594
    41.0600       588
    41.0800       636
    41.1000       644
    41.1200       690
    41.1400       706
    41.1600       706
    41.1800       698
    41.2000       788
    41.2200       820
    41.2400       862
    41.2600       906
    41.2800       954
    41.3000       894
    41.3200       888
    41.3400       932
    41.3600       978
    41.3800       906
    41.4000       896
    41.4200       910
    41.4400       848
    41.4600       812
    41.4800       838
    41.5000       782
    41.5200       726
    41.5400       742
    41.5600       756
    41.5800       758
    41.6000       740
    41.6200       746
    41.6400       758
    41.6600       804
    41.6800       808
    41.7000       866
    41.7200       884
    41.7400      1010
    41.7600      1138
    41.7800      1214
    41.8000      1218
    41.8200      1434
    41.8400      1566
    41.8600      1694
    41.8800      1754
    41.9000      1874
    41.9200      1910
    41.9400      1898
    41.9600      1894
    41.9800      1822
    42.0000      1684
    42.0200      1554
    42.0400      1412
    42.0600      1298
    42.0800      1216
    42.1000      1100
    42.1200       996
    42.1400       862
    42.1600       820
    42.1800       802
    42.2000       686
    42.2200       640
    42.2400       634
    42.2600       622
    42.2800       610
    42.3000       580
    42.3200       552
    42.3400       530
    42.3600       500
    42.3800       490
    42.4000       512
    42.4200       448
    42.4400       452
    42.4600       450
    42.4800       454
    42.5000       446
    42.5200       410
    42.5400       444
    42.5600       426
    42.5800       420
    42.6000       420
    42.6200       412
    42.6400       412
    42.6600       400
    42.6800       418
    42.7000       412
    42.7200       452
    42.7400       440
    42.7600       448
    42.7800       430
    42.8000       454
    42.8200       482
    42.8400       478
    42.8600       494
    42.8800       542
    42.9000       588
    42.9200       594
    42.9400       640
    42.9600       654
    42.9800       702
    43.0000       772
    43.0200       824
    43.0400       924
    43.0600       986
    43.0800      1062
    43.1000      1236
    43.1200      1330
    43.1400      1582
    43.1600      1708
    43.1800      1864
    43.2000      1920
    43.2200      1928
    43.2400      2024
    43.2600      1972
    43.2800      1826
    43.3000      1770
    43.3200      1694
    43.3400      1596
    43.3600      1466
    43.3800      1300
    43.4000      1204
    43.4200      1158
    43.4400      1012
    43.4600       866
    43.4800       806
    43.5000       716
    43.5200       688
    43.5400       646
    43.5600       636
    43.5800       600
    43.6000       542
    43.6200       562
    43.6400       574
    43.6600       560
    43.6800       630
    43.7000       656
    43.7200       614
    43.7400       626
    43.7600       720
    43.7800       788
    43.8000       740
    43.8200       760
    43.8400       806
    43.8600       736
    43.8800       770
    43.9000       788
    43.9200       734
    43.9400       716
    43.9600       704
    43.9800       656
    44.0000       646
    44.0200       608
    44.0400       584
    44.0600       570
    44.0800       558
    44.1000       552
    44.1200       526
    44.1400       510
    44.1600       528
    44.1800       532
    44.2000       528
    44.2200       530
    44.2400       550
    44.2600       536
    44.2800       582
    44.3000       590
    44.3200       524
    44.3400       596
    44.3600       592
    44.3800       592
    44.4000       570
    44.4200       582
    44.4400       644
    44.4600       602
    44.4800       638
    44.5000       684
    44.5200       638
    44.5400       690
    44.5600       620
    44.5800       694
    44.6000       676
    44.6200       720
    44.6400       710
    44.6600       684
    44.6800       688
    44.7000       718
    44.7200       730
    44.7400       702
    44.7600       684
    44.7800       722
    44.8000       710
    44.8200       698
    44.8400       654
    44.8600       724
    44.8800       732
    44.9000       732
    44.9200       756
    44.9400       758
    44.9600       838
    44.9800       884
    45.0000       850
    45.0200       880
    45.0400       948
    45.0600       888
    45.0800       864
    45.1000       958
    45.1200       960
    45.1400       962
    45.1600       926
    45.1800       922
    45.2000       892
    45.2200       874
    45.2400       880
    45.2600       892
    45.2800       848
    45.3000       760
    45.3200       784
    45.3400       758
    45.3600       732
    45.3800       688
    45.4000       690
    45.4200       678
    45.4400       684
    45.4600       642
    45.4800       640
    45.5000       608
    45.5200       590
    45.5400       616
    45.5600       620
    45.5800       622
    45.6000       656
    45.6200       666
    45.6400       656
    45.6600       648
    45.6800       648
    45.7000       676
    45.7200       660
    45.7400       722
    45.7600       708
    45.7800       708
    45.8000       688
    45.8200       782
    45.8400       696
    45.8600       722
    45.8800       742
    45.9000       766
    45.9200       710
    45.9400       722
    45.9600       740
    45.9800       746
    46.0000       734
    46.0200       724
    46.0400       732
    46.0600       744
    46.0800       770
    46.1000       768
    46.1200       754
    46.1400       736
    46.1600       810
    46.1800       800
    46.2000       806
    46.2200       908
    46.2400       946
    46.2600       956
    46.2800      1044
    46.3000      1104
    46.3200      1168
    46.3400      1284
    46.3600      1362
    46.3800      1448
    46.4000      1548
    46.4200      1710
    46.4400      1850
    46.4600      2104
    46.4800      2422
    46.5000      2580
    46.5200      2958
    46.5400      3350
    46.5600      3572
    46.5800      4116
    46.6000      4804
    46.6200      5256
    46.6400      5980
    46.6600      6674
    46.6800      7288
    46.7000      7684
    46.7200      8162
    46.7400      8264
    46.7600      8238
    46.7800      7916
    46.8000      7592
    46.8200      7128
    46.8400      6816
    46.8600      6180
    46.8800      5620
    46.9000      5028
    46.9200      4706
    46.9400      4048
    46.9600      3678
    46.9800      3272
    47.0000      2964
    47.0200      2750
    47.0400      2500
    47.0600      2110
    47.0800      2008
    47.1000      1932
    47.1200      1740
    47.1400      1646
    47.1600      1594
    47.1800      1414
    47.2000      1256
    47.2200      1192
    47.2400      1112
    47.2600      1080
    47.2800       954
    47.3000       904
    47.3200       838
    47.3400       784
    47.3600       762
    47.3800       716
    47.4000       700
    47.4200       644
    47.4400       652
    47.4600       642
    47.4800       594
    47.5000       588
    47.5200       512
    47.5400       616
    47.5600       584
    47.5800       602
    47.6000       574
    47.6200       582
    47.6400       618
    47.6600       634
    47.6800       622
    47.7000       644
    47.7200       682
    47.7400       692
    47.7600       812
    47.7800       836
    47.8000       914
    47.8200       888
    47.8400       912
    47.8600       934
    47.8800       956
    47.9000       998
    47.9200       946
    47.9400       962
    47.9600       934
    47.9800       954
    48.0000       886
    48.0200       878
    48.0400       864
    48.0600       860
    48.0800       890
    48.1000       862
    48.1200       908
    48.1400       898
    48.1600       892
    48.1800       940
    48.2000       954
    48.2200      1012
    48.2400       986
    48.2600       988
    48.2800       944
    48.3000       952
    48.3200       894
    48.3400       948
    48.3600       838
    48.3800       844
    48.4000       836
    48.4200       764
    48.4400       794
    48.4600       706
    48.4800       694
    48.5000       696
    48.5200       656
    48.5400       656
    48.5600       704
    48.5800       710
    48.6000       702
    48.6200       700
    48.6400       628
    48.6600       684
    48.6800       668
    48.7000       646
    48.7200       582
    48.7400       546
    48.7600       574
    48.7800       568
    48.8000       534
    48.8200       530
    48.8400       490
    48.8600       514
    48.8800       448
    48.9000       434
    48.9200       418
    48.9400       436
    48.9600       420
    48.9800       382
    49.0000       376
    49.0200       370
    49.0400       382
    49.0600       360
    49.0800       342
    49.1000       390
    49.1200       374
    49.1400       346
    49.1600       334
    49.1800       340
    49.2000       274
    49.2200       322
    49.2400       324
    49.2600       336
    49.2800       306
    49.3000       312
    49.3200       328
    49.3400       320
    49.3600       310
    49.3800       360
    49.4000       322
    49.4200       342
    49.4400       328
    49.4600       324
    49.4800       336
    49.5000       308
    49.5200       318
    49.5400       318
    49.5600       290
    49.5800       334
    49.6000       314
    49.6200       346
    49.6400       342
    49.6600       386
    49.6800       366
    49.7000       360
    49.7200       358
    49.7400       364
    49.7600       348
    49.7800       334
    49.8000       394
    49.8200       380
    49.8400       360
    49.8600       354
    49.8800       364
    49.9000       414
    49.9200       426
    49.9400       396
    49.9600       414
    49.9800       450
    50.0000       474
    50.0200       460
    50.0400       528
    50.0600       526
    50.0800       578
    50.1000       608
    50.1200       616
    50.1400       750
    50.1600       724
    50.1800       792
    50.2000       852
    50.2200       842
    50.2400       866
    50.2600       928
    50.2800       970
    50.3000      1020
    50.3200       936
    50.3400       998
    50.3600      1064
    50.3800      1018
    50.4000       998
    50.4200      1074
    50.4400      1040
    50.4600      1014
    50.4800      1036
    50.5000      1086
    50.5200      1072
    50.5400       996
    50.5600      1018
    50.5800      1100
    50.6000       982
    50.6200       972
    50.6400       994
    50.6600      1012
    50.6800       974
    50.7000       940
    50.7200       984
    50.7400       972
    50.7600       962
    50.7800      1034
    50.8000       946
    50.8200       986
    50.8400       946
    50.8600       994
    50.8800       962
    50.9000      1034
    50.9200      1004
    50.9400      1096
    50.9600       952
    50.9800       962
    51.0000      1034
    51.0200       904
    51.0400       922
    51.0600       900
    51.0800       870
    51.1000       794
    51.1200       766
    51.1400       754
    51.1600       704
    51.1800       692
    51.2000       686
    51.2200       684
    51.2400       634
    51.2600       640
    51.2800       686
    51.3000       670
    51.3200       644
    51.3400       684
    51.3600       750
    51.3800       774
    51.4000       810
    51.4200       820
    51.4400       746
    51.4600       778
    51.4800       772
    51.5000       788
    51.5200       778
    51.5400       776
    51.5600       802
    51.5800       776
    51.6000       788
    51.6200       788
    51.6400       750
    51.6600       770
    51.6800       746
    51.7000       814
    51.7200       868
    51.7400       842
    51.7600       890
    51.7800       956
    51.8000      1002
    51.8200      1090
    51.8400      1114
    51.8600      1142
    51.8800      1146
    51.9000      1212
    51.9200      1138
    51.9400      1178
    51.9600      1180
    51.9800      1148
    52.0000      1164
    52.0200      1122
    52.0400      1008
    52.0600      1008
    52.0800       962
    52.1000       946
    52.1200       928
    52.1400       844
    52.1600       822
    52.1800       790
    52.2000       802
    52.2200       726
    52.2400       750
    52.2600       692
    52.2800       682
    52.3000       690
    52.3200       702
    52.3400       682
    52.3600       706
    52.3800       754
    52.4000       842
    52.4200       844
    52.4400       818
    52.4600       922
    52.4800       996
    52.5000      1080
    52.5200      1212
    52.5400      1202
    52.5600      1298
    52.5800      1328
    52.6000      1402
    52.6200      1504
    52.6400      1504
    52.6600      1506
    52.6800      1510
    52.7000      1482
    52.7200      1352
    52.7400      1258
    52.7600      1316
    52.7800      1132
    52.8000      1170
    52.8200      1068
    52.8400      1042
    52.8600      1036
    52.8800       966
    52.9000       914
    52.9200       838
    52.9400       864
    52.9600       800
    52.9800       820
    53.0000       814
    53.0200       828
    53.0400       836
    53.0600       876
    53.0800       866
    53.1000       904
    53.1200      1004
    53.1400      1058
    53.1600      1142
    53.1800      1262
    53.2000      1336
    53.2200      1510
    53.2400      1646
    53.2600      1746
    53.2800      1694
    53.3000      1726
    53.3200      1710
    53.3400      1692
    53.3600      1622
    53.3800      1590
    53.4000      1532
    53.4200      1460
    53.4400      1398
    53.4600      1222
    53.4800      1208
    53.5000      1006
    53.5200       940
    53.5400       848
    53.5600       810
    53.5800       728
    53.6000       696
    53.6200       646
    53.6400       584
    53.6600       540
    53.6800       504
    53.7000       546
    53.7200       468
    53.7400       476
    53.7600       442
    53.7800       454
    53.8000       434
    53.8200       432
    53.8400       430
    53.8600       398
    53.8800       404
    53.9000       384
    53.9200       374
    53.9400       370
    53.9600       358
    53.9800       372
    54.0000       358
    54.0200       382
    54.0400       382
    54.0600       392
    54.0800       366
    54.1000       380
    54.1200       374
    54.1400       366
    54.1600       390
    54.1800       404
    54.2000       376
    54.2200       356
    54.2400       404
    54.2600       422
    54.2800       406
    54.3000       428
    54.3200       404
    54.3400       432
    54.3600       464
    54.3800       488
    54.4000       474
    54.4200       444
    54.4400       476
    54.4600       542
    54.4800       504
    54.5000       544
    54.5200       602
    54.5400       578
    54.5600       608
    54.5800       644
    54.6000       672
    54.6200       702
    54.6400       692
    54.6600       778
    54.6800       778
    54.7000       840
    54.7200       916
    54.7400       810
    54.7600       900
    54.7800       896
    54.8000       942
    54.8200       864
    54.8400       900
    54.8600       892
    54.8800       826
    54.9000       838
    54.9200       760
    54.9400       736
    54.9600       728
    54.9800       706
    55.0000       720
    55.0200       678
    55.0400       712
    55.0600       646
    55.0800       614
    55.1000       598
    55.1200       648
    55.1400       568
    55.1600       614
    55.1800       630
    55.2000       620
    55.2200       612
    55.2400       600
    55.2600       546
    55.2800       600
    55.3000       560
    55.3200       614
    55.3400       532
    55.3600       524
    55.3800       534
    55.4000       548
    55.4200       528
    55.4400       494
    55.4600       496
    55.4800       512
    55.5000       494
    55.5200       474
    55.5400       482
    55.5600       478
    55.5800       478
    55.6000       484
    55.6200       504
    55.6400       472
    55.6600       500
    55.6800       470
    55.7000       520
    55.7200       478
    55.7400       514
    55.7600       480
    55.7800       514
    55.8000       458
    55.8200       488
    55.8400       490
    55.8600       448
    55.8800       482
    55.9000       462
    55.9200       416
    55.9400       462
    55.9600       452
    55.9800       430
    56.0000       404
    56.0200       366
    56.0400       404
    56.0600       378
    56.0800       392
    56.1000       370
    56.1200       378
    56.1400       354
    56.1600       340
    56.1800       348
    56.2000       324
    56.2200       324
    56.2400       346
    56.2600       326
    56.2800       342
    56.3000       336
    56.3200       320
    56.3400       324
    56.3600       314
    56.3800       350
    56.4000       346
    56.4200       340
    56.4400       344
    56.4600       340
    56.4800       364
    56.5000       360
    56.5200       344
    56.5400       340
    56.5600       372
    56.5800       336
    56.6000       342
    56.6200       392
    56.6400       398
    56.6600       404
    56.6800       364
    56.7000       378
    56.7200       406
    56.7400       382
    56.7600       442
    56.7800       408
    56.8000       432
    56.8200       408
    56.8400       432
    56.8600       390
    56.8800       422
    56.9000       460
    56.9200       498
    56.9400       470
    56.9600       488
    56.9800       474
    57.0000       528
    57.0200       514
    57.0400       594
    57.0600       616
    57.0800       624
    57.1000       626
    57.1200       650
    57.1400       736
    57.1600       738
    57.1800       814
    57.2000       824
    57.2200       916
    57.2400      1052
    57.2600      1090
    57.2800      1210
    57.3000      1290
    57.3200      1422
    57.3400      1584
    57.3600      1576
    57.3800      1698
    57.4000      1806
    57.4200      1824
    57.4400      1840
    57.4600      1898
    57.4800      1874
    57.5000      1872
    57.5200      1846
    57.5400      1826
    57.5600      1776
    57.5800      1674
    57.6000      1714
    57.6200      1726
    57.6400      1684
    57.6600      1734
    57.6800      1820
    57.7000      1806
    57.7200      1800
    57.7400      1940
    57.7600      1900
    57.7800      1856
    57.8000      1900
    57.8200      1782
    57.8400      1756
    57.8600      1748
    57.8800      1610
    57.9000      1644
    57.9200      1568
    57.9400      1440
    57.9600      1416
    57.9800      1290
    58.0000      1240
    58.0200      1136
    58.0400      1134
    58.0600      1072
    58.0800      1028
    58.1000      1000
    58.1200       990
    58.1400       974
    58.1600      1006
    58.1800      1004
    58.2000      1008
    58.2200      1010
    58.2400      1050
    58.2600      1080
    58.2800      1126
    58.3000      1222
    58.3200      1296
    58.3400      1264
    58.3600      1376
    58.3800      1484
    58.4000      1576
    58.4200      1650
    58.4400      1830
    58.4600      1816
    58.4800      1920
    58.5000      2014
    58.5200      2108
    58.5400      2360
    58.5600      2378
    58.5800      2570
    58.6000      2646
    58.6200      2724
    58.6400      2788
    58.6600      2956
    58.6800      3062
    58.7000      3222
    58.7200      3182
    58.7400      3244
    58.7600      3316
    58.7800      3258
    58.8000      3238
    58.8200      3182
    58.8400      3068
    58.8600      2966
    58.8800      2806
    58.9000      2728
    58.9200      2504
    58.9400      2382
    58.9600      2156
    58.9800      2084
    59.0000      1908
    59.0200      1692
    59.0400      1564
    59.0600      1470
    59.0800      1374
    59.1000      1194
    59.1200      1122
    59.1400      1042
    59.1600       982
    59.1800       868
    59.2000       872
    59.2200       838
    59.2400       764
    59.2600       738
    59.2800       740
    59.3000       704
    59.3200       696
    59.3400       650
    59.3600       638
    59.3800       616
    59.4000       672
    59.4200       628
    59.4400       650
    59.4600       652
    59.4800       582
    59.5000       608
    59.5200       544
    59.5400       614
    59.5600       592
    59.5800       568
    59.6000       606
    59.6200       530
    59.6400       572
    59.6600       606
    59.6800       566
    59.7000       594
    59.7200       532
    59.7400       538
    59.7600       576
    59.7800       572
    59.8000       480
    59.8200       500
    59.8400       516
    59.8600       520
    59.8800       516
    59.9000       496
    59.9200       524
    59.9400       480
    59.9600       490
    59.9800       486
    60.0000       466
    60.0200       492
    60.0400       468
    60.0600       472
    60.0800       444
    60.1000       450
    60.1200       436
    60.1400       426
    60.1600       404
    60.1800       446
    60.2000       426
    60.2200       412
    60.2400       412
    60.2600       394
    60.2800       396
    60.3000       424
    60.3200       366
    60.3400       390
    60.3600       388
    60.3800       400
    60.4000       394
    60.4200       428
    60.4400       402
    60.4600       428
    60.4800       440
    60.5000       442
    60.5200       452
    60.5400       418
    60.5600       422
    60.5800       458
    60.6000       404
    60.6200       518
    60.6400       470
    60.6600       470
    60.6800       436
    60.7000       506
    60.7200       512
    60.7400       494
    60.7600       488
    60.7800       496
    60.8000       524
    60.8200       452
    60.8400       486
    60.8600       530
    60.8800       520
    60.9000       546
    60.9200       530
    60.9400       510
    60.9600       526
    60.9800       558
    61.0000       592
    61.0200       628
    61.0400       582
    61.0600       588
    61.0800       684
    61.1000       702
    61.1200       654
    61.1400       670
    61.1600       698
    61.1800       650
    61.2000       688
    61.2200       688
    61.2400       610
    61.2600       626
    61.2800       706
    61.3000       740
    61.3200       658
    61.3400       706
    61.3600       644
    61.3800       664
    61.4000       668
    61.4200       674
    61.4400       676
    61.4600       706
    61.4800       672
    61.5000       744
    61.5200       674
    61.5400       678
    61.5600       740
    61.5800       722
    61.6000       676
    61.6200       638
    61.6400       662
    61.6600       654
    61.6800       656
    61.7000       610
    61.7200       578
    61.7400       582
    61.7600       586
    61.7800       548
    61.8000       538
    61.8200       580
    61.8400       564
    61.8600       518
    61.8800       552
    61.9000       516
    61.9200       552
    61.9400       546
    61.9600       532
    61.9800       572
    62.0000       572
    62.0200       592
    62.0400       572
    62.0600       564
    62.0800       530
    62.1000       582
    62.1200       634
    62.1400       574
    62.1600       580
    62.1800       590
    62.2000       614
    62.2200       568
    62.2400       624
    62.2600       582
    62.2800       604
    62.3000       588
    62.3200       586
    62.3400       578
    62.3600       554
    62.3800       538
    62.4000       504
    62.4200       562
    62.4400       526
    62.4600       550
    62.4800       506
    62.5000       478
    62.5200       476
    62.5400       442
    62.5600       460
    62.5800       450
    62.6000       428
    62.6200       464
    62.6400       436
    62.6600       446
    62.6800       436
    62.7000       476
    62.7200       416
    62.7400       422
    62.7600       430
    62.7800       390
    62.8000       364
    62.8200       362
    62.8400       360
    62.8600       344
    62.8800       364
    62.9000       402
    62.9200       358
    62.9400       354
    62.9600       372
    62.9800       322
    63.0000       314
    63.0200       332
    63.0400       314
    63.0600       334
    63.0800       294
    63.1000       302
    63.1200       318
    63.1400       300
    63.1600       306
    63.1800       304
    63.2000       316
    63.2200       282
    63.2400       280
    63.2600       278
    63.2800       276
    63.3000       252
    63.3200       314
    63.3400       290
    63.3600       272
    63.3800       310
    63.4000       298
    63.4200       258
    63.4400       282
    63.4600       278
    63.4800       282
    63.5000       270
    63.5200       310
    63.5400       292
    63.5600       294
    63.5800       302
    63.6000       332
    63.6200       322
    63.6400       354
    63.6600       358
    63.6800       362
    63.7000       372
    63.7200       372
    63.7400       398
    63.7600       450
    63.7800       432
    63.8000       452
    63.8200       434
    63.8400       456
    63.8600       494
    63.8800       476
    63.9000       492
    63.9200       504
    63.9400       510
    63.9600       516
    63.9800       490
    64.0000       476
    64.0200       488
    64.0400       430
    64.0600       454
    64.0800       432
    64.1000       442
    64.1200       386
    64.1400       366
    64.1600       386
    64.1800       358
    64.2000       328
    64.2200       326
    64.2400       300
    64.2600       316
    64.2800       306
    64.3000       288
    64.3200       292
    64.3400       276
    64.3600       248
    64.3800       268
    64.4000       248
    64.4200       264
    64.4400       262
    64.4600       266
    64.4800       270
    64.5000       262
    64.5200       272
    64.5400       254
    64.5600       280
    64.5800       258
    64.6000       242
    64.6200       254
    64.6400       252
    64.6600       260
    64.6800       270
    64.7000       256
    64.7200       236
    64.7400       288
    64.7600       266
    64.7800       232
    64.8000       270
    64.8200       278
    64.8400       284
    64.8600       256
    64.8800       312
    64.9000       298
    64.9200       314
    64.9400       330
    64.9600       310
    64.9800       306
    65.0000       276
    65.0200       326
    65.0400       314
    65.0600       318
    65.0800       348
    65.1000       362
    65.1200       392
    65.1400       432
    65.1600       388
    65.1800       380
    65.2000       384
    65.2200       444
    65.2400       458
    65.2600       452
    65.2800       450
    65.3000       496
    65.3200       500
    65.3400       480
    65.3600       476
    65.3800       472
    65.4000       468
    65.4200       456
    65.4400       460
    65.4600       458
    65.4800       430
    65.5000       418
    65.5200       402
    65.5400       388
    65.5600       404
    65.5800       400
    65.6000       342
    65.6200       370
    65.6400       356
    65.6600       306
    65.6800       374
    65.7000       324
    65.7200       350
    65.7400       328
    65.7600       314
    65.7800       348
    65.8000       302
    65.8200       308
    65.8400       306
    65.8600       326
    65.8800       272
    65.9000       312
    65.9200       292
    65.9400       336
    65.9600       304
    65.9800       284
    66.0000       286
    66.0200       262
    66.0400       282
    66.0600       262
    66.0800       288
    66.1000       338
    66.1200       274
    66.1400       304
    66.1600       310
    66.1800       334
    66.2000       306
    66.2200       340
    66.2400       334
    66.2600       302
    66.2800       328
    66.3000       318
    66.3200       366
    66.3400       348
    66.3600       386
    66.3800       358
    66.4000       390
    66.4200       450
    66.4400       418
    66.4600       432
    66.4800       460
    66.5000       484
    66.5200       476
    66.5400       502
    66.5600       506
    66.5800       524
    66.6000       556
    66.6200       536
    66.6400       590
    66.6600       630
    66.6800       654
    66.7000       734
    66.7200       666
    66.7400       710
    66.7600       746
    66.7800       752
    66.8000       808
    66.8200       804
    66.8400       802
    66.8600       844
    66.8800       800
    66.9000       904
    66.9200       918
    66.9400       872
    66.9600       838
    66.9800       832
    67.0000       860
    67.0200       808
    67.0400       750
    67.0600       762
    67.0800       722
    67.1000       718
    67.1200       658
    67.1400       650
    67.1600       636
    67.1800       582
    67.2000       588
    67.2200       562
    67.2400       544
    67.2600       528
    67.2800       472
    67.3000       476
    67.3200       412
    67.3400       432
    67.3600       416
    67.3800       434
    67.4000       370
    67.4200       398
    67.4400       400
    67.4600       348
    67.4800       384
    67.5000       370
    67.5200       342
    67.5400       378
    67.5600       404
    67.5800       382
    67.6000       348
    67.6200       386
    67.6400       330
    67.6600       366
    67.6800       370
    67.7000       392
    67.7200       430
    67.7400       408
    67.7600       378
    67.7800       426
    67.8000       420
    67.8200       426
    67.8400       434
    67.8600       468
    67.8800       510
    67.9000       518
    67.9200       552
    67.9400       614
    67.9600       626
    67.9800       722
    68.0000       720
    68.0200       780
    68.0400       826
    68.0600       878
    68.0800       916
    68.1000      1028
    68.1200      1098
    68.1400      1146
    68.1600      1220
    68.1800      1160
    68.2000      1272
    68.2200      1294
    68.2400      1234
    68.2600      1262
    68.2800      1218
    68.3000      1222
    68.3200      1246
    68.3400      1204
    68.3600      1172
    68.3800      1090
    68.4000      1114
    68.4200      1002
    68.4400       970
    68.4600       890
    68.4800       890
    68.5000       832
    68.5200       768
    68.5400       704
    68.5600       676
    68.5800       668
    68.6000       536
    68.6200       584
    68.6400       572
    68.6600       540
    68.6800       508
    68.7000       480
    68.7200       472
    68.7400       474
    68.7600       436
    68.7800       414
    68.8000       388
    68.8200       378
    68.8400       426
    68.8600       394
    68.8800       356
    68.9000       378
    68.9200       368
    68.9400       350
    68.9600       346
    68.9800       360
    69.0000       320
    69.0200       358
    69.0400       324
    69.0600       362
    69.0800       372
    69.1000       336
    69.1200       322
    69.1400       340
    69.1600       344
    69.1800       382
    69.2000       390
    69.2200       376
    69.2400       398
    69.2600       444
    69.2800       434
    69.3000       424
    69.3200       468
    69.3400       532
    69.3600       466
    69.3800       514
    69.4000       528
    69.4200       526
    69.4400       548
    69.4600       554
    69.4800       578
    69.5000       534
    69.5200       528
    69.5400       538
    69.5600       516
    69.5800       522
    69.6000       494
    69.6200       500
    69.6400       524
    69.6600       484
    69.6800       460
    69.7000       422
    69.7200       440
    69.7400       390
    69.7600       384
    69.7800       364
    69.8000       346
    69.8200       326
    69.8400       338
    69.8600       308
    69.8800       342
    69.9000       324
    69.9200       310
    69.9400       264
    69.9600       284
    69.9800       292
    70.0000       270
    70.0200       252
    70.0400       286
    70.0600       260
    70.0800       250
    70.1000       220
    70.1200       274
    70.1400       228
    70.1600       264
    70.1800       252
    70.2000       232
    70.2200       242
    70.2400       234
    70.2600       216
    70.2800       214
    70.3000       236
    70.3200       224
    70.3400       252
    70.3600       228
    70.3800       224
    70.4000       220
    70.4200       236
    70.4400       228
    70.4600       248
    70.4800       232
    70.5000       226
    70.5200       238
    70.5400       284
    70.5600       256
    70.5800       232
    70.6000       270
    70.6200       232
    70.6400       260
    70.6600       252
    70.6800       250
    70.7000       234
    70.7200       274
    70.7400       272
    70.7600       266
    70.7800       254
    70.8000       240
    70.8200       246
    70.8400       232
    70.8600       246
    70.8800       236
    70.9000       250
    70.9200       252
    70.9400       238
    70.9600       246
    70.9800       248
    71.0000       220
    71.0200       232
    71.0400       256
    71.0600       258
    71.0800       284
    71.1000       270
    71.1200       260
    71.1400       270
    71.1600       292
    71.1800       316
    71.2000       286
    71.2200       294
    71.2400       270
    71.2600       336
    71.2800       326
    71.3000       372
    71.3200       362
    71.3400       364
    71.3600       448
    71.3800       436
    71.4000       446
    71.4200       508
    71.4400       574
    71.4600       586
    71.4800       542
    71.5000       544
    71.5200       594
    71.5400       620
    71.5600       690
    71.5800       654
    71.6000       624
    71.6200       626
    71.6400       622
    71.6600       658
    71.6800       646
    71.7000       696
    71.7200       594
    71.7400       598
    71.7600       604
    71.7800       602
    71.8000       594
    71.8200       610
    71.8400       546
    71.8600       542
    71.8800       550
    71.9000       558
    71.9200       498
    71.9400       502
    71.9600       546
    71.9800       524
    72.0000       464
    72.0200       424
    72.0400       498
    72.0600       486
    72.0800       466
    72.1000       488
    72.1200       494
    72.1400       456
    72.1600       454
    72.1800       468
    72.2000       478
    72.2200       474
    72.2400       486
    72.2600       526
    72.2800       486
    72.3000       466
    72.3200       516
    72.3400       502
    72.3600       512
    72.3800       482
    72.4000       484
    72.4200       476
    72.4400       488
    72.4600       466
    72.4800       486
    72.5000       472
    72.5200       446
    72.5400       448
    72.5600       394
    72.5800       404
    72.6000       432
    72.6200       404
    72.6400       408
    72.6600       460
    72.6800       384
    72.7000       384
    72.7200       380
    72.7400       396
    72.7600       372
    72.7800       322
    72.8000       380
    72.8200       344
    72.8400       332
    72.8600       366
    72.8800       326
    72.9000       326
    72.9200       342
    72.9400       298
    72.9600       322
    72.9800       322
    73.0000       342
    73.0200       328
    73.0400       294
    73.0600       288
    73.0800       312
    73.1000       302
    73.1200       296
    73.1400       280
    73.1600       242
    73.1800       282
    73.2000       258
    73.2200       270
    73.2400       252
    73.2600       230
    73.2800       284
    73.3000       254
    73.3200       268
    73.3400       220
    73.3600       228
    73.3800       244
    73.4000       242
    73.4200       220
    73.4400       204
    73.4600       224
    73.4800       210
    73.5000       216
    73.5200       224
    73.5400       258
    73.5600       232
    73.5800       190
    73.6000       260
    73.6200       238
    73.6400       252
    73.6600       244
    73.6800       232
    73.7000       246
    73.7200       228
    73.7400       238
    73.7600       240
    73.7800       236
    73.8000       268
    73.8200       236
    73.8400       232
    73.8600       268
    73.8800       238
    73.9000       264
    73.9200       256
    73.9400       252
    73.9600       274
    73.9800       292
    74.0000       296
    74.0200       260
    74.0400       264
    74.0600       304
    74.0800       296
    74.1000       276
    74.1200       296
    74.1400       320
    74.1600       316
    74.1800       322
    74.2000       316
    74.2200       298
    74.2400       316
    74.2600       314
    74.2800       284
    74.3000       264
    74.3200       330
    74.3400       292
    74.3600       268
    74.3800       266
    74.4000       282
    74.4200       306
    74.4400       260
    74.4600       246
    74.4800       272
    74.5000       240
    74.5200       252
    74.5400       242
    74.5600       262
    74.5800       242
    74.6000       252
    74.6200       226
    74.6400       210
    74.6600       200
    74.6800       242
    74.7000       228
    74.7200       228
    74.7400       200
    74.7600       204
    74.7800       238
    74.8000       216
    74.8200       200
    74.8400       228
    74.8600       206
    74.8800       218
    74.9000       226
    74.9200       222
    74.9400       202
    74.9600       216
    74.9800       208
    75.0000       216
    75.0200       220
    75.0400       224
    75.0600       194
    75.0800       198
    75.1000       216
    75.1200       236
    75.1400       204
    75.1600       200
    75.1800       206
    75.2000       230
    75.2200       196
    75.2400       212
    75.2600       234
    75.2800       216
    75.3000       218
    75.3200       192
    75.3400       216
    75.3600       222
    75.3800       230
    75.4000       242
    75.4200       220
    75.4400       214
    75.4600       206
    75.4800       226
    75.5000       228
    75.5200       178
    75.5400       216
    75.5600       208
    75.5800       210
    75.6000       234
    75.6200       236
    75.6400       244
    75.6600       244
    75.6800       248
    75.7000       250
    75.7200       248
    75.7400       286
    75.7600       236
    75.7800       236
    75.8000       248
    75.8200       260
    75.8400       240
    75.8600       244
    75.8800       276
    75.9000       262
    75.9200       244
    75.9400       262
    75.9600       246
    75.9800       250
    76.0000       282
    76.0200       278
    76.0400       254
    76.0600       262
    76.0800       270
    76.1000       260
    76.1200       302
    76.1400       266
    76.1600       292
    76.1800       294
    76.2000       284
    76.2200       270
    76.2400       272
    76.2600       286
    76.2800       312
    76.3000       314
    76.3200       320
    76.3400       336
    76.3600       350
    76.3800       344
    76.4000       290
    76.4200       344
    76.4400       336
    76.4600       352
    76.4800       356
    76.5000       360
    76.5200       392
    76.5400       372
    76.5600       388
    76.5800       428
    76.6000       382
    76.6200       376
    76.6400       408
    76.6600       420
    76.6800       414
    76.7000       464
    76.7200       406
    76.7400       390
    76.7600       424
    76.7800       410
    76.8000       370
    76.8200       384
    76.8400       400
    76.8600       420
    76.8800       400
    76.9000       354
    76.9200       362
    76.9400       362
    76.9600       386
    76.9800       368
    77.0000       372
    77.0200       350
    77.0400       368
    77.0600       378
    77.0800       392
    77.1000       366
    77.1200       354
    77.1400       362
    77.1600       372
    77.1800       352
    77.2000       390
    77.2200       346
    77.2400       362
    77.2600       390
    77.2800       392
    77.3000       418
    77.3200       428
    77.3400       412
    77.3600       416
    77.3800       468
    77.4000       480
    77.4200       486
    77.4400       480
    77.4600       548
    77.4800       570
    77.5000       590
    77.5200       648
    77.5400       692
    77.5600       664
    77.5800       690
    77.6000       744
    77.6200       776
    77.6400       828
    77.6600       858
    77.6800       822
    77.7000       872
    77.7200       874
    77.7400       868
    77.7600       822
    77.7800       826
    77.8000       862
    77.8200       746
    77.8400       700
    77.8600       772
    77.8800       684
    77.9000       714
    77.9200       688
    77.9400       682
    77.9600       632
    77.9800       610
    78.0000       654
    78.0200       594
    78.0400       556
    78.0600       536
    78.0800       510
    78.1000       482
    78.1200       456
    78.1400       452
    78.1600       418
    78.1800       440
    78.2000       408
    78.2200       436
    78.2400       394
    78.2600       402
    78.2800       382
    78.3000       380
    78.3200       374
    78.3400       386
    78.3600       362
    78.3800       358
    78.4000       356
    78.4200       410
    78.4400       394
    78.4600       382
    78.4800       372
    78.5000       384
    78.5200       426
    78.5400       426
    78.5600       394
    78.5800       414
    78.6000       468
    78.6200       442
    78.6400       420
    78.6600       412
    78.6800       422
    78.7000       416
    78.7200       424
    78.7400       400
    78.7600       430
    78.7800       438
    78.8000       446
    78.8200       390
    78.8400       406
    78.8600       358
    78.8800       372
    78.9000       368
    78.9200       374
    78.9400       372
    78.9600       366
    78.9800       348
    79.0000       314
    79.0200       332
    79.0400       356
    79.0600       326
    79.0800       328
    79.1000       294
    79.1200       298
    79.1400       298
    79.1600       318
    79.1800       274
    79.2000       306
    79.2200       316
    79.2400       290
    79.2600       280
    79.2800       254
    79.3000       256
    79.3200       286
    79.3400       276
    79.3600       280
    79.3800       262
    79.4000       262
    79.4200       252
    79.4400       244
    79.4600       250
    79.4800       278
    79.5000       248
    79.5200       270
    79.5400       294
    79.5600       286
    79.5800       266
    79.6000       268
    79.6200       276
    79.6400       306
    79.6600       268
    79.6800       278
    79.7000       266
    79.7200       268
    79.7400       282
    79.7600       262
    79.7800       294
    79.8000       306
    79.8200       274
    79.8400       274
    79.8600       260
    79.8800       290
    79.9000       266
    79.9200       252
    79.9400       264
    79.9600       272
    79.9800       254
    80.0000       284
    80.0200       256
    80.0400       276
    80.0600       270
    80.0800       286
    80.1000       244
    80.1200       262
    80.1400       236
    80.1600       266
    80.1800       300
    80.2000       282
    80.2200       272
    80.2400       256
    80.2600       248
    80.2800       288
    80.3000       276
    80.3200       298
    80.3400       274
    80.3600       254
    80.3800       246
    80.4000       236
    80.4200       254
    80.4400       246
    80.4600       260
    80.4800       260
    80.5000       234
    80.5200       266
    80.5400       262
    80.5600       266
    80.5800       282
    80.6000       242
    80.6200       250
    80.6400       246
    80.6600       262
    80.6800       240
    80.7000       250
    80.7200       260
    80.7400       226
    80.7600       252
    80.7800       246
    80.8000       244
    80.8200       240
    80.8400       216
    80.8600       218
    80.8800       220
    80.9000       218
    80.9200       236
    80.9400       220
    80.9600       190
    80.9800       206
    81.0000       220
    81.0200       212
    81.0400       202
    81.0600       216
    81.0800       218
    81.1000       234
    81.1200       230
    81.1400       226
    81.1600       234
    81.1800       232
    81.2000       248
    81.2200       262
    81.2400       242
    81.2600       270
    81.2800       250
    81.3000       266
    81.3200       248
    81.3400       278
    81.3600       242
    81.3800       276
    81.4000       256
    81.4200       266
    81.4400       280
    81.4600       288
    81.4800       258
    81.5000       292
    81.5200       252
    81.5400       278
    81.5600       320
    81.5800       256
    81.6000       286
    81.6200       266
    81.6400       258
    81.6600       236
    81.6800       268
    81.7000       276
    81.7200       254
    81.7400       270
    81.7600       272
    81.7800       280
    81.8000       258
    81.8200       280
    81.8400       270
    81.8600       280
    81.8800       270
    81.9000       290
    81.9200       290
    81.9400       270
    81.9600       278
    81.9800       286
    82.0000       240
    82.0200       292
    82.0400       252
    82.0600       284
    82.0800       274
    82.1000       298
    82.1200       314
    82.1400       320
    82.1600       272
    82.1800       328
    82.2000       316
    82.2200       336
    82.2400       318
    82.2600       332
    82.2800       336
    82.3000       336
    82.3200       332
    82.3400       330
    82.3600       328
    82.3800       316
    82.4000       352
    82.4200       338
    82.4400       332
    82.4600       392
    82.4800       354
    82.5000       360
    82.5200       304
    82.5400       370
    82.5600       326
    82.5800       378
    82.6000       362
    82.6200       372
    82.6400       398
    82.6600       404
    82.6800       374
    82.7000       412
    82.7200       416
    82.7400       424
    82.7600       432
    82.7800       422
    82.8000       410
    82.8200       450
    82.8400       416
    82.8600       414
    82.8800       466
    82.9000       432
    82.9200       434
    82.9400       444
    82.9600       404
    82.9800       418
    83.0000       408
    83.0200       414
    83.0400       420
    83.0600       418
    83.0800       428
    83.1000       430
    83.1200       432
    83.1400       406
    83.1600       408
    83.1800       424
    83.2000       388
    83.2200       404
    83.2400       404
    83.2600       412
    83.2800       414
    83.3000       420
    83.3200       422
    83.3400       374
    83.3600       374
    83.3800       346
    83.4000       398
    83.4200       360
    83.4400       342
    83.4600       356
    83.4800       360
    83.5000       350
    83.5200       348
    83.5400       336
    83.5600       344
    83.5800       314
    83.6000       356
    83.6200       326
    83.6400       306
    83.6600       300
    83.6800       336
    83.7000       310
    83.7200       288
    83.7400       306
    83.7600       308
    83.7800       286
    83.8000       302
    83.8200       306
    83.8400       284
    83.8600       332
    83.8800       308
    83.9000       292
    83.9200       304
    83.9400       322
    83.9600       314
    83.9800       280
    84.0000       310
    84.0200       266
    84.0400       284
    84.0600       260
    84.0800       290
    84.1000       268
    84.1200       276
    84.1400       308
    84.1600       270
    84.1800       284
    84.2000       254
    84.2200       296
    84.2400       290
    84.2600       294
    84.2800       284
    84.3000       260
    84.3200       258
    84.3400       292
    84.3600       288
    84.3800       296
    84.4000       290
    84.4200       258
    84.4400       274
    84.4600       278
    84.4800       250
    84.5000       278
    84.5200       292
    84.5400       292
    84.5600       248
    84.5800       252
    84.6000       264
    84.6200       256
    84.6400       264
    84.6600       242
    84.6800       266
    84.7000       242
    84.7200       312
    84.7400       262
    84.7600       246
    84.7800       254
    84.8000       284
    84.8200       258
    84.8400       256
    84.8600       258
    84.8800       276
    84.9000       244
    84.9200       256
    84.9400       240
    84.9600       258
    84.9800       244
    85.0000       218
    85.0200       276
    85.0400       282
    85.0600       254
    85.0800       224
    85.1000       244
    85.1200       278
    85.1400       228
    85.1600       262
    85.1800       260
    85.2000       260
    85.2200       250
    85.2400       238
    85.2600       246
    85.2800       236
    85.3000       230
    85.3200       210
    85.3400       238
    85.3600       242
    85.3800       236
    85.4000       248
    85.4200       250
    85.4400       250
    85.4600       276
    85.4800       264
    85.5000       280
    85.5200       268
    85.5400       274
    85.5600       282
    85.5800       318
    85.6000       246
    85.6200       282
    85.6400       264
    85.6600       296
    85.6800       336
    85.7000       296
    85.7200       256
    85.7400       276
    85.7600       256
    85.7800       292
    85.8000       242
    85.8200       286
    85.8400       246
    85.8600       260
    85.8800       246
    85.9000       250
    85.9200       248
    85.9400       256
    85.9600       230
    85.9800       262
    86.0000       232
    86.0200       242
    86.0400       214
    86.0600       240
    86.0800       200
    86.1000       226
    86.1200       196
    86.1400       218
    86.1600       218
    86.1800       246
    86.2000       218
    86.2200       212
    86.2400       208
    86.2600       220
    86.2800       208
    86.3000       196
    86.3200       212
    86.3400       208
    86.3600       224
    86.3800       218
    86.4000       196
    86.4200       186
    86.4400       204
    86.4600       220
    86.4800       214
    86.5000       202
    86.5200       248
    86.5400       206
    86.5600       220
    86.5800       212
    86.6000       218
    86.6200       230
    86.6400       242
    86.6600       250
    86.6800       234
    86.7000       284
    86.7200       268
    86.7400       254
    86.7600       260
    86.7800       262
    86.8000       262
    86.8200       278
    86.8400       306
    86.8600       266
    86.8800       274
    86.9000       300
    86.9200       308
    86.9400       308
    86.9600       312
    86.9800       362
    87.0000       346
    87.0200       318
    87.0400       356
    87.0600       322
    87.0800       346
    87.1000       348
    87.1200       360
    87.1400       310
    87.1600       306
    87.1800       358
    87.2000       350
    87.2200       334
    87.2400       338
    87.2600       346
    87.2800       354
    87.3000       336
    87.3200       334
    87.3400       336
    87.3600       342
    87.3800       332
    87.4000       354
    87.4200       344
    87.4400       358
    87.4600       310
    87.4800       344
    87.5000       322
    87.5200       346
    87.5400       368
    87.5600       340
    87.5800       328
    87.6000       338
    87.6200       328
    87.6400       314
    87.6600       352
    87.6800       306
    87.7000       358
    87.7200       324
    87.7400       306
    87.7600       324
    87.7800       342
    87.8000       336
    87.8200       390
    87.8400       376
    87.8600       362
    87.8800       384
    87.9000       362
    87.9200       376
    87.9400       370
    87.9600       390
    87.9800       330
    88.0000       360
    88.0200       368
    88.0400       366
    88.0600       370
    88.0800       346
    88.1000       358
    88.1200       362
    88.1400       370
    88.1600       374
    88.1800       354
    88.2000       328
    88.2200       296
    88.2400       370
    88.2600       314
    88.2800       334
    88.3000       318
    88.3200       336
    88.3400       322
    88.3600       310
    88.3800       324
    88.4000       330
    88.4200       306
    88.4400       312
    88.4600       310
    88.4800       296
    88.5000       300
    88.5200       308
    88.5400       262
    88.5600       288
    88.5800       318
    88.6000       306
    88.6200       304
    88.6400       286
    88.6600       292
    88.6800       308
    88.7000       306
    88.7200       292
    88.7400       302
    88.7600       300
    88.7800       274
    88.8000       286
    88.8200       260
    88.8400       252
    88.8600       290
    88.8800       292
    88.9000       314
    88.9200       282
    88.9400       268
    88.9600       288
    88.9800       284
    89.0000       234
    89.0200       274
    89.0400       266
    89.0600       234
    89.0800       258
    89.1000       270
    89.1200       244
    89.1400       268
    89.1600       226
    89.1800       236
    89.2000       272
    89.2200       244
    89.2400       240
    89.2600       236
    89.2800       236
    89.3000       212
    89.3200       236
    89.3400       264
    89.3600       258
    89.3800       250
    89.4000       240
    89.4200       256
    89.4400       260
    89.4600       258
    89.4800       262
    89.5000       244
    89.5200       270
    89.5400       290
    89.5600       248
    89.5800       284
    89.6000       280
    89.6200       274
    89.6400       278
    89.6600       268
    89.6800       282
    89.7000       266
    89.7200       256
    89.7400       256
    89.7600       280
    89.7800       270
    89.8000       294
    89.8200       270
    89.8400       296
    89.8600       298
    89.8800       284
    89.9000       288
    89.9200       264
    89.9400       292
    89.9600       284
    89.9800       290
    90.0000       306
