    10.0000       364
    10.0200       386
    10.0400       380
    10.0600       358
    10.0800       370
    10.1000       342
    10.1200       340
    10.1400       336
    10.1600       356
    10.1800       348
    10.2000       368
    10.2200       344
    10.2400       352
    10.2600       340
    10.2800       352
    10.3000       344
    10.3200       340
    10.3400       342
    10.3600       376
    10.3800       346
    10.4000       348
    10.4200       328
    10.4400       350
    10.4600       336
    10.4800       338
    10.5000       388
    10.5200       300
    10.5400       352
    10.5600       356
    10.5800       374
    10.6000       348
    10.6200       334
    10.6400       314
    10.6600       334
    10.6800       342
    10.7000       332
    10.7200       368
    10.7400       326
    10.7600       344
    10.7800       336
    10.8000       340
    10.8200       334
    10.8400       366
    10.8600       312
    10.8800       310
    10.9000       362
    10.9200       330
    10.9400       330
    10.9600       364
    10.9800       320
    11.0000       326
    11.0200       322
    11.0400       318
    11.0600       316
    11.0800       354
    11.1000       318
    11.1200       344
    11.1400       328
    11.1600       350
    11.1800       332
    11.2000       306
    11.2200       324
    11.2400       348
    11.2600       336
    11.2800       312
    11.3000       318
    11.3200       338
    11.3400       334
    11.3600       344
    11.3800       330
    11.4000       332
    11.4200       334
    11.4400       336
    11.4600       332
    11.4800       318
    11.5000       368
    11.5200       322
    11.5400       296
    11.5600       322
    11.5800       336
    11.6000       336
    11.6200       304
    11.6400       306
    11.6600       336
    11.6800       318
    11.7000       348
    11.7200       308
    11.7400       348
    11.7600       324
    11.7800       342
    11.8000       382
    11.8200       338
    11.8400       360
    11.8600       374
    11.8800       376
    11.9000       376
    11.9200       384
    11.9400       438
    11.9600       388
    11.9800       386
    12.0000       428
    12.0200       426
    12.0400       458
    12.0600       466
    12.0800       490
    12.1000       572
    12.1200       590
    12.1400       638
    12.1600       662
    12.1800       696
    12.2000       724
    12.2200       704
    12.2400       642
    12.2600       600
    12.2800       490
    12.3000       430
    12.3200       376
    12.3400       358
    12.3600       332
    12.3800       356
    12.4000       364
    12.4200       344
    12.4400       316
    12.4600       302
    12.4800       308
    12.5000       308
    12.5200       282
    12.5400       314
    12.5600       312
    12.5800       324
    12.6000       300
    12.6200       326
    12.6400       286
    12.6600       290
    12.6800       276
    12.7000       316
    12.7200       282
    12.7400       312
    12.7600       286
    12.7800       292
    12.8000       288
    12.8200       288
    12.8400       300
    12.8600       274
    12.8800       284
    12.9000       322
    12.9200       274
    12.9400       292
    12.9600       304
    12.9800       292
    13.0000       290
    13.0200       310
    13.0400       272
    13.0600       298
    13.0800       296
    13.1000       296
    13.1200       258
    13.1400       320
    13.1600       242
    13.1800       284
    13.2000       274
    13.2200       262
    13.2400       258
    13.2600       274
    13.2800       246
    13.3000       268
    13.3200       294
    13.3400       306
    13.3600       256
    13.3800       262
    13.4000       250
    13.4200       244
    13.4400       254
    13.4600       280
    13.4800       246
    13.5000       272
    13.5200       260
    13.5400       262
    13.5600       276
    13.5800       226
    13.6000       306
    13.6200       300
    13.6400       266
    13.6600       262
    13.6800       264
    13.7000       272
    13.7200       308
    13.7400       264
    13.7600       272
    13.7800       272
    13.8000       284
    13.8200       244
    13.8400       242
    13.8600       262
    13.8800       278
    13.9000       248
    13.9200       256
    13.9400       272
    13.9600       282
    13.9800       268
    14.0000       276
    14.0200       258
    14.0400       246
    14.0600       268
    14.0800       244
    14.1000       228
    14.1200       260
    14.1400       274
    14.1600       260
    14.1800       238
    14.2000       238
    14.2200       260
    14.2400       258
    14.2600       274
    14.2800       278
    14.3000       242
    14.3200       260
    14.3400       254
    14.3600       242
    14.3800       280
    14.4000       288
    14.4200       234
    14.4400       278
    14.4600       258
    14.4800       280
    14.5000       242
    14.5200       270
    14.5400       288
    14.5600       236
    14.5800       288
    14.6000       268
    14.6200       304
    14.6400       308
    14.6600       298
    14.6800       290
    14.7000       302
    14.7200       348
    14.7400       370
    14.7600       358
    14.7800       368
    14.8000       366
    14.8200       402
    14.8400       398
    14.8600       430
    14.8800       480
    14.9000       568
    14.9200       572
    14.9400       584
    14.9600       658
    14.9800       700
    15.0000       760
    15.0200       838
    15.0400       952
    15.0600      1074
    15.0800      1116
    15.1000      1286
    15.1200      1474
    15.1400      1656
    15.1600      1942
    15.1800      2160
    15.2000      2226
    15.2200      2224
    15.2400      2096
    15.2600      1736
    15.2800      1432
    15.3000      1038
    15.3200       752
    15.3400       584
    15.3600       516
    15.3800       466
    15.4000       412
    15.4200       412
    15.4400       384
    15.4600       344
    15.4800       344
    15.5000       282
    15.5200       266
    15.5400       286
    15.5600       310
    15.5800       302
    15.6000       292
    15.6200       272
    15.6400       280
    15.6600       254
    15.6800       292
    15.7000       258
    15.7200       284
    15.7400       224
    15.7600       264
    15.7800       298
    15.8000       258
    15.8200       274
    15.8400       260
    15.8600       272
    15.8800       276
    15.9000       264
    15.9200       264
    15.9400       310
    15.9600       270
    15.9800       308
    16.0000       280
    16.0200       270
    16.0400       296
    16.0600       316
    16.0800       302
    16.1000       298
    16.1200       326
    16.1400       340
    16.1600       320
    16.1800       354
    16.2000       394
    16.2200       364
    16.2400       368
    16.2600       424
    16.2800       448
    16.3000       422
    16.3200       386
    16.3400       386
    16.3600       442
    16.3800       370
    16.4000       390
    16.4200       378
    16.4400       340
    16.4600       324
    16.4800       290
    16.5000       324
    16.5200       360
    16.5400       348
    16.5600       394
    16.5800       352
    16.6000       404
    16.6200       398
    16.6400       472
    16.6600       464
    16.6800       484
    16.7000       502
    16.7200       542
    16.7400       632
    16.7600       664
    16.7800       718
    16.8000       788
    16.8200       874
    16.8400       958
    16.8600      1104
    16.8800      1270
    16.9000      1426
    16.9200      1620
    16.9400      1978
    16.9600      2272
    16.9800      2674
    17.0000      3066
    17.0200      3430
    17.0400      3764
    17.0600      3704
    17.0800      3214
    17.1000      2720
    17.1200      2168
    17.1400      1616
    17.1600      1312
    17.1800      1100
    17.2000      1004
    17.2200       946
    17.2400       862
    17.2600       840
    17.2800       804
    17.3000       730
    17.3200       694
    17.3400       660
    17.3600       598
    17.3800       538
    17.4000       462
    17.4200       434
    17.4400       416
    17.4600       434
    17.4800       416
    17.5000       378
    17.5200       398
    17.5400       382
    17.5600       386
    17.5800       426
    17.6000       436
    17.6200       502
    17.6400       488
    17.6600       484
    17.6800       542
    17.7000       658
    17.7200       676
    17.7400       712
    17.7600       804
    17.7800       944
    17.8000       896
    17.8200       974
    17.8400      1112
    17.8600       966
    17.8800      1032
    17.9000       874
    17.9200       712
    17.9400       608
    17.9600       470
    17.9800       430
    18.0000       350
    18.0200       358
    18.0400       278
    18.0600       262
    18.0800       274
    18.1000       280
    18.1200       248
    18.1400       224
    18.1600       240
    18.1800       254
    18.2000       264
    18.2200       216
    18.2400       238
    18.2600       232
    18.2800       214
    18.3000       214
    18.3200       196
    18.3400       218
    18.3600       224
    18.3800       210
    18.4000       224
    18.4200       230
    18.4400       230
    18.4600       220
    18.4800       226
    18.5000       218
    18.5200       230
    18.5400       230
    18.5600       212
    18.5800       222
    18.6000       222
    18.6200       232
    18.6400       218
    18.6600       206
    18.6800       186
    18.7000       224
    18.7200       220
    18.7400       234
    18.7600       216
    18.7800       220
    18.8000       226
    18.8200       248
    18.8400       206
    18.8600       230
    18.8800       232
    18.9000       236
    18.9200       250
    18.9400       230
    18.9600       236
    18.9800       236
    19.0000       224
    19.0200       234
    19.0400       256
    19.0600       242
    19.0800       274
    19.1000       256
    19.1200       292
    19.1400       324
    19.1600       328
    19.1800       354
    19.2000       330
    19.2200       392
    19.2400       410
    19.2600       448
    19.2800       472
    19.3000       552
    19.3200       622
    19.3400       682
    19.3600       754
    19.3800       790
    19.4000       972
    19.4200      1102
    19.4400      1254
    19.4600      1490
    19.4800      1742
    19.5000      1990
    19.5200      2244
    19.5400      2470
    19.5600      2614
    19.5800      2414
    19.6000      2108
    19.6200      1690
    19.6400      1374
    19.6600      1164
    19.6800       900
    19.7000       720
    19.7200       758
    19.7400       714
    19.7600       662
    19.7800       688
    19.8000       724
    19.8200       790
    19.8400       812
    19.8600      1012
    19.8800      1112
    19.9000      1318
    19.9200      1494
    19.9400      1628
    19.9600      1890
    19.9800      1910
    20.0000      1950
    20.0200      1872
    20.0400      1696
    20.0600      1454
    20.0800      1168
    20.1000       870
    20.1200       730
    20.1400       558
    20.1600       418
    20.1800       396
    20.2000       346
    20.2200       344
    20.2400       322
    20.2600       298
    20.2800       294
    20.3000       298
    20.3200       280
    20.3400       298
    20.3600       260
    20.3800       256
    20.4000       224
    20.4200       260
    20.4400       236
    20.4600       242
    20.4800       240
    20.5000       266
    20.5200       238
    20.5400       256
    20.5600       198
    20.5800       206
    20.6000       250
    20.6200       252
    20.6400       240
    20.6600       214
    20.6800       242
    20.7000       234
    20.7200       262
    20.7400       262
    20.7600       270
    20.7800       254
    20.8000       284
    20.8200       286
    20.8400       322
    20.8600       348
    20.8800       352
    20.9000       430
    20.9200       408
    20.9400       484
    20.9600       506
    20.9800       510
    21.0000       586
    21.0200       648
    21.0400       764
    21.0600       866
    21.0800       950
    21.1000      1138
    21.1200      1308
    21.1400      1494
    21.1600      1712
    21.1800      1816
    21.2000      2036
    21.2200      2070
    21.2400      1976
    21.2600      1742
    21.2800      1600
    21.3000      1382
    21.3200      1084
    21.3400       884
    21.3600       776
    21.3800       580
    21.4000       494
    21.4200       410
    21.4400       386
    21.4600       328
    21.4800       292
    21.5000       334
    21.5200       286
    21.5400       250
    21.5600       258
    21.5800       244
    21.6000       250
    21.6200       252
    21.6400       240
    21.6600       222
    21.6800       216
    21.7000       230
    21.7200       204
    21.7400       224
    21.7600       214
    21.7800       194
    21.8000       238
    21.8200       218
    21.8400       216
    21.8600       194
    21.8800       226
    21.9000       214
    21.9200       204
    21.9400       212
    21.9600       214
    21.9800       212
    22.0000       228
    22.0200       216
    22.0400       212
    22.0600       218
    22.0800       218
    22.1000       202
    22.1200       204
    22.1400       196
    22.1600       194
    22.1800       236
    22.2000       194
    22.2200       228
    22.2400       202
    22.2600       224
    22.2800       238
    22.3000       228
    22.3200       230
    22.3400       236
    22.3600       222
    22.3800       250
    22.4000       250
    22.4200       276
    22.4400       296
    22.4600       320
    22.4800       322
    22.5000       346
    22.5200       366
    22.5400       396
    22.5600       450
    22.5800       468
    22.6000       558
    22.6200       600
    22.6400       712
    22.6600       752
    22.6800       908
    22.7000      1034
    22.7200      1228
    22.7400      1438
    22.7600      1730
    22.7800      2086
    22.8000      2418
    22.8200      2866
    22.8400      3222
    22.8600      3384
    22.8800      3496
    22.9000      3086
    22.9200      2812
    22.9400      2354
    22.9600      1840
    22.9800      1440
    23.0000      1114
    23.0200       882
    23.0400       632
    23.0600       554
    23.0800       532
    23.1000       506
    23.1200       420
    23.1400       390
    23.1600       384
    23.1800       322
    23.2000       304
    23.2200       324
    23.2400       274
    23.2600       310
    23.2800       280
    23.3000       246
    23.3200       268
    23.3400       246
    23.3600       246
    23.3800       216
    23.4000       224
    23.4200       226
    23.4400       234
    23.4600       234
    23.4800       202
    23.5000       238
    23.5200       208
    23.5400       218
    23.5600       200
    23.5800       206
    23.6000       196
    23.6200       190
    23.6400       220
    23.6600       206
    23.6800       206
    23.7000       220
    23.7200       212
    23.7400       212
    23.7600       218
    23.7800       256
    23.8000       188
    23.8200       194
    23.8400       192
    23.8600       238
    23.8800       188
    23.9000       232
    23.9200       218
    23.9400       242
    23.9600       228
    23.9800       208
    24.0000       236
    24.0200       240
    24.0400       212
    24.0600       250
    24.0800       236
    24.1000       242
    24.1200       256
    24.1400       242
    24.1600       266
    24.1800       276
    24.2000       308
    24.2200       280
    24.2400       320
    24.2600       330
    24.2800       346
    24.3000       408
    24.3200       424
    24.3400       416
    24.3600       466
    24.3800       532
    24.4000       644
    24.4200       702
    24.4400       794
    24.4600       912
    24.4800      1022
    24.5000      1112
    24.5200      1210
    24.5400      1232
    24.5600      1356
    24.5800      1244
    24.6000      1232
    24.6200      1066
    24.6400      1064
    24.6600       896
    24.6800       938
    24.7000       860
    24.7200       814
    24.7400       806
    24.7600       814
    24.7800       792
    24.8000       818
    24.8200       730
    24.8400       646
    24.8600       586
    24.8800       550
    24.9000       462
    24.9200       454
    24.9400       432
    24.9600       420
    24.9800       402
    25.0000       422
    25.0200       414
    25.0400       466
    25.0600       490
    25.0800       482
    25.1000       520
    25.1200       558
    25.1400       582
    25.1600       660
    25.1800       764
    25.2000       828
    25.2200       944
    25.2400       960
    25.2600      1172
    25.2800      1354
    25.3000      1482
    25.3200      1604
    25.3400      1670
    25.3600      1752
    25.3800      1646
    25.4000      1548
    25.4200      1300
    25.4400      1114
    25.4600       986
    25.4800       860
    25.5000       778
    25.5200       818
    25.5400       918
    25.5600       890
    25.5800       930
    25.6000       964
    25.6200       968
    25.6400       916
    25.6600       860
    25.6800       768
    25.7000       674
    25.7200       566
    25.7400       476
    25.7600       440
    25.7800       392
    25.8000       368
    25.8200       386
    25.8400       370
    25.8600       370
    25.8800       362
    25.9000       328
    25.9200       334
    25.9400       300
    25.9600       300
    25.9800       328
    26.0000       274
    26.0200       312
    26.0400       266
    26.0600       254
    26.0800       280
    26.1000       282
    26.1200       248
    26.1400       242
    26.1600       266
    26.1800       250
    26.2000       252
    26.2200       254
    26.2400       234
    26.2600       222
    26.2800       254
    26.3000       238
    26.3200       248
    26.3400       248
    26.3600       242
    26.3800       224
    26.4000       214
    26.4200       240
    26.4400       228
    26.4600       278
    26.4800       232
    26.5000       248
    26.5200       228
    26.5400       240
    26.5600       258
    26.5800       254
    26.6000       252
    26.6200       208
    26.6400       214
    26.6600       242
    26.6800       254
    26.7000       220
    26.7200       222
    26.7400       224
    26.7600       232
    26.7800       226
    26.8000       224
    26.8200       254
    26.8400       248
    26.8600       232
    26.8800       238
    26.9000       214
    26.9200       192
    26.9400       258
    26.9600       210
    26.9800       246
    27.0000       206
    27.0200       252
    27.0400       220
    27.0600       248
    27.0800       254
    27.1000       238
    27.1200       256
    27.1400       268
    27.1600       292
    27.1800       312
    27.2000       324
    27.2200       340
    27.2400       332
    27.2600       406
    27.2800       474
    27.3000       490
    27.3200       612
    27.3400       662
    27.3600       752
    27.3800       820
    27.4000       950
    27.4200      1116
    27.4400      1092
    27.4600      1246
    27.4800      1294
    27.5000      1250
    27.5200      1222
    27.5400      1188
    27.5600      1062
    27.5800      1016
    27.6000       920
    27.6200       802
    27.6400       632
    27.6600       628
    27.6800       526
    27.7000       490
    27.7200       430
    27.7400       402
    27.7600       348
    27.7800       310
    27.8000       296
    27.8200       334
    27.8400       300
    27.8600       274
    27.8800       252
    27.9000       264
    27.9200       262
    27.9400       266
    27.9600       260
    27.9800       262
    28.0000       272
    28.0200       254
    28.0400       256
    28.0600       284
    28.0800       242
    28.1000       220
    28.1200       228
    28.1400       242
    28.1600       256
    28.1800       252
    28.2000       226
    28.2200       238
    28.2400       240
    28.2600       248
    28.2800       270
    28.3000       288
    28.3200       240
    28.3400       290
    28.3600       284
    28.3800       330
    28.4000       326
    28.4200       324
    28.4400       310
    28.4600       320
    28.4800       304
    28.5000       324
    28.5200       358
    28.5400       284
    28.5600       342
    28.5800       384
    28.6000       400
    28.6200       402
    28.6400       446
    28.6600       494
    28.6800       518
    28.7000       526
    28.7200       548
    28.7400       530
    28.7600       482
    28.7800       466
    28.8000       430
    28.8200       422
    28.8400       338
    28.8600       314
    28.8800       316
    28.9000       324
    28.9200       280
    28.9400       298
    28.9600       260
    28.9800       242
    29.0000       274
    29.0200       302
    29.0400       276
    29.0600       262
    29.0800       312
    29.1000       294
    29.1200       300
    29.1400       260
    29.1600       300
    29.1800       272
    29.2000       308
    29.2200       292
    29.2400       270
    29.2600       304
    29.2800       338
    29.3000       320
    29.3200       398
    29.3400       410
    29.3600       396
    29.3800       404
    29.4000       454
    29.4200       502
    29.4400       528
    29.4600       540
    29.4800       624
    29.5000       622
    29.5200       720
    29.5400       808
    29.5600       934
    29.5800       964
    29.6000      1160
    29.6200      1232
    29.6400      1472
    29.6600      1612
    29.6800      1678
    29.7000      1704
    29.7200      1694
    29.7400      1552
    29.7600      1432
    29.7800      1320
    29.8000      1166
    29.8200       948
    29.8400       898
    29.8600       764
    29.8800       718
    29.9000       704
    29.9200       692
    29.9400       670
    29.9600       720
    29.9800       792
    30.0000       874
    30.0200       968
    30.0400      1056
    30.0600      1256
    30.0800      1392
    30.1000      1546
    30.1200      1702
    30.1400      1934
    30.1600      2080
    30.1800      2188
    30.2000      2178
    30.2200      2144
    30.2400      2038
    30.2600      2014
    30.2800      1908
    30.3000      1824
    30.3200      1690
    30.3400      1662
    30.3600      1606
    30.3800      1660
    30.4000      1670
    30.4200      1774
    30.4400      1980
    30.4600      2070
    30.4800      2368
    30.5000      2760
    30.5200      3154
    30.5400      3652
    30.5600      4176
    30.5800      4682
    30.6000      5556
    30.6200      6354
    30.6400      7504
    30.6600      8642
    30.6800      9230
    30.7000      9942
    30.7200     10050
    30.7400      9312
    30.7600      8334
    30.7800      7556
    30.8000      6330
    30.8200      5276
    30.8400      4398
    30.8600      3188
    30.8800      2644
    30.9000      2060
    30.9200      1752
    30.9400      1446
    30.9600      1212
    30.9800      1100
    31.0000       980
    31.0200       892
    31.0400       782
    31.0600       674
    31.0800       668
    31.1000       644
    31.1200       556
    31.1400       492
    31.1600       516
    31.1800       484
    31.2000       438
    31.2200       434
    31.2400       386
    31.2600       400
    31.2800       352
    31.3000       364
    31.3200       366
    31.3400       332
    31.3600       328
    31.3800       366
    31.4000       306
    31.4200       314
    31.4400       340
    31.4600       284
    31.4800       324
    31.5000       306
    31.5200       334
    31.5400       344
    31.5600       338
    31.5800       324
    31.6000       332
    31.6200       342
    31.6400       374
    31.6600       388
    31.6800       370
    31.7000       396
    31.7200       394
    31.7400       426
    31.7600       486
    31.7800       498
    31.8000       556
    31.8200       618
    31.8400       644
    31.8600       752
    31.8800       826
    31.9000       970
    31.9200      1142
    31.9400      1302
    31.9600      1506
    31.9800      1606
    32.0000      1718
    32.0200      1688
    32.0400      1742
    32.0600      1572
    32.0800      1472
    32.1000      1300
    32.1200      1144
    32.1400      1000
    32.1600       930
    32.1800       822
    32.2000       790
    32.2200       782
    32.2400       842
    32.2600       882
    32.2800       954
    32.3000      1022
    32.3200      1040
    32.3400      1254
    32.3600      1582
    32.3800      1662
    32.4000      1952
    32.4200      2384
    32.4400      2784
    32.4600      3336
    32.4800      4082
    32.5000      4620
    32.5200      5092
    32.5400      5538
    32.5600      6036
    32.5800      5928
    32.6000      5708
    32.6200      5374
    32.6400      5020
    32.6600      4256
    32.6800      3800
    32.7000      3230
    32.7200      2660
    32.7400      2192
    32.7600      1852
    32.7800      1550
    32.8000      1318
    32.8200      1126
    32.8400      1060
    32.8600       904
    32.8800       904
    32.9000       882
    32.9200       868
    32.9400       878
    32.9600       934
    32.9800       966
    33.0000       976
    33.0200      1078
    33.0400      1144
    33.0600      1188
    33.0800      1304
    33.1000      1362
    33.1200      1356
    33.1400      1234
    33.1600      1192
    33.1800      1032
    33.2000       840
    33.2200       780
    33.2400       660
    33.2600       554
    33.2800       520
    33.3000       466
    33.3200       434
    33.3400       344
    33.3600       370
    33.3800       330
    33.4000       334
    33.4200       322
    33.4400       310
    33.4600       280
    33.4800       300
    33.5000       262
    33.5200       308
    33.5400       258
    33.5600       264
    33.5800       232
    33.6000       252
    33.6200       234
    33.6400       240
    33.6600       228
    33.6800       222
    33.7000       246
    33.7200       212
    33.7400       244
    33.7600       250
    33.7800       238
    33.8000       252
    33.8200       236
    33.8400       226
    33.8600       212
    33.8800       220
    33.9000       250
    33.9200       228
    33.9400       218
    33.9600       224
    33.9800       230
    34.0000       212
    34.0200       232
    34.0400       262
    34.0600       260
    34.0800       274
    34.1000       244
    34.1200       290
    34.1400       232
    34.1600       274
    34.1800       246
    34.2000       272
    34.2200       288
    34.2400       268
    34.2600       284
    34.2800       354
    34.3000       378
    34.3200       370
    34.3400       476
    34.3600       494
    34.3800       532
    34.4000       608
    34.4200       730
    34.4400       780
    34.4600       844
    34.4800       900
    34.5000       892
    34.5200       918
    34.5400       790
    34.5600       724
    34.5800       718
    34.6000       598
    34.6200       520
    34.6400       508
    34.6600       442
    34.6800       388
    34.7000       430
    34.7200       352
    34.7400       346
    34.7600       352
    34.7800       362
    34.8000       356
    34.8200       370
    34.8400       362
    34.8600       332
    34.8800       370
    34.9000       314
    34.9200       318
    34.9400       334
    34.9600       282
    34.9800       308
    35.0000       290
    35.0200       304
    35.0400       276
    35.0600       268
    35.0800       314
    35.1000       262
    35.1200       276
    35.1400       248
    35.1600       268
    35.1800       256
    35.2000       250
    35.2200       232
    35.2400       248
    35.2600       242
    35.2800       232
    35.3000       254
    35.3200       264
    35.3400       226
    35.3600       272
    35.3800       228
    35.4000       242
    35.4200       262
    35.4400       230
    35.4600       260
    35.4800       240
    35.5000       238
    35.5200       252
    35.5400       246
    35.5600       232
    35.5800       228
    35.6000       292
    35.6200       252
    35.6400       286
    35.6600       284
    35.6800       260
    35.7000       250
    35.7200       294
    35.7400       274
    35.7600       340
    35.7800       286
    35.8000       308
    35.8200       336
    35.8400       354
    35.8600       354
    35.8800       354
    35.9000       396
    35.9200       404
    35.9400       480
    35.9600       472
    35.9800       500
    36.0000       608
    36.0200       606
    36.0400       724
    36.0600       834
    36.0800       918
    36.1000       998
    36.1200      1164
    36.1400      1200
    36.1600      1192
    36.1800      1194
    36.2000      1120
    36.2200      1056
    36.2400       998
    36.2600       928
    36.2800       778
    36.3000       700
    36.3200       618
    36.3400       546
    36.3600       488
    36.3800       434
    36.4000       436
    36.4200       362
    36.4400       374
    36.4600       342
    36.4800       364
    36.5000       354
    36.5200       364
    36.5400       372
    36.5600       384
    36.5800       384
    36.6000       422
    36.6200       420
    36.6400       420
    36.6600       480
    36.6800       488
    36.7000       558
    36.7200       586
    36.7400       666
    36.7600       742
    36.7800       832
    36.8000       974
    36.8200      1182
    36.8400      1308
    36.8600      1402
    36.8800      1520
    36.9000      1604
    36.9200      1558
    36.9400      1520
    36.9600      1562
    36.9800      1376
    37.0000      1262
    37.0200      1126
    37.0400      1098
    37.0600       998
    37.0800       930
    37.1000       874
    37.1200       872
    37.1400       814
    37.1600       814
    37.1800       830
    37.2000       842
    37.2200       858
    37.2400       832
    37.2600       746
    37.2800       652
    37.3000       648
    37.3200       644
    37.3400       592
    37.3600       594
    37.3800       516
    37.4000       490
    37.4200       510
    37.4400       432
    37.4600       418
    37.4800       450
    37.5000       386
    37.5200       410
    37.5400       406
    37.5600       432
    37.5800       390
    37.6000       402
    37.6200       388
    37.6400       430
    37.6600       416
    37.6800       426
    37.7000       434
    37.7200       418
    37.7400       460
    37.7600       504
    37.7800       474
    37.8000       532
    37.8200       568
    37.8400       634
    37.8600       684
    37.8800       766
    37.9000       854
    37.9200       976
    37.9400      1116
    37.9600      1264
    37.9800      1360
    38.0000      1488
    38.0200      1546
    38.0400      1608
    38.0600      1602
    38.0800      1554
    38.1000      1470
    38.1200      1384
    38.1400      1350
    38.1600      1380
    38.1800      1204
    38.2000      1110
    38.2200      1138
    38.2400      1166
    38.2600      1166
    38.2800      1194
    38.3000      1386
    38.3200      1494
    38.3400      1744
    38.3600      1838
    38.3800      2198
    38.4000      2412
    38.4200      2744
    38.4400      3314
    38.4600      3516
    38.4800      3850
    38.5000      4314
    38.5200      4648
    38.5400      4752
    38.5600      5334
    38.5800      5468
    38.6000      5996
    38.6200      6360
    38.6400      6744
    38.6600      6852
    38.6800      6928
    38.7000      6920
    38.7200      6546
    38.7400      6104
    38.7600      5644
    38.7800      5398
    38.8000      4606
    38.8200      4110
    38.8400      3658
    38.8600      3030
    38.8800      2614
    38.9000      2316
    38.9200      1980
    38.9400      1782
    38.9600      1580
    38.9800      1428
    39.0000      1324
    39.0200      1252
    39.0400      1280
    39.0600      1242
    39.0800      1272
    39.1000      1194
    39.1200      1150
    39.1400      1154
    39.1600      1170
    39.1800      1146
    39.2000      1202
    39.2200      1146
    39.2400      1104
    39.2600      1172
    39.2800      1162
    39.3000      1110
    39.3200      1146
    39.3400      1162
    39.3600      1220
    39.3800      1334
    39.4000      1324
    39.4200      1338
    39.4400      1364
    39.4600      1402
    39.4800      1318
    39.5000      1254
    39.5200      1312
    39.5400      1264
    39.5600      1298
    39.5800      1392
    39.6000      1380
    39.6200      1474
    39.6400      1674
    39.6600      1804
    39.6800      1834
    39.7000      1966
    39.7200      2024
    39.7400      1878
    39.7600      1780
    39.7800      1630
    39.8000      1660
    39.8200      1430
    39.8400      1302
    39.8600      1124
    39.8800       964
    39.9000       948
    39.9200       806
    39.9400       700
    39.9600       636
    39.9800       650
    40.0000       642
    40.0200       660
    40.0400       626
    40.0600       708
    40.0800       638
    40.1000       746
    40.1200       794
    40.1400       824
    40.1600       854
    40.1800       876
    40.2000       900
    40.2200       990
    40.2400      1020
    40.2600       970
    40.2800       996
    40.3000       988
    40.3200       940
    40.3400       910
    40.3600      1038
    40.3800       972
    40.4000      1052
    40.4200      1108
    40.4400      1100
    40.4600      1188
    40.4800      1322
    40.5000      1452
    40.5200      1610
    40.5400      1728
    40.5600      1906
    40.5800      2058
    40.6000      2058
    40.6200      2016
    40.6400      1996
    40.6600      2032
    40.6800      1816
    40.7000      1694
    40.7200      1514
    40.7400      1406
    40.7600      1252
    40.7800      1086
    40.8000      1018
    40.8200       912
    40.8400       786
    40.8600       754
    40.8800       680
    40.9000       666
    40.9200       606
    40.9400       658
    40.9600       610
    40.9800       626
    41.0000       586
    41.0200       644
    41.0400       688
    41.0600       714
    41.0800       764
    41.1000       820
    41.1200       922
    41.1400      1006
    41.1600      1032
    41.1800      1198
    41.2000      1278
    41.2200      1420
    41.2400      1518
    41.2600      1638
    41.2800      1672
    41.3000      1704
    41.3200      1790
    41.3400      1720
    41.3600      1826
    41.3800      1904
    41.4000      1772
    41.4200      1806
    41.4400      1868
    41.4600      1972
    41.4800      2048
    41.5000      2074
    41.5200      2176
    41.5400      2234
    41.5600      2356
    41.5800      2254
    41.6000      2148
    41.6200      1990
    41.6400      1952
    41.6600      1822
    41.6800      1716
    41.7000      1570
    41.7200      1496
    41.7400      1328
    41.7600      1366
    41.7800      1288
    41.8000      1210
    41.8200      1330
    41.8400      1382
    41.8600      1476
    41.8800      1514
    41.9000      1692
    41.9200      1590
    41.9400      1544
    41.9600      1466
    41.9800      1350
    42.0000      1348
    42.0200      1212
    42.0400      1090
    42.0600      1012
    42.0800       912
    42.1000       760
    42.1200       710
    42.1400       650
    42.1600       584
    42.1800       584
    42.2000       550
    42.2200       520
    42.2400       464
    42.2600       468
    42.2800       444
    42.3000       424
    42.3200       414
    42.3400       436
    42.3600       388
    42.3800       404
    42.4000       394
    42.4200       404
    42.4400       440
    42.4600       370
    42.4800       398
    42.5000       376
    42.5200       386
    42.5400       392
    42.5600       370
    42.5800       406
    42.6000       366
    42.6200       350
    42.6400       340
    42.6600       362
    42.6800       370
    42.7000       352
    42.7200       354
    42.7400       378
    42.7600       384
    42.7800       342
    42.8000       396
    42.8200       384
    42.8400       388
    42.8600       382
    42.8800       402
    42.9000       436
    42.9200       454
    42.9400       426
    42.9600       488
    42.9800       548
    43.0000       544
    43.0200       632
    43.0400       666
    43.0600       750
    43.0800       806
    43.1000       912
    43.1200      1058
    43.1400      1112
    43.1600      1284
    43.1800      1362
    43.2000      1458
    43.2200      1382
    43.2400      1484
    43.2600      1410
    43.2800      1376
    43.3000      1288
    43.3200      1188
    43.3400      1114
    43.3600      1048
    43.3800       874
    43.4000       836
    43.4200       714
    43.4400       670
    43.4600       606
    43.4800       532
    43.5000       500
    43.5200       480
    43.5400       472
    43.5600       442
    43.5800       442
    43.6000       398
    43.6200       400
    43.6400       434
    43.6600       436
    43.6800       472
    43.7000       432
    43.7200       508
    43.7400       506
    43.7600       514
    43.7800       606
    43.8000       530
    43.8200       602
    43.8400       614
    43.8600       638
    43.8800       618
    43.9000       572
    43.9200       532
    43.9400       574
    43.9600       518
    43.9800       516
    44.0000       524
    44.0200       444
    44.0400       418
    44.0600       448
    44.0800       416
    44.1000       438
    44.1200       392
    44.1400       394
    44.1600       402
    44.1800       368
    44.2000       406
    44.2200       384
    44.2400       416
    44.2600       462
    44.2800       480
    44.3000       448
    44.3200       490
    44.3400       488
    44.3600       480
    44.3800       462
    44.4000       450
    44.4200       464
    44.4400       464
    44.4600       468
    44.4800       424
    44.5000       456
    44.5200       480
    44.5400       400
    44.5600       450
    44.5800       394
    44.6000       400
    44.6200       442
    44.6400       460
    44.6600       446
    44.6800       452
    44.7000       474
    44.7200       512
    44.7400       536
    44.7600       552
    44.7800       588
    44.8000       594
    44.8200       674
    44.8400       788
    44.8600       848
    44.8800       914
    44.9000      1002
    44.9200      1114
    44.9400      1196
    44.9600      1362
    44.9800      1528
    45.0000      1686
    45.0200      1762
    45.0400      1872
    45.0600      2028
    45.0800      2104
    45.1000      2182
    45.1200      2250
    45.1400      2364
    45.1600      2670
    45.1800      2628
    45.2000      2720
    45.2200      2730
    45.2400      2852
    45.2600      2920
    45.2800      2922
    45.3000      2772
    45.3200      2692
    45.3400      2628
    45.3600      2430
    45.3800      2412
    45.4000      2344
    45.4200      2190
    45.4400      2132
    45.4600      2040
    45.4800      2010
    45.5000      1800
    45.5200      1642
    45.5400      1476
    45.5600      1422
    45.5800      1230
    45.6000      1182
    45.6200      1122
    45.6400      1046
    45.6600       906
    45.6800       862
    45.7000       758
    45.7200       746
    45.7400       668
    45.7600       638
    45.7800       660
    45.8000       568
    45.8200       612
    45.8400       612
    45.8600       568
    45.8800       544
    45.9000       556
    45.9200       554
    45.9400       546
    45.9600       534
    45.9800       536
    46.0000       518
    46.0200       512
    46.0400       494
    46.0600       528
    46.0800       502
    46.1000       556
    46.1200       528
    46.1400       550
    46.1600       550
    46.1800       574
    46.2000       630
    46.2200       610
    46.2400       676
    46.2600       652
    46.2800       736
    46.3000       764
    46.3200       734
    46.3400       828
    46.3600       906
    46.3800       996
    46.4000      1048
    46.4200      1168
    46.4400      1236
    46.4600      1442
    46.4800      1616
    46.5000      1814
    46.5200      2098
    46.5400      2228
    46.5600      2722
    46.5800      3132
    46.6000      3626
    46.6200      4104
    46.6400      4622
    46.6600      5164
    46.6800      5650
    46.7000      6008
    46.7200      6430
    46.7400      6416
    46.7600      6270
    46.7800      5858
    46.8000      5612
    46.8200      5098
    46.8400      4784
    46.8600      4162
    46.8800      3766
    46.9000      3290
    46.9200      2918
    46.9400      2264
    46.9600      2120
    46.9800      1820
    47.0000      1516
    47.0200      1310
    47.0400      1178
    47.0600      1020
    47.0800       916
    47.1000       816
    47.1200       782
    47.1400       716
    47.1600       718
    47.1800       620
    47.2000       606
    47.2200       554
    47.2400       530
    47.2600       532
    47.2800       538
    47.3000       452
    47.3200       506
    47.3400       474
    47.3600       464
    47.3800       440
    47.4000       440
    47.4200       406
    47.4400       414
    47.4600       390
    47.4800       388
    47.5000       432
    47.5200       402
    47.5400       406
    47.5600       406
    47.5800       396
    47.6000       460
    47.6200       400
    47.6400       448
    47.6600       430
    47.6800       458
    47.7000       452
    47.7200       446
    47.7400       492
    47.7600       490
    47.7800       550
    47.8000       534
    47.8200       598
    47.8400       646
    47.8600       662
    47.8800       666
    47.9000       682
    47.9200       614
    47.9400       630
    47.9600       640
    47.9800       602
    48.0000       582
    48.0200       510
    48.0400       574
    48.0600       538
    48.0800       588
    48.1000       584
    48.1200       618
    48.1400       630
    48.1600       642
    48.1800       650
    48.2000       728
    48.2200       716
    48.2400       794
    48.2600       798
    48.2800       756
    48.3000       778
    48.3200       772
    48.3400       716
    48.3600       742
    48.3800       830
    48.4000       798
    48.4200       804
    48.4400       884
    48.4600       872
    48.4800       932
    48.5000       962
    48.5200      1030
    48.5400      1040
    48.5600      1088
    48.5800      1114
    48.6000      1162
    48.6200      1116
    48.6400      1112
    48.6600      1086
    48.6800      1082
    48.7000      1066
    48.7200      1080
    48.7400      1026
    48.7600       984
    48.7800       932
    48.8000       830
    48.8200       804
    48.8400       658
    48.8600       682
    48.8800       662
    48.9000       662
    48.9200       576
    48.9400       508
    48.9600       520
    48.9800       460
    49.0000       426
    49.0200       398
    49.0400       404
    49.0600       418
    49.0800       376
    49.1000       324
    49.1200       380
    49.1400       360
    49.1600       350
    49.1800       348
    49.2000       328
    49.2200       348
    49.2400       300
    49.2600       334
    49.2800       290
    49.3000       314
    49.3200       300
    49.3400       310
    49.3600       316
    49.3800       310
    49.4000       312
    49.4200       288
    49.4400       290
    49.4600       318
    49.4800       314
    49.5000       316
    49.5200       318
    49.5400       326
    49.5600       316
    49.5800       306
    49.6000       312
    49.6200       296
    49.6400       310
    49.6600       344
    49.6800       330
    49.7000       342
    49.7200       316
    49.7400       354
    49.7600       346
    49.7800       346
    49.8000       356
    49.8200       326
    49.8400       354
    49.8600       374
    49.8800       378
    49.9000       352
    49.9200       396
    49.9400       382
    49.9600       438
    49.9800       470
    50.0000       442
    50.0200       444
    50.0400       552
    50.0600       524
    50.0800       554
    50.1000       618
    50.1200       696
    50.1400       722
    50.1600       806
    50.1800       814
    50.2000       964
    50.2200      1058
    50.2400      1096
    50.2600      1184
    50.2800      1278
    50.3000      1284
    50.3200      1356
    50.3400      1350
    50.3600      1406
    50.3800      1354
    50.4000      1364
    50.4200      1334
    50.4400      1358
    50.4600      1188
    50.4800      1210
    50.5000      1262
    50.5200      1216
    50.5400      1172
    50.5600      1198
    50.5800      1190
    50.6000      1256
    50.6200      1234
    50.6400      1284
    50.6600      1486
    50.6800      1526
    50.7000      1752
    50.7200      1808
    50.7400      2046
    50.7600      2272
    50.7800      2434
    50.8000      2674
    50.8200      2814
    50.8400      2904
    50.8600      2744
    50.8800      2748
    50.9000      2622
    50.9200      2466
    50.9400      2418
    50.9600      2246
    50.9800      2168
    51.0000      1920
    51.0200      1846
    51.0400      1564
    51.0600      1386
    51.0800      1388
    51.1000      1112
    51.1200      1046
    51.1400       962
    51.1600       928
    51.1800       800
    51.2000       772
    51.2200       748
    51.2400       734
    51.2600       748
    51.2800       690
    51.3000       770
    51.3200       682
    51.3400       740
    51.3600       746
    51.3800       734
    51.4000       762
    51.4200       762
    51.4400       758
    51.4600       794
    51.4800       760
    51.5000       806
    51.5200       756
    51.5400       800
    51.5600       724
    51.5800       752
    51.6000       712
    51.6200       782
    51.6400       750
    51.6600       820
    51.6800       812
    51.7000       910
    51.7200       868
    51.7400       966
    51.7600       950
    51.7800      1030
    51.8000      1124
    51.8200      1272
    51.8400      1262
    51.8600      1354
    51.8800      1508
    51.9000      1606
    51.9200      1674
    51.9400      1850
    51.9600      1944
    51.9800      2168
    52.0000      2262
    52.0200      2378
    52.0400      2548
    52.0600      2632
    52.0800      2540
    52.1000      2516
    52.1200      2362
    52.1400      2176
    52.1600      2016
    52.1800      1934
    52.2000      1752
    52.2200      1668
    52.2400      1576
    52.2600      1394
    52.2800      1234
    52.3000      1078
    52.3200       966
    52.3400       942
    52.3600       852
    52.3800       784
    52.4000       870
    52.4200       846
    52.4400       854
    52.4600       814
    52.4800       892
    52.5000       920
    52.5200      1008
    52.5400      1064
    52.5600      1078
    52.5800      1182
    52.6000      1218
    52.6200      1282
    52.6400      1334
    52.6600      1308
    52.6800      1284
    52.7000      1382
    52.7200      1374
    52.7400      1364
    52.7600      1346
    52.7800      1292
    52.8000      1206
    52.8200      1204
    52.8400      1140
    52.8600      1152
    52.8800       988
    52.9000       946
    52.9200       864
    52.9400       848
    52.9600       818
    52.9800       776
    53.0000       752
    53.0200       750
    53.0400       706
    53.0600       740
    53.0800       750
    53.1000       738
    53.1200       788
    53.1400       832
    53.1600       902
    53.1800       992
    53.2000      1118
    53.2200      1230
    53.2400      1180
    53.2600      1256
    53.2800      1436
    53.3000      1352
    53.3200      1356
    53.3400      1328
    53.3600      1228
    53.3800      1182
    53.4000      1130
    53.4200      1132
    53.4400      1020
    53.4600       972
    53.4800       936
    53.5000       848
    53.5200       702
    53.5400       700
    53.5600       664
    53.5800       632
    53.6000       684
    53.6200       666
    53.6400       562
    53.6600       544
    53.6800       550
    53.7000       588
    53.7200       552
    53.7400       536
    53.7600       604
    53.7800       550
    53.8000       568
    53.8200       562
    53.8400       550
    53.8600       544
    53.8800       484
    53.9000       522
    53.9200       500
    53.9400       486
    53.9600       506
    53.9800       526
    54.0000       516
    54.0200       496
    54.0400       462
    54.0600       500
    54.0800       454
    54.1000       510
    54.1200       476
    54.1400       502
    54.1600       546
    54.1800       566
    54.2000       592
    54.2200       614
    54.2400       600
    54.2600       640
    54.2800       704
    54.3000       710
    54.3200       752
    54.3400       720
    54.3600       700
    54.3800       744
    54.4000       756
    54.4200       762
    54.4400       794
    54.4600       834
    54.4800       906
    54.5000       920
    54.5200       966
    54.5400       906
    54.5600      1064
    54.5800      1080
    54.6000      1000
    54.6200      1052
    54.6400       998
    54.6600      1018
    54.6800       980
    54.7000       930
    54.7200       946
    54.7400      1074
    54.7600       996
    54.7800       978
    54.8000       894
    54.8200       880
    54.8400       850
    54.8600       830
    54.8800       808
    54.9000       774
    54.9200       802
    54.9400       724
    54.9600       748
    54.9800       776
    55.0000       744
    55.0200       788
    55.0400       808
    55.0600       842
    55.0800       846
    55.1000       832
    55.1200       980
    55.1400       894
    55.1600      1016
    55.1800      1012
    55.2000      1066
    55.2200      1020
    55.2400      1012
    55.2600      1042
    55.2800       968
    55.3000       944
    55.3200      1018
    55.3400       870
    55.3600       848
    55.3800       838
    55.4000       910
    55.4200       828
    55.4400       772
    55.4600       734
    55.4800       766
    55.5000       728
    55.5200       710
    55.5400       660
    55.5600       588
    55.5800       568
    55.6000       482
    55.6200       546
    55.6400       500
    55.6600       500
    55.6800       468
    55.7000       404
    55.7200       436
    55.7400       360
    55.7600       362
    55.7800       354
    55.8000       354
    55.8200       354
    55.8400       328
    55.8600       316
    55.8800       336
    55.9000       304
    55.9200       326
    55.9400       304
    55.9600       282
    55.9800       350
    56.0000       318
    56.0200       304
    56.0400       298
    56.0600       330
    56.0800       324
    56.1000       342
    56.1200       310
    56.1400       336
    56.1600       334
    56.1800       346
    56.2000       340
    56.2200       304
    56.2400       322
    56.2600       340
    56.2800       370
    56.3000       286
    56.3200       336
    56.3400       306
    56.3600       376
    56.3800       324
    56.4000       302
    56.4200       348
    56.4400       340
    56.4600       374
    56.4800       330
    56.5000       380
    56.5200       378
    56.5400       390
    56.5600       404
    56.5800       422
    56.6000       410
    56.6200       434
    56.6400       464
    56.6600       434
    56.6800       512
    56.7000       512
    56.7200       570
    56.7400       596
    56.7600       636
    56.7800       662
    56.8000       720
    56.8200       732
    56.8400       794
    56.8600       838
    56.8800       840
    56.9000       824
    56.9200       796
    56.9400       706
    56.9600       688
    56.9800       734
    57.0000       716
    57.0200       614
    57.0400       654
    57.0600       648
    57.0800       636
    57.1000       564
    57.1200       590
    57.1400       554
    57.1600       554
    57.1800       602
    57.2000       604
    57.2200       684
    57.2400       682
    57.2600       800
    57.2800       804
    57.3000       902
    57.3200       974
    57.3400      1014
    57.3600      1150
    57.3800      1164
    57.4000      1236
    57.4200      1214
    57.4400      1160
    57.4600      1112
    57.4800      1098
    57.5000      1144
    57.5200      1106
    57.5400      1156
    57.5600      1070
    57.5800      1046
    57.6000      1052
    57.6200       988
    57.6400      1094
    57.6600      1036
    57.6800      1040
    57.7000      1088
    57.7200      1156
    57.7400      1168
    57.7600      1184
    57.7800      1264
    57.8000      1190
    57.8200      1218
    57.8400      1168
    57.8600      1026
    57.8800      1034
    57.9000       958
    57.9200       970
    57.9400       924
    57.9600       828
    57.9800       784
    58.0000       764
    58.0200       686
    58.0400       726
    58.0600       634
    58.0800       624
    58.1000       576
    58.1200       616
    58.1400       578
    58.1600       674
    58.1800       622
    58.2000       646
    58.2200       626
    58.2400       658
    58.2600       688
    58.2800       702
    58.3000       788
    58.3200       820
    58.3400       856
    58.3600       892
    58.3800       958
    58.4000      1036
    58.4200      1126
    58.4400      1182
    58.4600      1238
    58.4800      1272
    58.5000      1394
    58.5200      1462
    58.5400      1652
    58.5600      1618
    58.5800      1694
    58.6000      1740
    58.6200      1900
    58.6400      1966
    58.6600      2052
    58.6800      2214
    58.7000      2296
    58.7200      2358
    58.7400      2420
    58.7600      2422
    58.7800      2442
    58.8000      2366
    58.8200      2342
    58.8400      2290
    58.8600      2196
    58.8800      2070
    58.9000      1962
    58.9200      1878
    58.9400      1788
    58.9600      1632
    58.9800      1502
    59.0000      1400
    59.0200      1284
    59.0400      1234
    59.0600      1178
    59.0800      1146
    59.1000      1008
    59.1200      1040
    59.1400      1066
    59.1600       952
    59.1800      1026
    59.2000      1044
    59.2200      1022
    59.2400      1096
    59.2600      1218
    59.2800      1304
    59.3000      1392
    59.3200      1528
    59.3400      1652
    59.3600      1828
    59.3800      1948
    59.4000      2182
    59.4200      2230
    59.4400      2320
    59.4600      2292
    59.4800      2356
    59.5000      2310
    59.5200      2038
    59.5400      2054
    59.5600      2022
    59.5800      1924
    59.6000      1900
    59.6200      1818
    59.6400      1630
    59.6600      1584
    59.6800      1452
    59.7000      1384
    59.7200      1328
    59.7400      1256
    59.7600      1156
    59.7800      1138
    59.8000      1078
    59.8200       998
    59.8400      1046
    59.8600       968
    59.8800       882
    59.9000       838
    59.9200       866
    59.9400       814
    59.9600       752
    59.9800       736
    60.0000       696
    60.0200       686
    60.0400       696
    60.0600       622
    60.0800       536
    60.1000       586
    60.1200       528
    60.1400       510
    60.1600       516
    60.1800       464
    60.2000       492
    60.2200       434
    60.2400       440
    60.2600       438
    60.2800       428
    60.3000       452
    60.3200       426
    60.3400       430
    60.3600       402
    60.3800       368
    60.4000       376
    60.4200       368
    60.4400       358
    60.4600       352
    60.4800       364
    60.5000       338
    60.5200       376
    60.5400       362
    60.5600       372
    60.5800       334
    60.6000       342
    60.6200       362
    60.6400       368
    60.6600       366
    60.6800       352
    60.7000       318
    60.7200       360
    60.7400       350
    60.7600       360
    60.7800       366
    60.8000       382
    60.8200       380
    60.8400       368
    60.8600       396
    60.8800       382
    60.9000       462
    60.9200       446
    60.9400       428
    60.9600       420
    60.9800       478
    61.0000       466
    61.0200       488
    61.0400       536
    61.0600       538
    61.0800       574
    61.1000       564
    61.1200       592
    61.1400       612
    61.1600       676
    61.1800       680
    61.2000       694
    61.2200       694
    61.2400       716
    61.2600       746
    61.2800       686
    61.3000       700
    61.3200       814
    61.3400       826
    61.3600       850
    61.3800       864
    61.4000       900
    61.4200       950
    61.4400       970
    61.4600      1030
    61.4800      1130
    61.5000      1178
    61.5200      1246
    61.5400      1340
    61.5600      1396
    61.5800      1604
    61.6000      1580
    61.6200      1682
    61.6400      1830
    61.6600      1790
    61.6800      1804
    61.7000      1802
    61.7200      1680
    61.7400      1636
    61.7600      1578
    61.7800      1542
    61.8000      1392
    61.8200      1340
    61.8400      1296
    61.8600      1244
    61.8800      1210
    61.9000      1056
    61.9200      1072
    61.9400       932
    61.9600       928
    61.9800       778
    62.0000       718
    62.0200       700
    62.0400       716
    62.0600       662
    62.0800       690
    62.1000       600
    62.1200       630
    62.1400       610
    62.1600       590
    62.1800       562
    62.2000       552
    62.2200       552
    62.2400       554
    62.2600       474
    62.2800       508
    62.3000       472
    62.3200       504
    62.3400       492
    62.3600       506
    62.3800       454
    62.4000       460
    62.4200       424
    62.4400       418
    62.4600       444
    62.4800       394
    62.5000       394
    62.5200       388
    62.5400       404
    62.5600       372
    62.5800       408
    62.6000       412
    62.6200       428
    62.6400       402
    62.6600       388
    62.6800       406
    62.7000       350
    62.7200       418
    62.7400       406
    62.7600       400
    62.7800       356
    62.8000       392
    62.8200       404
    62.8400       378
    62.8600       366
    62.8800       364
    62.9000       348
    62.9200       312
    62.9400       340
    62.9600       312
    62.9800       312
    63.0000       326
    63.0200       308
    63.0400       286
    63.0600       312
    63.0800       282
    63.1000       292
    63.1200       284
    63.1400       244
    63.1600       312
    63.1800       252
    63.2000       288
    63.2200       246
    63.2400       310
    63.2600       244
    63.2800       264
    63.3000       272
    63.3200       272
    63.3400       300
    63.3600       284
    63.3800       268
    63.4000       256
    63.4200       294
    63.4400       290
    63.4600       272
    63.4800       306
    63.5000       312
    63.5200       326
    63.5400       326
    63.5600       348
    63.5800       384
    63.6000       388
    63.6200       378
    63.6400       400
    63.6600       406
    63.6800       396
    63.7000       474
    63.7200       504
    63.7400       554
    63.7600       540
    63.7800       586
    63.8000       636
    63.8200       744
    63.8400       808
    63.8600       842
    63.8800       860
    63.9000       982
    63.9200       954
    63.9400      1016
    63.9600      1022
    63.9800      1074
    64.0000      1016
    64.0200       956
    64.0400       898
    64.0600       892
    64.0800       848
    64.1000       772
    64.1200       788
    64.1400       738
    64.1600       688
    64.1800       704
    64.2000       606
    64.2200       528
    64.2400       500
    64.2600       438
    64.2800       452
    64.3000       380
    64.3200       402
    64.3400       372
    64.3600       384
    64.3800       350
    64.4000       340
    64.4200       350
    64.4400       318
    64.4600       288
    64.4800       322
    64.5000       298
    64.5200       302
    64.5400       284
    64.5600       304
    64.5800       248
    64.6000       250
    64.6200       250
    64.6400       248
    64.6600       262
    64.6800       278
    64.7000       248
    64.7200       222
    64.7400       268
    64.7600       254
    64.7800       250
    64.8000       258
    64.8200       254
    64.8400       236
    64.8600       242
    64.8800       258
    64.9000       258
    64.9200       264
    64.9400       274
    64.9600       252
    64.9800       238
    65.0000       262
    65.0200       290
    65.0400       282
    65.0600       328
    65.0800       292
    65.1000       360
    65.1200       338
    65.1400       324
    65.1600       388
    65.1800       374
    65.2000       348
    65.2200       366
    65.2400       426
    65.2600       392
    65.2800       402
    65.3000       434
    65.3200       466
    65.3400       478
    65.3600       446
    65.3800       448
    65.4000       452
    65.4200       450
    65.4400       468
    65.4600       422
    65.4800       418
    65.5000       388
    65.5200       436
    65.5400       440
    65.5600       420
    65.5800       424
    65.6000       418
    65.6200       414
    65.6400       408
    65.6600       378
    65.6800       396
    65.7000       414
    65.7200       362
    65.7400       368
    65.7600       328
    65.7800       364
    65.8000       360
    65.8200       322
    65.8400       318
    65.8600       310
    65.8800       324
    65.9000       324
    65.9200       284
    65.9400       312
    65.9600       290
    65.9800       252
    66.0000       250
    66.0200       276
    66.0400       254
    66.0600       286
    66.0800       238
    66.1000       274
    66.1200       270
    66.1400       236
    66.1600       242
    66.1800       250
    66.2000       258
    66.2200       266
    66.2400       250
    66.2600       256
    66.2800       260
    66.3000       262
    66.3200       248
    66.3400       260
    66.3600       248
    66.3800       250
    66.4000       314
    66.4200       316
    66.4400       312
    66.4600       312
    66.4800       340
    66.5000       362
    66.5200       356
    66.5400       348
    66.5600       374
    66.5800       360
    66.6000       368
    66.6200       412
    66.6400       358
    66.6600       374
    66.6800       430
    66.7000       416
    66.7200       436
    66.7400       454
    66.7600       500
    66.7800       450
    66.8000       534
    66.8200       590
    66.8400       630
    66.8600       672
    66.8800       634
    66.9000       692
    66.9200       748
    66.9400       784
    66.9600       798
    66.9800       762
    67.0000       746
    67.0200       816
    67.0400       804
    67.0600       728
    67.0800       710
    67.1000       732
    67.1200       694
    67.1400       630
    67.1600       662
    67.1800       594
    67.2000       612
    67.2200       624
    67.2400       544
    67.2600       488
    67.2800       472
    67.3000       452
    67.3200       448
    67.3400       406
    67.3600       406
    67.3800       366
    67.4000       376
    67.4200       364
    67.4400       340
    67.4600       310
    67.4800       348
    67.5000       316
    67.5200       300
    67.5400       326
    67.5600       314
    67.5800       306
    67.6000       294
    67.6200       272
    67.6400       300
    67.6600       290
    67.6800       264
    67.7000       306
    67.7200       302
    67.7400       272
    67.7600       310
    67.7800       318
    67.8000       288
    67.8200       314
    67.8400       336
    67.8600       326
    67.8800       364
    67.9000       392
    67.9200       396
    67.9400       420
    67.9600       446
    67.9800       512
    68.0000       540
    68.0200       546
    68.0400       608
    68.0600       636
    68.0800       716
    68.1000       782
    68.1200       794
    68.1400       842
    68.1600       900
    68.1800       868
    68.2000       910
    68.2200       872
    68.2400       934
    68.2600       952
    68.2800       910
    68.3000       956
    68.3200       892
    68.3400       886
    68.3600       894
    68.3800       830
    68.4000       796
    68.4200       776
    68.4400       734
    68.4600       652
    68.4800       648
    68.5000       648
    68.5200       624
    68.5400       598
    68.5600       630
    68.5800       536
    68.6000       488
    68.6200       478
    68.6400       478
    68.6600       490
    68.6800       482
    68.7000       422
    68.7200       450
    68.7400       414
    68.7600       414
    68.7800       418
    68.8000       426
    68.8200       386
    68.8400       408
    68.8600       374
    68.8800       370
    68.9000       354
    68.9200       378
    68.9400       364
    68.9600       334
    68.9800       306
    69.0000       344
    69.0200       318
    69.0400       356
    69.0600       340
    69.0800       352
    69.1000       358
    69.1200       370
    69.1400       360
    69.1600       402
    69.1800       408
    69.2000       430
    69.2200       460
    69.2400       420
    69.2600       472
    69.2800       416
    69.3000       468
    69.3200       504
    69.3400       488
    69.3600       498
    69.3800       518
    69.4000       528
    69.4200       582
    69.4400       552
    69.4600       578
    69.4800       538
    69.5000       502
    69.5200       522
    69.5400       490
    69.5600       486
    69.5800       456
    69.6000       496
    69.6200       428
    69.6400       416
    69.6600       470
    69.6800       404
    69.7000       432
    69.7200       440
    69.7400       426
    69.7600       406
    69.7800       382
    69.8000       416
    69.8200       430
    69.8400       440
    69.8600       424
    69.8800       444
    69.9000       454
    69.9200       472
    69.9400       530
    69.9600       498
    69.9800       484
    70.0000       462
    70.0200       458
    70.0400       466
    70.0600       378
    70.0800       444
    70.1000       430
    70.1200       440
    70.1400       424
    70.1600       398
    70.1800       406
    70.2000       372
    70.2200       390
    70.2400       354
    70.2600       334
    70.2800       304
    70.3000       286
    70.3200       282
    70.3400       262
    70.3600       264
    70.3800       284
    70.4000       296
    70.4200       240
    70.4400       290
    70.4600       254
    70.4800       230
    70.5000       260
    70.5200       222
    70.5400       252
    70.5600       256
    70.5800       286
    70.6000       246
    70.6200       270
    70.6400       256
    70.6600       250
    70.6800       256
    70.7000       248
    70.7200       276
    70.7400       238
    70.7600       240
    70.7800       246
    70.8000       226
    70.8200       238
    70.8400       236
    70.8600       260
    70.8800       218
    70.9000       234
    70.9200       204
    70.9400       214
    70.9600       246
    70.9800       198
    71.0000       240
    71.0200       202
    71.0400       210
    71.0600       252
    71.0800       214
    71.1000       222
    71.1200       228
    71.1400       216
    71.1600       266
    71.1800       224
    71.2000       242
    71.2200       280
    71.2400       260
    71.2600       242
    71.2800       280
    71.3000       292
    71.3200       290
    71.3400       326
    71.3600       316
    71.3800       348
    71.4000       374
    71.4200       434
    71.4400       396
    71.4600       452
    71.4800       496
    71.5000       500
    71.5200       492
    71.5400       466
    71.5600       522
    71.5800       532
    71.6000       526
    71.6200       516
    71.6400       518
    71.6600       540
    71.6800       544
    71.7000       516
    71.7200       496
    71.7400       508
    71.7600       454
    71.7800       468
    71.8000       474
    71.8200       424
    71.8400       422
    71.8600       454
    71.8800       398
    71.9000       418
    71.9200       390
    71.9400       368
    71.9600       406
    71.9800       418
    72.0000       390
    72.0200       410
    72.0400       370
    72.0600       392
    72.0800       398
    72.1000       376
    72.1200       376
    72.1400       402
    72.1600       390
    72.1800       420
    72.2000       394
    72.2200       426
    72.2400       414
    72.2600       472
    72.2800       452
    72.3000       452
    72.3200       508
    72.3400       482
    72.3600       498
    72.3800       534
    72.4000       484
    72.4200       488
    72.4400       548
    72.4600       502
    72.4800       554
    72.5000       560
    72.5200       582
    72.5400       616
    72.5600       658
    72.5800       646
    72.6000       622
    72.6200       686
    72.6400       688
    72.6600       710
    72.6800       708
    72.7000       706
    72.7200       734
    72.7400       702
    72.7600       672
    72.7800       688
    72.8000       614
    72.8200       646
    72.8400       594
    72.8600       660
    72.8800       572
    72.9000       626
    72.9200       612
    72.9400       574
    72.9600       600
    72.9800       542
    73.0000       526
    73.0200       542
    73.0400       522
    73.0600       486
    73.0800       470
    73.1000       444
    73.1200       454
    73.1400       468
    73.1600       402
    73.1800       416
    73.2000       400
    73.2200       384
    73.2400       384
    73.2600       322
    73.2800       352
    73.3000       350
    73.3200       336
    73.3400       320
    73.3600       326
    73.3800       312
    73.4000       310
    73.4200       268
    73.4400       272
    73.4600       264
    73.4800       242
    73.5000       262
    73.5200       276
    73.5400       268
    73.5600       276
    73.5800       232
    73.6000       240
    73.6200       256
    73.6400       262
    73.6600       272
    73.6800       232
    73.7000       252
    73.7200       222
    73.7400       246
    73.7600       230
    73.7800       234
    73.8000       238
    73.8200       246
    73.8400       266
    73.8600       242
    73.8800       236
    73.9000       254
    73.9200       244
    73.9400       258
    73.9600       258
    73.9800       260
    74.0000       274
    74.0200       280
    74.0400       276
    74.0600       262
    74.0800       302
    74.1000       312
    74.1200       312
    74.1400       270
    74.1600       270
    74.1800       280
    74.2000       278
    74.2200       258
    74.2400       254
    74.2600       304
    74.2800       258
    74.3000       268
    74.3200       262
    74.3400       266
    74.3600       262
    74.3800       242
    74.4000       252
    74.4200       254
    74.4400       218
    74.4600       220
    74.4800       222
    74.5000       222
    74.5200       228
    74.5400       226
    74.5600       194
    74.5800       204
    74.6000       210
    74.6200       170
    74.6400       220
    74.6600       176
    74.6800       192
    74.7000       218
    74.7200       188
    74.7400       202
    74.7600       208
    74.7800       184
    74.8000       186
    74.8200       188
    74.8400       182
    74.8600       200
    74.8800       204
    74.9000       194
    74.9200       214
    74.9400       204
    74.9600       198
    74.9800       224
    75.0000       218
    75.0200       228
    75.0400       206
    75.0600       206
    75.0800       206
    75.1000       262
    75.1200       234
    75.1400       238
    75.1600       234
    75.1800       236
    75.2000       228
    75.2200       244
    75.2400       234
    75.2600       238
    75.2800       240
    75.3000       246
    75.3200       264
    75.3400       246
    75.3600       230
    75.3800       276
    75.4000       244
    75.4200       268
    75.4400       260
    75.4600       260
    75.4800       296
    75.5000       274
    75.5200       292
    75.5400       292
    75.5600       254
    75.5800       294
    75.6000       316
    75.6200       314
    75.6400       288
    75.6600       314
    75.6800       288
    75.7000       302
    75.7200       252
    75.7400       260
    75.7600       278
    75.7800       262
    75.8000       290
    75.8200       242
    75.8400       304
    75.8600       322
    75.8800       266
    75.9000       286
    75.9200       292
    75.9400       288
    75.9600       268
    75.9800       274
    76.0000       254
    76.0200       244
    76.0400       236
    76.0600       254
    76.0800       226
    76.1000       246
    76.1200       230
    76.1400       278
    76.1600       278
    76.1800       302
    76.2000       260
    76.2200       240
    76.2400       266
    76.2600       270
    76.2800       290
    76.3000       258
    76.3200       272
    76.3400       314
    76.3600       286
    76.3800       296
    76.4000       320
    76.4200       334
    76.4400       352
    76.4600       342
    76.4800       324
    76.5000       324
    76.5200       378
    76.5400       380
    76.5600       380
    76.5800       370
    76.6000       408
    76.6200       416
    76.6400       410
    76.6600       432
    76.6800       426
    76.7000       432
    76.7200       462
    76.7400       442
    76.7600       434
    76.7800       428
    76.8000       442
    76.8200       426
    76.8400       408
    76.8600       410
    76.8800       342
    76.9000       374
    76.9200       374
    76.9400       428
    76.9600       408
    76.9800       348
    77.0000       382
    77.0200       368
    77.0400       372
    77.0600       372
    77.0800       358
    77.1000       384
    77.1200       350
    77.1400       342
    77.1600       354
    77.1800       358
    77.2000       368
    77.2200       382
    77.2400       354
    77.2600       364
    77.2800       382
    77.3000       382
    77.3200       412
    77.3400       378
    77.3600       404
    77.3800       430
    77.4000       428
    77.4200       440
    77.4400       474
    77.4600       498
    77.4800       520
    77.5000       558
    77.5200       528
    77.5400       536
    77.5600       544
    77.5800       624
    77.6000       606
    77.6200       634
    77.6400       662
    77.6600       674
    77.6800       664
    77.7000       660
    77.7200       658
    77.7400       642
    77.7600       656
    77.7800       698
    77.8000       628
    77.8200       636
    77.8400       638
    77.8600       592
    77.8800       534
    77.9000       602
    77.9200       590
    77.9400       512
    77.9600       542
    77.9800       500
    78.0000       508
    78.0200       466
    78.0400       402
    78.0600       412
    78.0800       390
    78.1000       402
    78.1200       402
    78.1400       358
    78.1600       382
    78.1800       360
    78.2000       322
    78.2200       352
    78.2400       362
    78.2600       298
    78.2800       316
    78.3000       354
    78.3200       292
    78.3400       330
    78.3600       296
    78.3800       298
    78.4000       324
    78.4200       360
    78.4400       348
    78.4600       342
    78.4800       346
    78.5000       366
    78.5200       412
    78.5400       390
    78.5600       392
    78.5800       402
    78.6000       410
    78.6200       414
    78.6400       396
    78.6600       408
    78.6800       424
    78.7000       424
    78.7200       458
    78.7400       452
    78.7600       444
    78.7800       446
    78.8000       450
    78.8200       434
    78.8400       416
    78.8600       356
    78.8800       410
    78.9000       410
    78.9200       408
    78.9400       342
    78.9600       386
    78.9800       362
    79.0000       370
    79.0200       350
    79.0400       336
    79.0600       314
    79.0800       338
    79.1000       312
    79.1200       306
    79.1400       282
    79.1600       288
    79.1800       298
    79.2000       292
    79.2200       278
    79.2400       296
    79.2600       284
    79.2800       244
    79.3000       270
    79.3200       256
    79.3400       270
    79.3600       264
    79.3800       246
    79.4000       260
    79.4200       278
    79.4400       242
    79.4600       222
    79.4800       284
    79.5000       272
    79.5200       242
    79.5400       260
    79.5600       256
    79.5800       274
    79.6000       256
    79.6200       280
    79.6400       260
    79.6600       246
    79.6800       266
    79.7000       268
    79.7200       264
    79.7400       246
    79.7600       230
    79.7800       248
    79.8000       258
    79.8200       278
    79.8400       260
    79.8600       250
    79.8800       254
    79.9000       236
    79.9200       242
    79.9400       252
    79.9600       286
    79.9800       262
    80.0000       276
    80.0200       252
    80.0400       282
    80.0600       228
    80.0800       234
    80.1000       268
    80.1200       262
    80.1400       262
    80.1600       248
    80.1800       268
    80.2000       282
    80.2200       260
    80.2400       250
    80.2600       296
    80.2800       276
    80.3000       248
    80.3200       248
    80.3400       290
    80.3600       256
    80.3800       286
    80.4000       278
    80.4200       284
    80.4400       274
    80.4600       308
    80.4800       288
    80.5000       304
    80.5200       272
    80.5400       288
    80.5600       284
    80.5800       282
    80.6000       266
    80.6200       290
    80.6400       280
    80.6600       258
    80.6800       262
    80.7000       248
    80.7200       230
    80.7400       240
    80.7600       262
    80.7800       246
    80.8000       246
    80.8200       236
    80.8400       272
    80.8600       226
    80.8800       232
    80.9000       268
    80.9200       246
    80.9400       228
    80.9600       222
    80.9800       242
    81.0000       206
    81.0200       220
    81.0400       216
    81.0600       206
    81.0800       218
    81.1000       188
    81.1200       214
    81.1400       200
    81.1600       212
    81.1800       212
    81.2000       262
    81.2200       260
    81.2400       204
    81.2600       208
    81.2800       240
    81.3000       232
    81.3200       246
    81.3400       228
    81.3600       250
    81.3800       232
    81.4000       232
    81.4200       258
    81.4400       266
    81.4600       270
    81.4800       240
    81.5000       262
    81.5200       260
    81.5400       244
    81.5600       260
    81.5800       292
    81.6000       268
    81.6200       268
    81.6400       272
    81.6600       254
    81.6800       296
    81.7000       288
    81.7200       260
    81.7400       264
    81.7600       254
    81.7800       296
    81.8000       282
    81.8200       266
    81.8400       300
    81.8600       252
    81.8800       298
    81.9000       276
    81.9200       284
    81.9400       306
    81.9600       302
    81.9800       286
    82.0000       328
    82.0200       336
    82.0400       320
    82.0600       314
    82.0800       306
    82.1000       340
    82.1200       360
    82.1400       352
    82.1600       352
    82.1800       356
    82.2000       336
    82.2200       356
    82.2400       356
    82.2600       360
    82.2800       342
    82.3000       414
    82.3200       404
    82.3400       380
    82.3600       386
    82.3800       384
    82.4000       416
    82.4200       424
    82.4400       372
    82.4600       408
    82.4800       378
    82.5000       394
    82.5200       402
    82.5400       464
    82.5600       442
    82.5800       476
    82.6000       488
    82.6200       492
    82.6400       522
    82.6600       582
    82.6800       564
    82.7000       564
    82.7200       650
    82.7400       636
    82.7600       678
    82.7800       722
    82.8000       760
    82.8200       798
    82.8400       854
    82.8600       910
    82.8800       888
    82.9000       912
    82.9200       958
    82.9400       972
    82.9600       968
    82.9800      1014
    83.0000       942
    83.0200       884
    83.0400       898
    83.0600       876
    83.0800       858
    83.1000       860
    83.1200       770
    83.1400       750
    83.1600       804
    83.1800       730
    83.2000       752
    83.2200       704
    83.2400       662
    83.2600       642
    83.2800       630
    83.3000       592
    83.3200       562
    83.3400       548
    83.3600       520
    83.3800       506
    83.4000       524
    83.4200       466
    83.4400       454
    83.4600       436
    83.4800       448
    83.5000       390
    83.5200       432
    83.5400       380
    83.5600       358
    83.5800       380
    83.6000       384
    83.6200       338
    83.6400       356
    83.6600       330
    83.6800       318
    83.7000       324
    83.7200       358
    83.7400       326
    83.7600       324
    83.7800       316
    83.8000       318
    83.8200       294
    83.8400       300
    83.8600       300
    83.8800       322
    83.9000       320
    83.9200       314
    83.9400       320
    83.9600       336
    83.9800       322
    84.0000       280
    84.0200       296
    84.0400       328
    84.0600       336
    84.0800       298
    84.1000       318
    84.1200       342
    84.1400       346
    84.1600       316
    84.1800       326
    84.2000       348
    84.2200       302
    84.2400       322
    84.2600       350
    84.2800       334
    84.3000       312
    84.3200       320
    84.3400       342
    84.3600       326
    84.3800       308
    84.4000       300
    84.4200       348
    84.4400       326
    84.4600       302
    84.4800       320
    84.5000       312
    84.5200       298
    84.5400       298
    84.5600       274
    84.5800       322
    84.6000       302
    84.6200       286
    84.6400       318
    84.6600       296
    84.6800       272
    84.7000       274
    84.7200       302
    84.7400       268
    84.7600       288
    84.7800       278
    84.8000       302
    84.8200       270
    84.8400       312
    84.8600       294
    84.8800       274
    84.9000       306
    84.9200       306
    84.9400       262
    84.9600       280
    84.9800       290
    85.0000       252
    85.0200       324
    85.0400       258
    85.0600       272
    85.0800       286
    85.1000       290
    85.1200       296
    85.1400       272
    85.1600       310
    85.1800       288
    85.2000       232
    85.2200       272
    85.2400       270
    85.2600       252
    85.2800       256
    85.3000       310
    85.3200       248
    85.3400       262
    85.3600       298
    85.3800       268
    85.4000       278
    85.4200       290
    85.4400       314
    85.4600       270
    85.4800       268
    85.5000       292
    85.5200       284
    85.5400       264
    85.5600       284
    85.5800       272
    85.6000       296
    85.6200       298
    85.6400       342
    85.6600       266
    85.6800       286
    85.7000       260
    85.7200       290
    85.7400       292
    85.7600       306
    85.7800       316
    85.8000       270
    85.8200       290
    85.8400       262
    85.8600       282
    85.8800       300
    85.9000       268
    85.9200       270
    85.9400       256
    85.9600       252
    85.9800       244
    86.0000       258
    86.0200       208
    86.0400       228
    86.0600       260
    86.0800       204
    86.1000       280
    86.1200       270
    86.1400       256
    86.1600       250
    86.1800       238
    86.2000       224
    86.2200       248
    86.2400       244
    86.2600       238
    86.2800       250
    86.3000       200
    86.3200       240
    86.3400       210
    86.3600       238
    86.3800       264
    86.4000       234
    86.4200       230
    86.4400       268
    86.4600       236
    86.4800       232
    86.5000       242
    86.5200       236
    86.5400       258
    86.5600       280
    86.5800       254
    86.6000       274
    86.6200       264
    86.6400       260
    86.6600       268
    86.6800       270
    86.7000       294
    86.7200       298
    86.7400       304
    86.7600       294
    86.7800       346
    86.8000       332
    86.8200       334
    86.8400       378
    86.8600       406
    86.8800       386
    86.9000       404
    86.9200       418
    86.9400       420
    86.9600       386
    86.9800       416
    87.0000       418
    87.0200       416
    87.0400       404
    87.0600       434
    87.0800       396
    87.1000       380
    87.1200       410
    87.1400       360
    87.1600       374
    87.1800       372
    87.2000       388
    87.2200       364
    87.2400       368
    87.2600       346
    87.2800       354
    87.3000       362
    87.3200       332
    87.3400       340
    87.3600       344
    87.3800       310
    87.4000       300
    87.4200       284
    87.4400       310
    87.4600       308
    87.4800       294
    87.5000       316
    87.5200       322
    87.5400       296
    87.5600       316
    87.5800       294
    87.6000       298
    87.6200       338
    87.6400       356
    87.6600       350
    87.6800       352
    87.7000       368
    87.7200       356
    87.7400       414
    87.7600       412
    87.7800       400
    87.8000       438
    87.8200       426
    87.8400       452
    87.8600       452
    87.8800       424
    87.9000       462
    87.9200       476
    87.9400       528
    87.9600       508
    87.9800       492
    88.0000       490
    88.0200       484
    88.0400       466
    88.0600       458
    88.0800       486
    88.1000       482
    88.1200       508
    88.1400       458
    88.1600       458
    88.1800       466
    88.2000       434
    88.2200       470
    88.2400       438
    88.2600       432
    88.2800       458
    88.3000       448
    88.3200       396
    88.3400       438
    88.3600       404
    88.3800       372
    88.4000       410
    88.4200       386
    88.4400       406
    88.4600       410
    88.4800       388
    88.5000       348
    88.5200       358
    88.5400       360
    88.5600       418
    88.5800       336
    88.6000       360
    88.6200       334
    88.6400       342
    88.6600       334
    88.6800       362
    88.7000       346
    88.7200       336
    88.7400       346
    88.7600       308
    88.7800       316
    88.8000       310
    88.8200       280
    88.8400       302
    88.8600       286
    88.8800       298
    88.9000       320
    88.9200       268
    88.9400       272
    88.9600       250
    88.9800       256
    89.0000       270
    89.0200       258
    89.0400       256
    89.0600       256
    89.0800       250
    89.1000       258
    89.1200       248
    89.1400       252
    89.1600       248
    89.1800       226
    89.2000       244
    89.2200       250
    89.2400       248
    89.2600       242
    89.2800       232
    89.3000       264
    89.3200       250
    89.3400       206
    89.3600       228
    89.3800       270
    89.4000       248
    89.4200       250
    89.4400       222
    89.4600       238
    89.4800       270
    89.5000       240
    89.5200       266
    89.5400       266
    89.5600       282
    89.5800       242
    89.6000       274
    89.6200       250
    89.6400       260
    89.6600       256
    89.6800       254
    89.7000       272
    89.7200       252
    89.7400       272
    89.7600       282
    89.7800       292
    89.8000       304
    89.8200       262
    89.8400       284
    89.8600       312
    89.8800       290
    89.9000       304
    89.9200       314
    89.9400       286
    89.9600       316
    89.9800       334
    90.0000       290
