    10.0000       392
    10.0200       358
    10.0400       364
    10.0600       358
    10.0800       366
    10.1000       354
    10.1200       400
    10.1400       406
    10.1600       398
    10.1800       416
    10.2000       378
    10.2200       354
    10.2400       362
    10.2600       368
    10.2800       336
    10.3000       386
    10.3200       370
    10.3400       350
    10.3600       370
    10.3800       360
    10.4000       368
    10.4200       388
    10.4400       396
    10.4600       360
    10.4800       346
    10.5000       374
    10.5200       386
    10.5400       388
    10.5600       366
    10.5800       362
    10.6000       372
    10.6200       370
    10.6400       348
    10.6600       344
    10.6800       362
    10.7000       396
    10.7200       366
    10.7400       350
    10.7600       400
    10.7800       382
    10.8000       348
    10.8200       356
    10.8400       338
    10.8600       364
    10.8800       370
    10.9000       366
    10.9200       326
    10.9400       364
    10.9600       344
    10.9800       402
    11.0000       366
    11.0200       344
    11.0400       332
    11.0600       344
    11.0800       336
    11.1000       342
    11.1200       338
    11.1400       386
    11.1600       344
    11.1800       342
    11.2000       310
    11.2200       330
    11.2400       388
    11.2600       400
    11.2800       342
    11.3000       390
    11.3200       370
    11.3400       332
    11.3600       308
    11.3800       362
    11.4000       362
    11.4200       340
    11.4400       356
    11.4600       362
    11.4800       332
    11.5000       330
    11.5200       336
    11.5400       366
    11.5600       352
    11.5800       386
    11.6000       368
    11.6200       372
    11.6400       320
    11.6600       374
    11.6800       378
    11.7000       320
    11.7200       346
    11.7400       330
    11.7600       390
    11.7800       358
    11.8000       366
    11.8200       362
    11.8400       384
    11.8600       396
    11.8800       366
    11.9000       378
    11.9200       408
    11.9400       346
    11.9600       420
    11.9800       448
    12.0000       436
    12.0200       464
    12.0400       446
    12.0600       510
    12.0800       568
    12.1000       566
    12.1200       534
    12.1400       640
    12.1600       636
    12.1800       638
    12.2000       652
    12.2200       682
    12.2400       580
    12.2600       574
    12.2800       472
    12.3000       414
    12.3200       400
    12.3400       394
    12.3600       366
    12.3800       374
    12.4000       370
    12.4200       326
    12.4400       366
    12.4600       328
    12.4800       314
    12.5000       318
    12.5200       344
    12.5400       336
    12.5600       340
    12.5800       340
    12.6000       310
    12.6200       328
    12.6400       316
    12.6600       296
    12.6800       310
    12.7000       346
    12.7200       318
    12.7400       324
    12.7600       312
    12.7800       338
    12.8000       304
    12.8200       298
    12.8400       304
    12.8600       318
    12.8800       290
    12.9000       318
    12.9200       302
    12.9400       340
    12.9600       338
    12.9800       306
    13.0000       304
    13.0200       296
    13.0400       330
    13.0600       344
    13.0800       278
    13.1000       302
    13.1200       298
    13.1400       318
    13.1600       318
    13.1800       348
    13.2000       286
    13.2200       342
    13.2400       308
    13.2600       318
    13.2800       290
    13.3000       300
    13.3200       318
    13.3400       298
    13.3600       310
    13.3800       288
    13.4000       268
    13.4200       316
    13.4400       308
    13.4600       320
    13.4800       286
    13.5000       310
    13.5200       280
    13.5400       290
    13.5600       308
    13.5800       282
    13.6000       264
    13.6200       296
    13.6400       278
    13.6600       320
    13.6800       290
    13.7000       288
    13.7200       284
    13.7400       314
    13.7600       302
    13.7800       302
    13.8000       298
    13.8200       296
    13.8400       300
    13.8600       308
    13.8800       298
    13.9000       312
    13.9200       298
    13.9400       286
    13.9600       312
    13.9800       302
    14.0000       304
    14.0200       284
    14.0400       274
    14.0600       270
    14.0800       290
    14.1000       282
    14.1200       280
    14.1400       284
    14.1600       296
    14.1800       258
    14.2000       318
    14.2200       314
    14.2400       302
    14.2600       298
    14.2800       304
    14.3000       328
    14.3200       294
    14.3400       290
    14.3600       292
    14.3800       282
    14.4000       274
    14.4200       338
    14.4400       288
    14.4600       312
    14.4800       320
    14.5000       308
    14.5200       324
    14.5400       326
    14.5600       348
    14.5800       330
    14.6000       358
    14.6200       352
    14.6400       348
    14.6600       358
    14.6800       388
    14.7000       394
    14.7200       376
    14.7400       426
    14.7600       430
    14.7800       454
    14.8000       444
    14.8200       482
    14.8400       530
    14.8600       546
    14.8800       568
    14.9000       608
    14.9200       644
    14.9400       680
    14.9600       744
    14.9800       854
    15.0000       902
    15.0200       984
    15.0400      1046
    15.0600      1140
    15.0800      1202
    15.1000      1284
    15.1200      1404
    15.1400      1516
    15.1600      1598
    15.1800      1722
    15.2000      1678
    15.2200      1470
    15.2400      1370
    15.2600      1220
    15.2800      1010
    15.3000       788
    15.3200       682
    15.3400       544
    15.3600       542
    15.3800       498
    15.4000       496
    15.4200       418
    15.4400       466
    15.4600       400
    15.4800       376
    15.5000       386
    15.5200       394
    15.5400       300
    15.5600       334
    15.5800       314
    15.6000       350
    15.6200       304
    15.6400       322
    15.6600       284
    15.6800       324
    15.7000       348
    15.7200       320
    15.7400       318
    15.7600       326
    15.7800       316
    15.8000       312
    15.8200       344
    15.8400       322
    15.8600       346
    15.8800       332
    15.9000       334
    15.9200       334
    15.9400       294
    15.9600       310
    15.9800       344
    16.0000       348
    16.0200       330
    16.0400       336
    16.0600       366
    16.0800       318
    16.1000       364
    16.1200       340
    16.1400       412
    16.1600       376
    16.1800       408
    16.2000       410
    16.2200       430
    16.2400       446
    16.2600       428
    16.2800       446
    16.3000       450
    16.3200       416
    16.3400       438
    16.3600       372
    16.3800       416
    16.4000       424
    16.4200       394
    16.4400       390
    16.4600       362
    16.4800       376
    16.5000       404
    16.5200       432
    16.5400       384
    16.5600       426
    16.5800       432
    16.6000       452
    16.6200       486
    16.6400       500
    16.6600       518
    16.6800       536
    16.7000       584
    16.7200       586
    16.7400       650
    16.7600       706
    16.7800       774
    16.8000       822
    16.8200       854
    16.8400       990
    16.8600      1140
    16.8800      1268
    16.9000      1420
    16.9200      1542
    16.9400      1684
    16.9600      2018
    16.9800      2162
    17.0000      2504
    17.0200      2574
    17.0400      2842
    17.0600      2776
    17.0800      2778
    17.1000      2406
    17.1200      2022
    17.1400      1670
    17.1600      1456
    17.1800      1270
    17.2000      1182
    17.2200      1074
    17.2400      1020
    17.2600       966
    17.2800       868
    17.3000       890
    17.3200       776
    17.3400       710
    17.3600       702
    17.3800       672
    17.4000       660
    17.4200       578
    17.4400       584
    17.4600       628
    17.4800       588
    17.5000       534
    17.5200       496
    17.5400       594
    17.5600       548
    17.5800       592
    17.6000       636
    17.6200       598
    17.6400       658
    17.6600       654
    17.6800       684
    17.7000       782
    17.7200       800
    17.7400       840
    17.7600       890
    17.7800       924
    17.8000       958
    17.8200       930
    17.8400       850
    17.8600       798
    17.8800       722
    17.9000       622
    17.9200       546
    17.9400       442
    17.9600       470
    17.9800       416
    18.0000       376
    18.0200       348
    18.0400       304
    18.0600       324
    18.0800       324
    18.1000       308
    18.1200       326
    18.1400       318
    18.1600       296
    18.1800       250
    18.2000       310
    18.2200       288
    18.2400       290
    18.2600       280
    18.2800       258
    18.3000       264
    18.3200       260
    18.3400       272
    18.3600       282
    18.3800       276
    18.4000       242
    18.4200       274
    18.4400       270
    18.4600       292
    18.4800       274
    18.5000       274
    18.5200       242
    18.5400       262
    18.5600       260
    18.5800       264
    18.6000       280
    18.6200       254
    18.6400       288
    18.6600       272
    18.6800       304
    18.7000       286
    18.7200       300
    18.7400       276
    18.7600       268
    18.7800       292
    18.8000       278
    18.8200       292
    18.8400       336
    18.8600       318
    18.8800       318
    18.9000       300
    18.9200       300
    18.9400       332
    18.9600       314
    18.9800       344
    19.0000       318
    19.0200       312
    19.0400       338
    19.0600       336
    19.0800       312
    19.1000       338
    19.1200       386
    19.1400       372
    19.1600       428
    19.1800       446
    19.2000       414
    19.2200       466
    19.2400       478
    19.2600       540
    19.2800       550
    19.3000       630
    19.3200       614
    19.3400       736
    19.3600       836
    19.3800       860
    19.4000       942
    19.4200      1114
    19.4400      1236
    19.4600      1386
    19.4800      1586
    19.5000      1694
    19.5200      1792
    19.5400      1732
    19.5600      1766
    19.5800      1594
    19.6000      1384
    19.6200      1260
    19.6400      1078
    19.6600       898
    19.6800       830
    19.7000       756
    19.7200       750
    19.7400       700
    19.7600       744
    19.7800       774
    19.8000       808
    19.8200       858
    19.8400       920
    19.8600      1018
    19.8800      1058
    19.9000      1166
    19.9200      1306
    19.9400      1336
    19.9600      1372
    19.9800      1430
    20.0000      1354
    20.0200      1230
    20.0400      1118
    20.0600       978
    20.0800       772
    20.1000       706
    20.1200       546
    20.1400       476
    20.1600       436
    20.1800       436
    20.2000       394
    20.2200       406
    20.2400       360
    20.2600       356
    20.2800       338
    20.3000       306
    20.3200       318
    20.3400       316
    20.3600       320
    20.3800       286
    20.4000       300
    20.4200       310
    20.4400       268
    20.4600       272
    20.4800       276
    20.5000       282
    20.5200       308
    20.5400       278
    20.5600       268
    20.5800       260
    20.6000       276
    20.6200       260
    20.6400       276
    20.6600       288
    20.6800       306
    20.7000       286
    20.7200       318
    20.7400       302
    20.7600       296
    20.7800       312
    20.8000       316
    20.8200       374
    20.8400       388
    20.8600       392
    20.8800       424
    20.9000       432
    20.9200       470
    20.9400       524
    20.9600       550
    20.9800       626
    21.0000       654
    21.0200       730
    21.0400       866
    21.0600       974
    21.0800      1088
    21.1000      1224
    21.1200      1338
    21.1400      1424
    21.1600      1618
    21.1800      1564
    21.2000      1660
    21.2200      1718
    21.2400      1632
    21.2600      1464
    21.2800      1294
    21.3000      1138
    21.3200       916
    21.3400       812
    21.3600       674
    21.3800       594
    21.4000       514
    21.4200       464
    21.4400       386
    21.4600       376
    21.4800       374
    21.5000       322
    21.5200       306
    21.5400       312
    21.5600       302
    21.5800       278
    21.6000       278
    21.6200       280
    21.6400       248
    21.6600       270
    21.6800       282
    21.7000       252
    21.7200       260
    21.7400       256
    21.7600       276
    21.7800       236
    21.8000       254
    21.8200       260
    21.8400       252
    21.8600       228
    21.8800       278
    21.9000       236
    21.9200       250
    21.9400       276
    21.9600       250
    21.9800       242
    22.0000       270
    22.0200       264
    22.0400       238
    22.0600       286
    22.0800       260
    22.1000       252
    22.1200       264
    22.1400       268
    22.1600       262
    22.1800       238
    22.2000       254
    22.2200       246
    22.2400       244
    22.2600       266
    22.2800       288
    22.3000       274
    22.3200       304
    22.3400       290
    22.3600       280
    22.3800       308
    22.4000       318
    22.4200       324
    22.4400       338
    22.4600       356
    22.4800       406
    22.5000       420
    22.5200       460
    22.5400       514
    22.5600       498
    22.5800       592
    22.6000       592
    22.6200       684
    22.6400       778
    22.6600       896
    22.6800      1008
    22.7000      1150
    22.7200      1320
    22.7400      1458
    22.7600      1636
    22.7800      1810
    22.8000      2098
    22.8200      2250
    22.8400      2384
    22.8600      2444
    22.8800      2288
    22.9000      2090
    22.9200      1854
    22.9400      1554
    22.9600      1336
    22.9800      1048
    23.0000       924
    23.0200       722
    23.0400       674
    23.0600       610
    23.0800       542
    23.1000       484
    23.1200       480
    23.1400       448
    23.1600       422
    23.1800       386
    23.2000       412
    23.2200       374
    23.2400       358
    23.2600       348
    23.2800       342
    23.3000       340
    23.3200       290
    23.3400       300
    23.3600       318
    23.3800       314
    23.4000       294
    23.4200       282
    23.4400       266
    23.4600       316
    23.4800       284
    23.5000       274
    23.5200       266
    23.5400       256
    23.5600       296
    23.5800       254
    23.6000       258
    23.6200       252
    23.6400       260
    23.6600       258
    23.6800       264
    23.7000       264
    23.7200       254
    23.7400       262
    23.7600       296
    23.7800       236
    23.8000       286
    23.8200       278
    23.8400       274
    23.8600       262
    23.8800       266
    23.9000       274
    23.9200       300
    23.9400       308
    23.9600       278
    23.9800       302
    24.0000       286
    24.0200       300
    24.0400       294
    24.0600       282
    24.0800       306
    24.1000       298
    24.1200       362
    24.1400       312
    24.1600       306
    24.1800       358
    24.2000       364
    24.2200       344
    24.2400       392
    24.2600       420
    24.2800       446
    24.3000       494
    24.3200       502
    24.3400       600
    24.3600       612
    24.3800       660
    24.4000       754
    24.4200       820
    24.4400       798
    24.4600       954
    24.4800      1024
    24.5000      1202
    24.5200      1122
    24.5400      1168
    24.5600      1144
    24.5800      1140
    24.6000      1124
    24.6200      1110
    24.6400       988
    24.6600       930
    24.6800       866
    24.7000       788
    24.7200       782
    24.7400       840
    24.7600       782
    24.7800       758
    24.8000       678
    24.8200       714
    24.8400       628
    24.8600       644
    24.8800       580
    24.9000       594
    24.9200       566
    24.9400       618
    24.9600       604
    24.9800       552
    25.0000       612
    25.0200       632
    25.0400       682
    25.0600       724
    25.0800       696
    25.1000       762
    25.1200       832
    25.1400       876
    25.1600       984
    25.1800       998
    25.2000      1146
    25.2200      1226
    25.2400      1346
    25.2600      1474
    25.2800      1452
    25.3000      1472
    25.3200      1448
    25.3400      1318
    25.3600      1326
    25.3800      1090
    25.4000       956
    25.4200       886
    25.4400       824
    25.4600       796
    25.4800       810
    25.5000       762
    25.5200       780
    25.5400       846
    25.5600       816
    25.5800       766
    25.6000       794
    25.6200       806
    25.6400       756
    25.6600       690
    25.6800       632
    25.7000       610
    25.7200       550
    25.7400       522
    25.7600       496
    25.7800       432
    25.8000       444
    25.8200       438
    25.8400       410
    25.8600       420
    25.8800       410
    25.9000       416
    25.9200       354
    25.9400       392
    25.9600       420
    25.9800       362
    26.0000       362
    26.0200       308
    26.0400       342
    26.0600       326
    26.0800       364
    26.1000       294
    26.1200       314
    26.1400       306
    26.1600       320
    26.1800       330
    26.2000       306
    26.2200       258
    26.2400       330
    26.2600       304
    26.2800       308
    26.3000       300
    26.3200       294
    26.3400       290
    26.3600       294
    26.3800       320
    26.4000       300
    26.4200       290
    26.4400       296
    26.4600       326
    26.4800       316
    26.5000       274
    26.5200       274
    26.5400       300
    26.5600       288
    26.5800       308
    26.6000       312
    26.6200       320
    26.6400       314
    26.6600       288
    26.6800       332
    26.7000       286
    26.7200       300
    26.7400       302
    26.7600       298
    26.7800       278
    26.8000       294
    26.8200       268
    26.8400       288
    26.8600       266
    26.8800       272
    26.9000       278
    26.9200       276
    26.9400       294
    26.9600       290
    26.9800       282
    27.0000       316
    27.0200       260
    27.0400       298
    27.0600       332
    27.0800       334
    27.1000       332
    27.1200       338
    27.1400       342
    27.1600       342
    27.1800       400
    27.2000       390
    27.2200       442
    27.2400       456
    27.2600       528
    27.2800       574
    27.3000       600
    27.3200       652
    27.3400       726
    27.3600       808
    27.3800       818
    27.4000       942
    27.4200      1028
    27.4400      1046
    27.4600      1146
    27.4800      1162
    27.5000      1172
    27.5200      1102
    27.5400      1056
    27.5600       964
    27.5800       856
    27.6000       796
    27.6200       706
    27.6400       674
    27.6600       600
    27.6800       550
    27.7000       484
    27.7200       444
    27.7400       410
    27.7600       414
    27.7800       388
    27.8000       374
    27.8200       360
    27.8400       372
    27.8600       352
    27.8800       384
    27.9000       320
    27.9200       370
    27.9400       312
    27.9600       354
    27.9800       300
    28.0000       318
    28.0200       316
    28.0400       290
    28.0600       296
    28.0800       322
    28.1000       326
    28.1200       302
    28.1400       320
    28.1600       334
    28.1800       338
    28.2000       320
    28.2200       294
    28.2400       352
    28.2600       312
    28.2800       332
    28.3000       344
    28.3200       326
    28.3400       374
    28.3600       360
    28.3800       376
    28.4000       354
    28.4200       360
    28.4400       336
    28.4600       386
    28.4800       322
    28.5000       326
    28.5200       370
    28.5400       422
    28.5600       378
    28.5800       356
    28.6000       430
    28.6200       384
    28.6400       466
    28.6600       496
    28.6800       494
    28.7000       494
    28.7200       510
    28.7400       494
    28.7600       516
    28.7800       498
    28.8000       428
    28.8200       460
    28.8400       412
    28.8600       400
    28.8800       386
    28.9000       426
    28.9200       376
    28.9400       382
    28.9600       346
    28.9800       372
    29.0000       336
    29.0200       334
    29.0400       358
    29.0600       394
    29.0800       370
    29.1000       378
    29.1200       412
    29.1400       402
    29.1600       406
    29.1800       422
    29.2000       426
    29.2200       432
    29.2400       438
    29.2600       464
    29.2800       480
    29.3000       514
    29.3200       514
    29.3400       548
    29.3600       618
    29.3800       612
    29.4000       690
    29.4200       716
    29.4400       788
    29.4600       792
    29.4800       942
    29.5000       964
    29.5200      1070
    29.5400      1074
    29.5600      1134
    29.5800      1350
    29.6000      1346
    29.6200      1396
    29.6400      1468
    29.6600      1414
    29.6800      1392
    29.7000      1296
    29.7200      1212
    29.7400      1168
    29.7600      1058
    29.7800       958
    29.8000       904
    29.8200       862
    29.8400       866
    29.8600       814
    29.8800       774
    29.9000       840
    29.9200       832
    29.9400       894
    29.9600       928
    29.9800       986
    30.0000      1062
    30.0200      1160
    30.0400      1338
    30.0600      1406
    30.0800      1518
    30.1000      1798
    30.1200      1914
    30.1400      2060
    30.1600      2188
    30.1800      2382
    30.2000      2338
    30.2200      2314
    30.2400      2322
    30.2600      2236
    30.2800      2280
    30.3000      2230
    30.3200      2184
    30.3400      2246
    30.3600      2334
    30.3800      2382
    30.4000      2544
    30.4200      2594
    30.4400      2924
    30.4600      3054
    30.4800      3402
    30.5000      3776
    30.5200      4286
    30.5400      4686
    30.5600      5334
    30.5800      6014
    30.6000      6648
    30.6200      7188
    30.6400      7676
    30.6600      8010
    30.6800      7808
    30.7000      7334
    30.7200      7036
    30.7400      6268
    30.7600      5460
    30.7800      4892
    30.8000      4148
    30.8200      3538
    30.8400      2900
    30.8600      2608
    30.8800      2222
    30.9000      1924
    30.9200      1846
    30.9400      1608
    30.9600      1534
    30.9800      1432
    31.0000      1358
    31.0200      1250
    31.0400      1194
    31.0600      1104
    31.0800      1052
    31.1000      1046
    31.1200       968
    31.1400       954
    31.1600       874
    31.1800       854
    31.2000       844
    31.2200       800
    31.2400       746
    31.2600       772
    31.2800       656
    31.3000       652
    31.3200       626
    31.3400       614
    31.3600       550
    31.3800       516
    31.4000       558
    31.4200       534
    31.4400       494
    31.4600       488
    31.4800       458
    31.5000       474
    31.5200       466
    31.5400       478
    31.5600       504
    31.5800       478
    31.6000       492
    31.6200       492
    31.6400       492
    31.6600       508
    31.6800       508
    31.7000       540
    31.7200       540
    31.7400       542
    31.7600       636
    31.7800       634
    31.8000       702
    31.8200       710
    31.8400       752
    31.8600       886
    31.8800       978
    31.9000      1078
    31.9200      1136
    31.9400      1282
    31.9600      1332
    31.9800      1400
    32.0000      1474
    32.0200      1402
    32.0400      1350
    32.0600      1266
    32.0800      1214
    32.1000      1130
    32.1200      1066
    32.1400       992
    32.1600      1004
    32.1800       928
    32.2000       958
    32.2200       962
    32.2400      1034
    32.2600      1120
    32.2800      1198
    32.3000      1198
    32.3200      1430
    32.3400      1620
    32.3600      1752
    32.3800      1940
    32.4000      2282
    32.4200      2480
    32.4400      2894
    32.4600      3194
    32.4800      3442
    32.5000      3874
    32.5200      4024
    32.5400      4218
    32.5600      4152
    32.5800      3992
    32.6000      3940
    32.6200      3600
    32.6400      3192
    32.6600      2928
    32.6800      2632
    32.7000      2292
    32.7200      1960
    32.7400      1750
    32.7600      1560
    32.7800      1346
    32.8000      1230
    32.8200      1150
    32.8400      1078
    32.8600      1040
    32.8800       988
    32.9000       916
    32.9200       930
    32.9400       950
    32.9600       978
    32.9800      1002
    33.0000       986
    33.0200      1006
    33.0400      1042
    33.0600      1062
    33.0800      1094
    33.1000       952
    33.1200       978
    33.1400       930
    33.1600       818
    33.1800       774
    33.2000       676
    33.2200       656
    33.2400       562
    33.2600       554
    33.2800       548
    33.3000       464
    33.3200       452
    33.3400       424
    33.3600       352
    33.3800       342
    33.4000       370
    33.4200       338
    33.4400       360
    33.4600       320
    33.4800       324
    33.5000       294
    33.5200       336
    33.5400       276
    33.5600       340
    33.5800       292
    33.6000       330
    33.6200       288
    33.6400       282
    33.6600       284
    33.6800       308
    33.7000       278
    33.7200       266
    33.7400       262
    33.7600       274
    33.7800       242
    33.8000       298
    33.8200       282
    33.8400       300
    33.8600       264
    33.8800       296
    33.9000       266
    33.9200       280
    33.9400       254
    33.9600       286
    33.9800       308
    34.0000       274
    34.0200       276
    34.0400       316
    34.0600       300
    34.0800       296
    34.1000       306
    34.1200       284
    34.1400       298
    34.1600       326
    34.1800       344
    34.2000       310
    34.2200       338
    34.2400       360
    34.2600       378
    34.2800       372
    34.3000       378
    34.3200       424
    34.3400       448
    34.3600       492
    34.3800       518
    34.4000       518
    34.4200       602
    34.4400       676
    34.4600       734
    34.4800       778
    34.5000       826
    34.5200       808
    34.5400       764
    34.5600       716
    34.5800       670
    34.6000       632
    34.6200       608
    34.6400       566
    34.6600       526
    34.6800       502
    34.7000       426
    34.7200       448
    34.7400       434
    34.7600       384
    34.7800       420
    34.8000       416
    34.8200       396
    34.8400       384
    34.8600       392
    34.8800       378
    34.9000       382
    34.9200       372
    34.9400       336
    34.9600       320
    34.9800       336
    35.0000       316
    35.0200       312
    35.0400       338
    35.0600       310
    35.0800       304
    35.1000       310
    35.1200       312
    35.1400       298
    35.1600       306
    35.1800       318
    35.2000       308
    35.2200       290
    35.2400       262
    35.2600       298
    35.2800       316
    35.3000       302
    35.3200       294
    35.3400       256
    35.3600       266
    35.3800       298
    35.4000       340
    35.4200       300
    35.4400       306
    35.4600       354
    35.4800       296
    35.5000       324
    35.5200       326
    35.5400       332
    35.5600       346
    35.5800       320
    35.6000       328
    35.6200       338
    35.6400       340
    35.6600       360
    35.6800       356
    35.7000       354
    35.7200       410
    35.7400       398
    35.7600       400
    35.7800       442
    35.8000       444
    35.8200       432
    35.8400       512
    35.8600       500
    35.8800       530
    35.9000       558
    35.9200       592
    35.9400       618
    35.9600       692
    35.9800       778
    36.0000       804
    36.0200       890
    36.0400       908
    36.0600       904
    36.0800       964
    36.1000       964
    36.1200       996
    36.1400       884
    36.1600       884
    36.1800       900
    36.2000       826
    36.2200       708
    36.2400       712
    36.2600       638
    36.2800       628
    36.3000       554
    36.3200       540
    36.3400       528
    36.3600       482
    36.3800       486
    36.4000       446
    36.4200       468
    36.4400       428
    36.4600       434
    36.4800       438
    36.5000       436
    36.5200       460
    36.5400       454
    36.5600       476
    36.5800       486
    36.6000       484
    36.6200       518
    36.6400       552
    36.6600       594
    36.6800       596
    36.7000       636
    36.7200       770
    36.7400       762
    36.7600       820
    36.7800       914
    36.8000       942
    36.8200      1052
    36.8400      1138
    36.8600      1190
    36.8800      1200
    36.9000      1248
    36.9200      1234
    36.9400      1108
    36.9600      1072
    36.9800      1052
    37.0000       958
    37.0200       994
    37.0400       992
    37.0600       868
    37.0800       880
    37.1000       926
    37.1200       858
    37.1400       878
    37.1600       826
    37.1800       842
    37.2000       860
    37.2200       802
    37.2400       824
    37.2600       784
    37.2800       786
    37.3000       702
    37.3200       660
    37.3400       606
    37.3600       604
    37.3800       644
    37.4000       576
    37.4200       520
    37.4400       486
    37.4600       526
    37.4800       486
    37.5000       494
    37.5200       514
    37.5400       512
    37.5600       536
    37.5800       530
    37.6000       544
    37.6200       564
    37.6400       514
    37.6600       544
    37.6800       548
    37.7000       588
    37.7200       598
    37.7400       588
    37.7600       664
    37.7800       668
    37.8000       710
    37.8200       738
    37.8400       762
    37.8600       876
    37.8800       954
    37.9000       988
    37.9200      1068
    37.9400      1208
    37.9600      1306
    37.9800      1356
    38.0000      1440
    38.0200      1430
    38.0400      1444
    38.0600      1512
    38.0800      1500
    38.1000      1404
    38.1200      1384
    38.1400      1388
    38.1600      1398
    38.1800      1358
    38.2000      1354
    38.2200      1452
    38.2400      1470
    38.2600      1636
    38.2800      1676
    38.3000      1922
    38.3200      2026
    38.3400      2134
    38.3600      2436
    38.3800      2712
    38.4000      2990
    38.4200      3188
    38.4400      3462
    38.4600      3746
    38.4800      3812
    38.5000      4152
    38.5200      4382
    38.5400      4730
    38.5600      4934
    38.5800      5044
    38.6000      5402
    38.6200      5544
    38.6400      5450
    38.6600      5426
    38.6800      5372
    38.7000      5084
    38.7200      4790
    38.7400      4376
    38.7600      4112
    38.7800      3718
    38.8000      3442
    38.8200      3048
    38.8400      2706
    38.8600      2532
    38.8800      2250
    38.9000      1976
    38.9200      1842
    38.9400      1748
    38.9600      1660
    38.9800      1536
    39.0000      1490
    39.0200      1476
    39.0400      1400
    39.0600      1468
    39.0800      1452
    39.1000      1396
    39.1200      1430
    39.1400      1412
    39.1600      1436
    39.1800      1396
    39.2000      1368
    39.2200      1380
    39.2400      1522
    39.2600      1466
    39.2800      1442
    39.3000      1390
    39.3200      1410
    39.3400      1510
    39.3600      1452
    39.3800      1380
    39.4000      1366
    39.4200      1334
    39.4400      1262
    39.4600      1268
    39.4800      1216
    39.5000      1244
    39.5200      1206
    39.5400      1190
    39.5600      1238
    39.5800      1296
    39.6000      1342
    39.6200      1430
    39.6400      1522
    39.6600      1560
    39.6800      1526
    39.7000      1484
    39.7200      1458
    39.7400      1494
    39.7600      1388
    39.7800      1324
    39.8000      1174
    39.8200      1118
    39.8400      1104
    39.8600       972
    39.8800       982
    39.9000       884
    39.9200       898
    39.9400       832
    39.9600       840
    39.9800       852
    40.0000       826
    40.0200       892
    40.0400       870
    40.0600       954
    40.0800       904
    40.1000       980
    40.1200       940
    40.1400       996
    40.1600      1060
    40.1800      1064
    40.2000      1090
    40.2200      1136
    40.2400      1124
    40.2600      1012
    40.2800      1004
    40.3000      1116
    40.3200      1064
    40.3400      1202
    40.3600      1132
    40.3800      1244
    40.4000      1306
    40.4200      1240
    40.4400      1432
    40.4600      1440
    40.4800      1556
    40.5000      1672
    40.5200      1656
    40.5400      1676
    40.5600      1668
    40.5800      1596
    40.6000      1572
    40.6200      1550
    40.6400      1448
    40.6600      1288
    40.6800      1252
    40.7000      1140
    40.7200      1092
    40.7400      1024
    40.7600       962
    40.7800       880
    40.8000       920
    40.8200       812
    40.8400       780
    40.8600       798
    40.8800       750
    40.9000       752
    40.9200       756
    40.9400       738
    40.9600       724
    40.9800       778
    41.0000       860
    41.0200       848
    41.0400       872
    41.0600       874
    41.0800      1016
    41.1000      1022
    41.1200      1078
    41.1400      1168
    41.1600      1292
    41.1800      1432
    41.2000      1490
    41.2200      1594
    41.2400      1680
    41.2600      1780
    41.2800      1860
    41.3000      1932
    41.3200      1940
    41.3400      2020
    41.3600      2066
    41.3800      2066
    41.4000      2100
    41.4200      2144
    41.4400      2206
    41.4600      2184
    41.4800      2148
    41.5000      2134
    41.5200      1946
    41.5400      1906
    41.5600      1754
    41.5800      1698
    41.6000      1608
    41.6200      1450
    41.6400      1446
    41.6600      1266
    41.6800      1214
    41.7000      1152
    41.7200      1146
    41.7400      1074
    41.7600      1112
    41.7800      1144
    41.8000      1176
    41.8200      1142
    41.8400      1210
    41.8600      1186
    41.8800      1246
    41.9000      1254
    41.9200      1250
    41.9400      1138
    41.9600      1118
    41.9800      1104
    42.0000      1026
    42.0200       932
    42.0400       892
    42.0600       796
    42.0800       746
    42.1000       732
    42.1200       770
    42.1400       620
    42.1600       584
    42.1800       554
    42.2000       552
    42.2200       508
    42.2400       476
    42.2600       512
    42.2800       540
    42.3000       452
    42.3200       508
    42.3400       496
    42.3600       526
    42.3800       486
    42.4000       472
    42.4200       432
    42.4400       446
    42.4600       478
    42.4800       420
    42.5000       424
    42.5200       444
    42.5400       452
    42.5600       434
    42.5800       392
    42.6000       420
    42.6200       420
    42.6400       428
    42.6600       434
    42.6800       462
    42.7000       398
    42.7200       456
    42.7400       394
    42.7600       432
    42.7800       476
    42.8000       474
    42.8200       506
    42.8400       490
    42.8600       512
    42.8800       500
    42.9000       542
    42.9200       588
    42.9400       568
    42.9600       592
    42.9800       622
    43.0000       690
    43.0200       666
    43.0400       730
    43.0600       842
    43.0800       848
    43.1000       914
    43.1200       996
    43.1400      1088
    43.1600      1140
    43.1800      1180
    43.2000      1168
    43.2200      1174
    43.2400      1170
    43.2600      1096
    43.2800      1092
    43.3000      1060
    43.3200       986
    43.3400       922
    43.3600       906
    43.3800       748
    43.4000       716
    43.4200       664
    43.4400       670
    43.4600       568
    43.4800       600
    43.5000       546
    43.5200       514
    43.5400       498
    43.5600       564
    43.5800       480
    43.6000       524
    43.6200       518
    43.6400       546
    43.6600       514
    43.6800       472
    43.7000       530
    43.7200       562
    43.7400       512
    43.7600       572
    43.7800       576
    43.8000       572
    43.8200       584
    43.8400       648
    43.8600       564
    43.8800       582
    43.9000       584
    43.9200       552
    43.9400       540
    43.9600       552
    43.9800       564
    44.0000       528
    44.0200       492
    44.0400       536
    44.0600       500
    44.0800       516
    44.1000       488
    44.1200       524
    44.1400       560
    44.1600       472
    44.1800       526
    44.2000       548
    44.2200       540
    44.2400       556
    44.2600       574
    44.2800       580
    44.3000       604
    44.3200       562
    44.3400       566
    44.3600       566
    44.3800       572
    44.4000       556
    44.4200       604
    44.4400       558
    44.4600       566
    44.4800       608
    44.5000       614
    44.5200       580
    44.5400       654
    44.5600       620
    44.5800       688
    44.6000       718
    44.6200       672
    44.6400       728
    44.6600       764
    44.6800       776
    44.7000       756
    44.7200       852
    44.7400       882
    44.7600       846
    44.7800       850
    44.8000       912
    44.8200       986
    44.8400      1034
    44.8600      1064
    44.8800      1182
    44.9000      1254
    44.9200      1352
    44.9400      1426
    44.9600      1514
    44.9800      1648
    45.0000      1742
    45.0200      1860
    45.0400      1920
    45.0600      2012
    45.0800      2082
    45.1000      2140
    45.1200      2208
    45.1400      2316
    45.1600      2390
    45.1800      2422
    45.2000      2440
    45.2200      2540
    45.2400      2482
    45.2600      2516
    45.2800      2366
    45.3000      2270
    45.3200      2140
    45.3400      2108
    45.3600      2074
    45.3800      1982
    45.4000      1934
    45.4200      1812
    45.4400      1772
    45.4600      1742
    45.4800      1676
    45.5000      1628
    45.5200      1502
    45.5400      1514
    45.5600      1338
    45.5800      1290
    45.6000      1254
    45.6200      1188
    45.6400      1140
    45.6600      1068
    45.6800      1020
    45.7000      1010
    45.7200       958
    45.7400       852
    45.7600       902
    45.7800       830
    45.8000       790
    45.8200       812
    45.8400       752
    45.8600       742
    45.8800       722
    45.9000       800
    45.9200       786
    45.9400       798
    45.9600       716
    45.9800       722
    46.0000       744
    46.0200       724
    46.0400       740
    46.0600       792
    46.0800       804
    46.1000       760
    46.1200       806
    46.1400       794
    46.1600       856
    46.1800       884
    46.2000       888
    46.2200       956
    46.2400       968
    46.2600       930
    46.2800       978
    46.3000      1076
    46.3200      1160
    46.3400      1256
    46.3600      1286
    46.3800      1430
    46.4000      1506
    46.4200      1652
    46.4400      1762
    46.4600      1880
    46.4800      2116
    46.5000      2284
    46.5200      2390
    46.5400      2614
    46.5600      2990
    46.5800      3154
    46.6000      3434
    46.6200      3688
    46.6400      4056
    46.6600      4204
    46.6800      4464
    46.7000      4390
    46.7200      4298
    46.7400      4190
    46.7600      4070
    46.7800      3966
    46.8000      3672
    46.8200      3444
    46.8400      3112
    46.8600      2770
    46.8800      2580
    46.9000      2204
    46.9200      2006
    46.9400      1710
    46.9600      1568
    46.9800      1404
    47.0000      1310
    47.0200      1236
    47.0400      1118
    47.0600      1008
    47.0800      1030
    47.1000       922
    47.1200       812
    47.1400       772
    47.1600       812
    47.1800       698
    47.2000       672
    47.2200       650
    47.2400       670
    47.2600       650
    47.2800       606
    47.3000       590
    47.3200       560
    47.3400       556
    47.3600       478
    47.3800       542
    47.4000       526
    47.4200       516
    47.4400       552
    47.4600       528
    47.4800       506
    47.5000       488
    47.5200       486
    47.5400       500
    47.5600       520
    47.5800       450
    47.6000       508
    47.6200       472
    47.6400       508
    47.6600       492
    47.6800       514
    47.7000       576
    47.7200       578
    47.7400       584
    47.7600       618
    47.7800       588
    47.8000       616
    47.8200       640
    47.8400       628
    47.8600       646
    47.8800       600
    47.9000       590
    47.9200       588
    47.9400       598
    47.9600       588
    47.9800       564
    48.0000       608
    48.0200       590
    48.0400       572
    48.0600       574
    48.0800       602
    48.1000       582
    48.1200       608
    48.1400       664
    48.1600       674
    48.1800       708
    48.2000       688
    48.2200       666
    48.2400       750
    48.2600       742
    48.2800       764
    48.3000       716
    48.3200       750
    48.3400       746
    48.3600       758
    48.3800       806
    48.4000       840
    48.4200       796
    48.4400       906
    48.4600       908
    48.4800       942
    48.5000      1020
    48.5200       980
    48.5400       988
    48.5600      1036
    48.5800      1092
    48.6000      1086
    48.6200      1048
    48.6400      1020
    48.6600      1032
    48.6800       972
    48.7000       986
    48.7200       958
    48.7400       956
    48.7600       878
    48.7800       844
    48.8000       794
    48.8200       716
    48.8400       714
    48.8600       674
    48.8800       612
    48.9000       600
    48.9200       616
    48.9400       556
    48.9600       516
    48.9800       478
    49.0000       458
    49.0200       436
    49.0400       478
    49.0600       512
    49.0800       460
    49.1000       458
    49.1200       394
    49.1400       434
    49.1600       436
    49.1800       426
    49.2000       396
    49.2200       422
    49.2400       362
    49.2600       368
    49.2800       364
    49.3000       372
    49.3200       364
    49.3400       362
    49.3600       374
    49.3800       372
    49.4000       344
    49.4200       362
    49.4400       380
    49.4600       402
    49.4800       390
    49.5000       368
    49.5200       394
    49.5400       372
    49.5600       426
    49.5800       384
    49.6000       380
    49.6200       422
    49.6400       378
    49.6600       434
    49.6800       400
    49.7000       394
    49.7200       428
    49.7400       394
    49.7600       432
    49.7800       422
    49.8000       436
    49.8200       496
    49.8400       506
    49.8600       498
    49.8800       458
    49.9000       482
    49.9200       472
    49.9400       488
    49.9600       570
    49.9800       620
    50.0000       562
    50.0200       620
    50.0400       612
    50.0600       674
    50.0800       710
    50.1000       730
    50.1200       804
    50.1400       802
    50.1600       886
    50.1800      1000
    50.2000      1062
    50.2200      1112
    50.2400      1146
    50.2600      1184
    50.2800      1258
    50.3000      1272
    50.3200      1316
    50.3400      1412
    50.3600      1354
    50.3800      1330
    50.4000      1380
    50.4200      1406
    50.4400      1300
    50.4600      1312
    50.4800      1356
    50.5000      1376
    50.5200      1374
    50.5400      1298
    50.5600      1396
    50.5800      1404
    50.6000      1512
    50.6200      1578
    50.6400      1642
    50.6600      1718
    50.6800      1816
    50.7000      1880
    50.7200      2020
    50.7400      2136
    50.7600      2192
    50.7800      2256
    50.8000      2298
    50.8200      2330
    50.8400      2310
    50.8600      2220
    50.8800      2174
    50.9000      2052
    50.9200      2030
    50.9400      1962
    50.9600      1852
    50.9800      1726
    51.0000      1634
    51.0200      1418
    51.0400      1396
    51.0600      1266
    51.0800      1274
    51.1000      1148
    51.1200      1152
    51.1400      1044
    51.1600      1024
    51.1800       988
    51.2000       982
    51.2200      1000
    51.2400      1056
    51.2600      1008
    51.2800       964
    51.3000       924
    51.3200       928
    51.3400       916
    51.3600       908
    51.3800       962
    51.4000       922
    51.4200       954
    51.4400       918
    51.4600       868
    51.4800       932
    51.5000       944
    51.5200       900
    51.5400      1006
    51.5600       974
    51.5800       932
    51.6000       996
    51.6200       976
    51.6400      1000
    51.6600      1092
    51.6800      1130
    51.7000      1214
    51.7200      1188
    51.7400      1314
    51.7600      1402
    51.7800      1460
    51.8000      1596
    51.8200      1710
    51.8400      1770
    51.8600      1910
    51.8800      2078
    51.9000      2040
    51.9200      2170
    51.9400      2266
    51.9600      2234
    51.9800      2236
    52.0000      2226
    52.0200      2042
    52.0400      1940
    52.0600      1858
    52.0800      1804
    52.1000      1666
    52.1200      1554
    52.1400      1470
    52.1600      1316
    52.1800      1280
    52.2000      1114
    52.2200      1038
    52.2400      1010
    52.2600       960
    52.2800       912
    52.3000       900
    52.3200       852
    52.3400       868
    52.3600       818
    52.3800       804
    52.4000       816
    52.4200       926
    52.4400       884
    52.4600       890
    52.4800      1016
    52.5000       940
    52.5200      1016
    52.5400      1064
    52.5600      1020
    52.5800      1104
    52.6000      1102
    52.6200      1130
    52.6400      1094
    52.6600      1084
    52.6800      1088
    52.7000      1106
    52.7200      1128
    52.7400      1094
    52.7600      1090
    52.7800      1106
    52.8000      1090
    52.8200      1062
    52.8400       966
    52.8600       954
    52.8800       970
    52.9000       924
    52.9200       882
    52.9400       904
    52.9600       860
    52.9800       816
    53.0000       790
    53.0200       812
    53.0400       766
    53.0600       832
    53.0800       776
    53.1000       804
    53.1200       850
    53.1400       942
    53.1600       956
    53.1800       934
    53.2000      1040
    53.2200      1096
    53.2400      1072
    53.2600      1148
    53.2800      1098
    53.3000      1050
    53.3200      1044
    53.3400       966
    53.3600       974
    53.3800       946
    53.4000       920
    53.4200       898
    53.4400       906
    53.4600       846
    53.4800       792
    53.5000       758
    53.5200       766
    53.5400       704
    53.5600       732
    53.5800       684
    53.6000       680
    53.6200       682
    53.6400       608
    53.6600       672
    53.6800       678
    53.7000       632
    53.7200       646
    53.7400       638
    53.7600       598
    53.7800       604
    53.8000       584
    53.8200       590
    53.8400       578
    53.8600       620
    53.8800       560
    53.9000       524
    53.9200       598
    53.9400       546
    53.9600       604
    53.9800       624
    54.0000       606
    54.0200       582
    54.0400       528
    54.0600       584
    54.0800       544
    54.1000       650
    54.1200       586
    54.1400       604
    54.1600       656
    54.1800       638
    54.2000       688
    54.2200       712
    54.2400       750
    54.2600       770
    54.2800       774
    54.3000       840
    54.3200       786
    54.3400       778
    54.3600       838
    54.3800       858
    54.4000       886
    54.4200       906
    54.4400       932
    54.4600       936
    54.4800       934
    54.5000       938
    54.5200       900
    54.5400       840
    54.5600       838
    54.5800       868
    54.6000       852
    54.6200       872
    54.6400       804
    54.6600       842
    54.6800       772
    54.7000       810
    54.7200       782
    54.7400       804
    54.7600       796
    54.7800       826
    54.8000       750
    54.8200       760
    54.8400       776
    54.8600       772
    54.8800       762
    54.9000       758
    54.9200       768
    54.9400       774
    54.9600       762
    54.9800       854
    55.0000       836
    55.0200       890
    55.0400       944
    55.0600       908
    55.0800       916
    55.1000       888
    55.1200       956
    55.1400      1032
    55.1600       966
    55.1800       998
    55.2000      1062
    55.2200      1006
    55.2400      1030
    55.2600       986
    55.2800       918
    55.3000      1010
    55.3200       908
    55.3400       984
    55.3600       870
    55.3800       824
    55.4000       802
    55.4200       750
    55.4400       762
    55.4600       708
    55.4800       688
    55.5000       662
    55.5200       634
    55.5400       624
    55.5600       604
    55.5800       580
    55.6000       560
    55.6200       548
    55.6400       450
    55.6600       500
    55.6800       458
    55.7000       406
    55.7200       442
    55.7400       402
    55.7600       426
    55.7800       414
    55.8000       418
    55.8200       386
    55.8400       388
    55.8600       374
    55.8800       344
    55.9000       374
    55.9200       336
    55.9400       336
    55.9600       340
    55.9800       366
    56.0000       400
    56.0200       362
    56.0400       360
    56.0600       396
    56.0800       392
    56.1000       384
    56.1200       402
    56.1400       390
    56.1600       382
    56.1800       392
    56.2000       356
    56.2200       392
    56.2400       402
    56.2600       394
    56.2800       414
    56.3000       408
    56.3200       408
    56.3400       392
    56.3600       416
    56.3800       420
    56.4000       408
    56.4200       440
    56.4400       478
    56.4600       430
    56.4800       472
    56.5000       490
    56.5200       516
    56.5400       552
    56.5600       502
    56.5800       550
    56.6000       554
    56.6200       598
    56.6400       636
    56.6600       632
    56.6800       668
    56.7000       728
    56.7200       694
    56.7400       808
    56.7600       722
    56.7800       710
    56.8000       720
    56.8200       754
    56.8400       664
    56.8600       702
    56.8800       650
    56.9000       676
    56.9200       636
    56.9400       612
    56.9600       590
    56.9800       592
    57.0000       614
    57.0200       606
    57.0400       600
    57.0600       560
    57.0800       596
    57.1000       630
    57.1200       606
    57.1400       636
    57.1600       652
    57.1800       626
    57.2000       696
    57.2200       734
    57.2400       800
    57.2600       792
    57.2800       874
    57.3000       870
    57.3200       900
    57.3400      1004
    57.3600       954
    57.3800       974
    57.4000       994
    57.4200      1022
    57.4400       978
    57.4600       922
    57.4800      1002
    57.5000       962
    57.5200       978
    57.5400       938
    57.5600      1028
    57.5800       950
    57.6000       946
    57.6200       948
    57.6400      1014
    57.6600       994
    57.6800      1022
    57.7000      1034
    57.7200       998
    57.7400      1014
    57.7600      1026
    57.7800       996
    57.8000       968
    57.8200       984
    57.8400       974
    57.8600       878
    57.8800       900
    57.9000       766
    57.9200       816
    57.9400       784
    57.9600       794
    57.9800       712
    58.0000       680
    58.0200       676
    58.0400       660
    58.0600       714
    58.0800       704
    58.1000       668
    58.1200       678
    58.1400       708
    58.1600       730
    58.1800       742
    58.2000       796
    58.2200       776
    58.2400       808
    58.2600       880
    58.2800       910
    58.3000       896
    58.3200       928
    58.3400       970
    58.3600      1024
    58.3800      1066
    58.4000      1126
    58.4200      1130
    58.4400      1280
    58.4600      1258
    58.4800      1302
    58.5000      1320
    58.5200      1392
    58.5400      1450
    58.5600      1520
    58.5800      1558
    58.6000      1630
    58.6200      1670
    58.6400      1690
    58.6600      1724
    58.6800      1724
    58.7000      1850
    58.7200      1896
    58.7400      1816
    58.7600      1878
    58.7800      1822
    58.8000      1772
    58.8200      1676
    58.8400      1662
    58.8600      1662
    58.8800      1566
    58.9000      1510
    58.9200      1430
    58.9400      1326
    58.9600      1282
    58.9800      1270
    59.0000      1186
    59.0200      1156
    59.0400      1070
    59.0600      1054
    59.0800      1038
    59.1000      1064
    59.1200      1116
    59.1400      1052
    59.1600      1078
    59.1800      1080
    59.2000      1140
    59.2200      1184
    59.2400      1174
    59.2600      1294
    59.2800      1326
    59.3000      1418
    59.3200      1490
    59.3400      1542
    59.3600      1578
    59.3800      1696
    59.4000      1712
    59.4200      1880
    59.4400      1856
    59.4600      1792
    59.4800      1912
    59.5000      1814
    59.5200      1740
    59.5400      1664
    59.5600      1788
    59.5800      1594
    59.6000      1636
    59.6200      1498
    59.6400      1610
    59.6600      1470
    59.6800      1436
    59.7000      1316
    59.7200      1250
    59.7400      1288
    59.7600      1154
    59.7800      1076
    59.8000      1058
    59.8200      1052
    59.8400      1036
    59.8600       996
    59.8800       954
    59.9000       952
    59.9200       882
    59.9400       890
    59.9600       824
    59.9800       776
    60.0000       766
    60.0200       768
    60.0400       766
    60.0600       734
    60.0800       688
    60.1000       616
    60.1200       670
    60.1400       658
    60.1600       618
    60.1800       538
    60.2000       596
    60.2200       574
    60.2400       554
    60.2600       496
    60.2800       518
    60.3000       488
    60.3200       510
    60.3400       512
    60.3600       518
    60.3800       468
    60.4000       460
    60.4200       470
    60.4400       464
    60.4600       448
    60.4800       410
    60.5000       492
    60.5200       490
    60.5400       456
    60.5600       472
    60.5800       436
    60.6000       458
    60.6200       458
    60.6400       436
    60.6600       452
    60.6800       502
    60.7000       498
    60.7200       460
    60.7400       450
    60.7600       470
    60.7800       454
    60.8000       502
    60.8200       506
    60.8400       486
    60.8600       502
    60.8800       516
    60.9000       566
    60.9200       536
    60.9400       560
    60.9600       560
    60.9800       570
    61.0000       634
    61.0200       672
    61.0400       708
    61.0600       686
    61.0800       698
    61.1000       718
    61.1200       752
    61.1400       774
    61.1600       844
    61.1800       850
    61.2000       816
    61.2200       820
    61.2400       890
    61.2600       922
    61.2800       954
    61.3000       972
    61.3200      1048
    61.3400      1084
    61.3600      1138
    61.3800      1202
    61.4000      1198
    61.4200      1248
    61.4400      1358
    61.4600      1402
    61.4800      1466
    61.5000      1494
    61.5200      1566
    61.5400      1644
    61.5600      1526
    61.5800      1580
    61.6000      1414
    61.6200      1428
    61.6400      1426
    61.6600      1306
    61.6800      1332
    61.7000      1268
    61.7200      1228
    61.7400      1200
    61.7600      1002
    61.7800      1028
    61.8000      1028
    61.8200       926
    61.8400       870
    61.8600       794
    61.8800       790
    61.9000       770
    61.9200       746
    61.9400       692
    61.9600       706
    61.9800       680
    62.0000       626
    62.0200       600
    62.0400       580
    62.0600       562
    62.0800       610
    62.1000       578
    62.1200       576
    62.1400       548
    62.1600       550
    62.1800       532
    62.2000       514
    62.2200       480
    62.2400       506
    62.2600       504
    62.2800       480
    62.3000       476
    62.3200       454
    62.3400       468
    62.3600       472
    62.3800       464
    62.4000       428
    62.4200       442
    62.4400       408
    62.4600       424
    62.4800       424
    62.5000       434
    62.5200       408
    62.5400       378
    62.5600       422
    62.5800       394
    62.6000       414
    62.6200       384
    62.6400       408
    62.6600       396
    62.6800       434
    62.7000       396
    62.7200       408
    62.7400       434
    62.7600       386
    62.7800       388
    62.8000       376
    62.8200       380
    62.8400       366
    62.8600       398
    62.8800       384
    62.9000       402
    62.9200       348
    62.9400       328
    62.9600       376
    62.9800       342
    63.0000       328
    63.0200       384
    63.0400       354
    63.0600       312
    63.0800       306
    63.1000       306
    63.1200       354
    63.1400       308
    63.1600       342
    63.1800       328
    63.2000       342
    63.2200       322
    63.2400       320
    63.2600       328
    63.2800       340
    63.3000       342
    63.3200       356
    63.3400       346
    63.3600       350
    63.3800       330
    63.4000       388
    63.4200       402
    63.4400       382
    63.4600       370
    63.4800       372
    63.5000       430
    63.5200       454
    63.5400       446
    63.5600       450
    63.5800       446
    63.6000       456
    63.6200       502
    63.6400       490
    63.6600       526
    63.6800       582
    63.7000       548
    63.7200       640
    63.7400       646
    63.7600       710
    63.7800       700
    63.8000       748
    63.8200       798
    63.8400       804
    63.8600       854
    63.8800       808
    63.9000       806
    63.9200       810
    63.9400       806
    63.9600       848
    63.9800       752
    64.0000       762
    64.0200       786
    64.0400       714
    64.0600       686
    64.0800       726
    64.1000       582
    64.1200       554
    64.1400       552
    64.1600       520
    64.1800       498
    64.2000       522
    64.2200       526
    64.2400       492
    64.2600       402
    64.2800       416
    64.3000       416
    64.3200       422
    64.3400       384
    64.3600       360
    64.3800       392
    64.4000       376
    64.4200       348
    64.4400       346
    64.4600       368
    64.4800       336
    64.5000       364
    64.5200       322
    64.5400       308
    64.5600       314
    64.5800       298
    64.6000       322
    64.6200       340
    64.6400       324
    64.6600       334
    64.6800       314
    64.7000       326
    64.7200       306
    64.7400       302
    64.7600       312
    64.7800       326
    64.8000       364
    64.8200       338
    64.8400       326
    64.8600       360
    64.8800       344
    64.9000       364
    64.9200       370
    64.9400       356
    64.9600       360
    64.9800       386
    65.0000       384
    65.0200       364
    65.0400       398
    65.0600       376
    65.0800       382
    65.1000       364
    65.1200       410
    65.1400       404
    65.1600       384
    65.1800       398
    65.2000       404
    65.2200       430
    65.2400       432
    65.2600       432
    65.2800       398
    65.3000       442
    65.3200       446
    65.3400       436
    65.3600       402
    65.3800       436
    65.4000       418
    65.4200       418
    65.4400       438
    65.4600       418
    65.4800       382
    65.5000       414
    65.5200       426
    65.5400       428
    65.5600       424
    65.5800       412
    65.6000       412
    65.6200       422
    65.6400       390
    65.6600       382
    65.6800       398
    65.7000       400
    65.7200       388
    65.7400       386
    65.7600       386
    65.7800       356
    65.8000       338
    65.8200       392
    65.8400       358
    65.8600       350
    65.8800       360
    65.9000       332
    65.9200       358
    65.9400       346
    65.9600       314
    65.9800       352
    66.0000       326
    66.0200       320
    66.0400       336
    66.0600       324
    66.0800       304
    66.1000       304
    66.1200       302
    66.1400       316
    66.1600       320
    66.1800       290
    66.2000       326
    66.2200       356
    66.2400       352
    66.2600       298
    66.2800       348
    66.3000       326
    66.3200       334
    66.3400       360
    66.3600       334
    66.3800       402
    66.4000       374
    66.4200       366
    66.4400       380
    66.4600       414
    66.4800       356
    66.5000       412
    66.5200       410
    66.5400       402
    66.5600       444
    66.5800       474
    66.6000       450
    66.6200       450
    66.6400       458
    66.6600       448
    66.6800       466
    66.7000       514
    66.7200       520
    66.7400       526
    66.7600       598
    66.7800       582
    66.8000       622
    66.8200       672
    66.8400       638
    66.8600       692
    66.8800       752
    66.9000       754
    66.9200       718
    66.9400       706
    66.9600       724
    66.9800       682
    67.0000       738
    67.0200       690
    67.0400       702
    67.0600       722
    67.0800       688
    67.1000       688
    67.1200       578
    67.1400       606
    67.1600       598
    67.1800       552
    67.2000       588
    67.2200       490
    67.2400       472
    67.2600       452
    67.2800       490
    67.3000       454
    67.3200       446
    67.3400       442
    67.3600       420
    67.3800       426
    67.4000       422
    67.4200       392
    67.4400       358
    67.4600       416
    67.4800       350
    67.5000       392
    67.5200       374
    67.5400       372
    67.5600       350
    67.5800       324
    67.6000       358
    67.6200       296
    67.6400       348
    67.6600       348
    67.6800       368
    67.7000       342
    67.7200       348
    67.7400       384
    67.7600       358
    67.7800       354
    67.8000       374
    67.8200       424
    67.8400       392
    67.8600       456
    67.8800       450
    67.9000       456
    67.9200       488
    67.9400       506
    67.9600       446
    67.9800       524
    68.0000       554
    68.0200       580
    68.0400       638
    68.0600       654
    68.0800       658
    68.1000       674
    68.1200       692
    68.1400       770
    68.1600       696
    68.1800       674
    68.2000       690
    68.2200       744
    68.2400       706
    68.2600       750
    68.2800       680
    68.3000       668
    68.3200       738
    68.3400       698
    68.3600       708
    68.3800       634
    68.4000       618
    68.4200       588
    68.4400       610
    68.4600       680
    68.4800       588
    68.5000       608
    68.5200       508
    68.5400       524
    68.5600       560
    68.5800       512
    68.6000       474
    68.6200       502
    68.6400       468
    68.6600       474
    68.6800       432
    68.7000       418
    68.7200       428
    68.7400       432
    68.7600       422
    68.7800       418
    68.8000       422
    68.8200       420
    68.8400       378
    68.8600       370
    68.8800       422
    68.9000       356
    68.9200       376
    68.9400       358
    68.9600       402
    68.9800       380
    69.0000       398
    69.0200       390
    69.0400       408
    69.0600       412
    69.0800       420
    69.1000       406
    69.1200       440
    69.1400       444
    69.1600       440
    69.1800       464
    69.2000       432
    69.2200       418
    69.2400       448
    69.2600       446
    69.2800       464
    69.3000       460
    69.3200       442
    69.3400       448
    69.3600       470
    69.3800       414
    69.4000       430
    69.4200       444
    69.4400       450
    69.4600       468
    69.4800       480
    69.5000       456
    69.5200       406
    69.5400       430
    69.5600       424
    69.5800       452
    69.6000       488
    69.6200       408
    69.6400       430
    69.6600       418
    69.6800       416
    69.7000       452
    69.7200       384
    69.7400       416
    69.7600       478
    69.7800       414
    69.8000       434
    69.8200       488
    69.8400       480
    69.8600       412
    69.8800       462
    69.9000       412
    69.9200       452
    69.9400       398
    69.9600       382
    69.9800       422
    70.0000       462
    70.0200       422
    70.0400       394
    70.0600       378
    70.0800       410
    70.1000       374
    70.1200       354
    70.1400       316
    70.1600       354
    70.1800       292
    70.2000       322
    70.2200       326
    70.2400       322
    70.2600       310
    70.2800       310
    70.3000       296
    70.3200       290
    70.3400       266
    70.3600       274
    70.3800       286
    70.4000       286
    70.4200       286
    70.4400       274
    70.4600       276
    70.4800       298
    70.5000       302
    70.5200       236
    70.5400       272
    70.5600       312
    70.5800       248
    70.6000       278
    70.6200       246
    70.6400       260
    70.6600       286
    70.6800       268
    70.7000       268
    70.7200       268
    70.7400       262
    70.7600       270
    70.7800       238
    70.8000       260
    70.8200       226
    70.8400       248
    70.8600       236
    70.8800       260
    70.9000       246
    70.9200       266
    70.9400       246
    70.9600       244
    70.9800       236
    71.0000       244
    71.0200       258
    71.0400       242
    71.0600       258
    71.0800       260
    71.1000       248
    71.1200       278
    71.1400       266
    71.1600       256
    71.1800       300
    71.2000       272
    71.2200       306
    71.2400       298
    71.2600       302
    71.2800       294
    71.3000       326
    71.3200       314
    71.3400       350
    71.3600       348
    71.3800       360
    71.4000       400
    71.4200       398
    71.4400       414
    71.4600       424
    71.4800       430
    71.5000       430
    71.5200       442
    71.5400       412
    71.5600       450
    71.5800       460
    71.6000       420
    71.6200       432
    71.6400       444
    71.6600       430
    71.6800       470
    71.7000       434
    71.7200       422
    71.7400       428
    71.7600       414
    71.7800       436
    71.8000       416
    71.8200       396
    71.8400       428
    71.8600       420
    71.8800       400
    71.9000       384
    71.9200       396
    71.9400       328
    71.9600       376
    71.9800       404
    72.0000       352
    72.0200       368
    72.0400       368
    72.0600       392
    72.0800       342
    72.1000       342
    72.1200       356
    72.1400       394
    72.1600       386
    72.1800       406
    72.2000       404
    72.2200       412
    72.2400       434
    72.2600       420
    72.2800       408
    72.3000       428
    72.3200       440
    72.3400       442
    72.3600       480
    72.3800       514
    72.4000       460
    72.4200       440
    72.4400       476
    72.4600       492
    72.4800       494
    72.5000       510
    72.5200       488
    72.5400       486
    72.5600       514
    72.5800       514
    72.6000       562
    72.6200       524
    72.6400       584
    72.6600       554
    72.6800       604
    72.7000       582
    72.7200       568
    72.7400       606
    72.7600       660
    72.7800       668
    72.8000       644
    72.8200       634
    72.8400       618
    72.8600       624
    72.8800       608
    72.9000       584
    72.9200       564
    72.9400       540
    72.9600       560
    72.9800       510
    73.0000       520
    73.0200       554
    73.0400       470
    73.0600       496
    73.0800       438
    73.1000       416
    73.1200       408
    73.1400       382
    73.1600       432
    73.1800       384
    73.2000       328
    73.2200       370
    73.2400       312
    73.2600       342
    73.2800       342
    73.3000       336
    73.3200       336
    73.3400       344
    73.3600       316
    73.3800       332
    73.4000       310
    73.4200       288
    73.4400       280
    73.4600       300
    73.4800       294
    73.5000       316
    73.5200       298
    73.5400       298
    73.5600       324
    73.5800       306
    73.6000       286
    73.6200       280
    73.6400       294
    73.6600       280
    73.6800       282
    73.7000       286
    73.7200       260
    73.7400       282
    73.7600       278
    73.7800       270
    73.8000       314
    73.8200       296
    73.8400       260
    73.8600       274
    73.8800       306
    73.9000       240
    73.9200       300
    73.9400       310
    73.9600       308
    73.9800       264
    74.0000       304
    74.0200       274
    74.0400       264
    74.0600       274
    74.0800       300
    74.1000       238
    74.1200       290
    74.1400       312
    74.1600       294
    74.1800       298
    74.2000       278
    74.2200       270
    74.2400       292
    74.2600       300
    74.2800       234
    74.3000       252
    74.3200       254
    74.3400       250
    74.3600       262
    74.3800       268
    74.4000       234
    74.4200       252
    74.4400       246
    74.4600       218
    74.4800       232
    74.5000       264
    74.5200       210
    74.5400       238
    74.5600       238
    74.5800       206
    74.6000       206
    74.6200       230
    74.6400       212
    74.6600       204
    74.6800       218
    74.7000       190
    74.7200       216
    74.7400       216
    74.7600       226
    74.7800       228
    74.8000       218
    74.8200       228
    74.8400       216
    74.8600       212
    74.8800       232
    74.9000       206
    74.9200       218
    74.9400       210
    74.9600       210
    74.9800       230
    75.0000       222
    75.0200       234
    75.0400       238
    75.0600       232
    75.0800       220
    75.1000       226
    75.1200       236
    75.1400       230
    75.1600       264
    75.1800       254
    75.2000       252
    75.2200       280
    75.2400       250
    75.2600       252
    75.2800       256
    75.3000       268
    75.3200       272
    75.3400       260
    75.3600       266
    75.3800       252
    75.4000       260
    75.4200       268
    75.4400       258
    75.4600       228
    75.4800       274
    75.5000       254
    75.5200       296
    75.5400       286
    75.5600       292
    75.5800       262
    75.6000       310
    75.6200       314
    75.6400       290
    75.6600       258
    75.6800       288
    75.7000       292
    75.7200       282
    75.7400       324
    75.7600       306
    75.7800       302
    75.8000       296
    75.8200       294
    75.8400       342
    75.8600       276
    75.8800       280
    75.9000       284
    75.9200       286
    75.9400       290
    75.9600       268
    75.9800       302
    76.0000       282
    76.0200       270
    76.0400       304
    76.0600       322
    76.0800       294
    76.1000       296
    76.1200       270
    76.1400       290
    76.1600       306
    76.1800       274
    76.2000       286
    76.2200       300
    76.2400       306
    76.2600       300
    76.2800       320
    76.3000       282
    76.3200       328
    76.3400       376
    76.3600       304
    76.3800       342
    76.4000       370
    76.4200       352
    76.4400       380
    76.4600       374
    76.4800       336
    76.5000       404
    76.5200       372
    76.5400       378
    76.5600       368
    76.5800       430
    76.6000       382
    76.6200       432
    76.6400       398
    76.6600       380
    76.6800       416
    76.7000       408
    76.7200       364
    76.7400       372
    76.7600       388
    76.7800       384
    76.8000       388
    76.8200       360
    76.8400       398
    76.8600       398
    76.8800       318
    76.9000       352
    76.9200       358
    76.9400       344
    76.9600       332
    76.9800       346
    77.0000       336
    77.0200       364
    77.0400       334
    77.0600       318
    77.0800       336
    77.1000       368
    77.1200       328
    77.1400       318
    77.1600       368
    77.1800       406
    77.2000       374
    77.2200       382
    77.2400       400
    77.2600       426
    77.2800       396
    77.3000       428
    77.3200       400
    77.3400       414
    77.3600       434
    77.3800       422
    77.4000       422
    77.4200       460
    77.4400       464
    77.4600       468
    77.4800       486
    77.5000       484
    77.5200       522
    77.5400       534
    77.5600       524
    77.5800       540
    77.6000       550
    77.6200       514
    77.6400       502
    77.6600       560
    77.6800       562
    77.7000       564
    77.7200       536
    77.7400       530
    77.7600       536
    77.7800       530
    77.8000       484
    77.8200       532
    77.8400       528
    77.8600       462
    77.8800       438
    77.9000       524
    77.9200       426
    77.9400       460
    77.9600       452
    77.9800       486
    78.0000       434
    78.0200       420
    78.0400       384
    78.0600       394
    78.0800       392
    78.1000       380
    78.1200       394
    78.1400       410
    78.1600       360
    78.1800       370
    78.2000       372
    78.2200       364
    78.2400       344
    78.2600       340
    78.2800       362
    78.3000       338
    78.3200       340
    78.3400       346
    78.3600       368
    78.3800       340
    78.4000       396
    78.4200       338
    78.4400       374
    78.4600       368
    78.4800       324
    78.5000       338
    78.5200       394
    78.5400       364
    78.5600       404
    78.5800       364
    78.6000       370
    78.6200       384
    78.6400       390
    78.6600       420
    78.6800       404
    78.7000       392
    78.7200       436
    78.7400       376
    78.7600       388
    78.7800       374
    78.8000       406
    78.8200       418
    78.8400       398
    78.8600       354
    78.8800       426
    78.9000       358
    78.9200       392
    78.9400       312
    78.9600       326
    78.9800       334
    79.0000       322
    79.0200       310
    79.0400       290
    79.0600       302
    79.0800       296
    79.1000       326
    79.1200       284
    79.1400       318
    79.1600       322
    79.1800       308
    79.2000       282
    79.2200       300
    79.2400       302
    79.2600       274
    79.2800       300
    79.3000       244
    79.3200       276
    79.3400       254
    79.3600       266
    79.3800       282
    79.4000       282
    79.4200       296
    79.4400       268
    79.4600       284
    79.4800       262
    79.5000       294
    79.5200       242
    79.5400       246
    79.5600       296
    79.5800       258
    79.6000       264
    79.6200       246
    79.6400       286
    79.6600       264
    79.6800       262
    79.7000       272
    79.7200       238
    79.7400       262
    79.7600       248
    79.7800       296
    79.8000       280
    79.8200       246
    79.8400       250
    79.8600       286
    79.8800       260
    79.9000       266
    79.9200       246
    79.9400       250
    79.9600       282
    79.9800       276
    80.0000       268
    80.0200       284
    80.0400       272
    80.0600       250
    80.0800       274
    80.1000       276
    80.1200       262
    80.1400       236
    80.1600       276
    80.1800       288
    80.2000       256
    80.2200       274
    80.2400       250
    80.2600       232
    80.2800       252
    80.3000       268
    80.3200       220
    80.3400       286
    80.3600       286
    80.3800       272
    80.4000       296
    80.4200       288
    80.4400       270
    80.4600       286
    80.4800       274
    80.5000       280
    80.5200       268
    80.5400       272
    80.5600       322
    80.5800       286
    80.6000       294
    80.6200       292
    80.6400       272
    80.6600       268
    80.6800       238
    80.7000       240
    80.7200       272
    80.7400       264
    80.7600       292
    80.7800       282
    80.8000       248
    80.8200       256
    80.8400       260
    80.8600       266
    80.8800       216
    80.9000       240
    80.9200       226
    80.9400       264
    80.9600       258
    80.9800       260
    81.0000       264
    81.0200       240
    81.0400       224
    81.0600       238
    81.0800       228
    81.1000       254
    81.1200       236
    81.1400       264
    81.1600       228
    81.1800       292
    81.2000       256
    81.2200       246
    81.2400       298
    81.2600       248
    81.2800       274
    81.3000       246
    81.3200       228
    81.3400       268
    81.3600       306
    81.3800       292
    81.4000       250
    81.4200       262
    81.4400       268
    81.4600       254
    81.4800       274
    81.5000       276
    81.5200       292
    81.5400       268
    81.5600       272
    81.5800       260
    81.6000       284
    81.6200       270
    81.6400       292
    81.6600       268
    81.6800       322
    81.7000       288
    81.7200       330
    81.7400       304
    81.7600       290
    81.7800       290
    81.8000       320
    81.8200       328
    81.8400       322
    81.8600       350
    81.8800       290
    81.9000       340
    81.9200       338
    81.9400       356
    81.9600       340
    81.9800       352
    82.0000       344
    82.0200       346
    82.0400       380
    82.0600       382
    82.0800       362
    82.1000       386
    82.1200       376
    82.1400       354
    82.1600       406
    82.1800       388
    82.2000       380
    82.2200       396
    82.2400       420
    82.2600       420
    82.2800       394
    82.3000       398
    82.3200       410
    82.3400       412
    82.3600       440
    82.3800       470
    82.4000       444
    82.4200       482
    82.4400       426
    82.4600       474
    82.4800       510
    82.5000       470
    82.5200       520
    82.5400       502
    82.5600       524
    82.5800       514
    82.6000       500
    82.6200       576
    82.6400       588
    82.6600       608
    82.6800       592
    82.7000       686
    82.7200       648
    82.7400       654
    82.7600       686
    82.7800       738
    82.8000       716
    82.8200       722
    82.8400       820
    82.8600       786
    82.8800       744
    82.9000       736
    82.9200       796
    82.9400       724
    82.9600       708
    82.9800       690
    83.0000       712
    83.0200       694
    83.0400       666
    83.0600       654
    83.0800       710
    83.1000       608
    83.1200       616
    83.1400       632
    83.1600       596
    83.1800       612
    83.2000       546
    83.2200       562
    83.2400       546
    83.2600       486
    83.2800       516
    83.3000       530
    83.3200       490
    83.3400       464
    83.3600       494
    83.3800       466
    83.4000       464
    83.4200       444
    83.4400       428
    83.4600       406
    83.4800       406
    83.5000       396
    83.5200       380
    83.5400       378
    83.5600       364
    83.5800       380
    83.6000       338
    83.6200       374
    83.6400       362
    83.6600       366
    83.6800       350
    83.7000       346
    83.7200       312
    83.7400       350
    83.7600       334
    83.7800       340
    83.8000       290
    83.8200       352
    83.8400       300
    83.8600       330
    83.8800       310
    83.9000       310
    83.9200       330
    83.9400       344
    83.9600       332
    83.9800       300
    84.0000       358
    84.0200       328
    84.0400       338
    84.0600       356
    84.0800       366
    84.1000       334
    84.1200       338
    84.1400       318
    84.1600       346
    84.1800       334
    84.2000       334
    84.2200       322
    84.2400       332
    84.2600       316
    84.2800       330
    84.3000       362
    84.3200       336
    84.3400       324
    84.3600       324
    84.3800       330
    84.4000       312
    84.4200       364
    84.4400       320
    84.4600       312
    84.4800       348
    84.5000       284
    84.5200       326
    84.5400       328
    84.5600       326
    84.5800       318
    84.6000       320
    84.6200       330
    84.6400       338
    84.6600       346
    84.6800       346
    84.7000       334
    84.7200       308
    84.7400       308
    84.7600       298
    84.7800       342
    84.8000       300
    84.8200       332
    84.8400       310
    84.8600       304
    84.8800       284
    84.9000       304
    84.9200       310
    84.9400       282
    84.9600       306
    84.9800       324
    85.0000       290
    85.0200       290
    85.0400       314
    85.0600       294
    85.0800       292
    85.1000       298
    85.1200       300
    85.1400       292
    85.1600       278
    85.1800       268
    85.2000       276
    85.2200       286
    85.2400       282
    85.2600       258
    85.2800       306
    85.3000       296
    85.3200       258
    85.3400       278
    85.3600       280
    85.3800       288
    85.4000       278
    85.4200       294
    85.4400       260
    85.4600       280
    85.4800       296
    85.5000       284
    85.5200       302
    85.5400       296
    85.5600       272
    85.5800       274
    85.6000       292
    85.6200       274
    85.6400       292
    85.6600       294
    85.6800       294
    85.7000       288
    85.7200       298
    85.7400       280
    85.7600       274
    85.7800       288
    85.8000       270
    85.8200       296
    85.8400       266
    85.8600       276
    85.8800       314
    85.9000       280
    85.9200       270
    85.9400       250
    85.9600       272
    85.9800       286
    86.0000       264
    86.0200       298
    86.0400       302
    86.0600       260
    86.0800       244
    86.1000       266
    86.1200       282
    86.1400       242
    86.1600       266
    86.1800       258
    86.2000       256
    86.2200       238
    86.2400       270
    86.2600       250
    86.2800       270
    86.3000       270
    86.3200       254
    86.3400       252
    86.3600       276
    86.3800       278
    86.4000       270
    86.4200       278
    86.4400       272
    86.4600       296
    86.4800       280
    86.5000       308
    86.5200       274
    86.5400       294
    86.5600       272
    86.5800       292
    86.6000       304
    86.6200       334
    86.6400       326
    86.6600       308
    86.6800       304
    86.7000       348
    86.7200       332
    86.7400       342
    86.7600       366
    86.7800       368
    86.8000       352
    86.8200       354
    86.8400       370
    86.8600       420
    86.8800       366
    86.9000       376
    86.9200       406
    86.9400       372
    86.9600       358
    86.9800       392
    87.0000       378
    87.0200       380
    87.0400       406
    87.0600       382
    87.0800       390
    87.1000       366
    87.1200       362
    87.1400       362
    87.1600       358
    87.1800       360
    87.2000       364
    87.2200       346
    87.2400       380
    87.2600       340
    87.2800       336
    87.3000       382
    87.3200       322
    87.3400       334
    87.3600       338
    87.3800       338
    87.4000       348
    87.4200       344
    87.4400       338
    87.4600       364
    87.4800       382
    87.5000       334
    87.5200       344
    87.5400       384
    87.5600       356
    87.5800       356
    87.6000       388
    87.6200       424
    87.6400       412
    87.6600       418
    87.6800       440
    87.7000       392
    87.7200       448
    87.7400       414
    87.7600       418
    87.7800       418
    87.8000       382
    87.8200       406
    87.8400       408
    87.8600       448
    87.8800       398
    87.9000       412
    87.9200       424
    87.9400       398
    87.9600       428
    87.9800       380
    88.0000       328
    88.0200       392
    88.0400       406
    88.0600       398
    88.0800       418
    88.1000       398
    88.1200       384
    88.1400       400
    88.1600       368
    88.1800       404
    88.2000       354
    88.2200       378
    88.2400       366
    88.2600       374
    88.2800       406
    88.3000       374
    88.3200       388
    88.3400       388
    88.3600       396
    88.3800       390
    88.4000       324
    88.4200       418
    88.4400       378
    88.4600       350
    88.4800       392
    88.5000       318
    88.5200       352
    88.5400       362
    88.5600       338
    88.5800       342
    88.6000       316
    88.6200       346
    88.6400       338
    88.6600       330
    88.6800       316
    88.7000       326
    88.7200       290
    88.7400       324
    88.7600       314
    88.7800       320
    88.8000       302
    88.8200       292
    88.8400       280
    88.8600       294
    88.8800       298
    88.9000       294
    88.9200       266
    88.9400       296
    88.9600       256
    88.9800       260
    89.0000       242
    89.0200       282
    89.0400       274
    89.0600       250
    89.0800       226
    89.1000       284
    89.1200       256
    89.1400       264
    89.1600       276
    89.1800       274
    89.2000       246
    89.2200       266
    89.2400       238
    89.2600       260
    89.2800       260
    89.3000       246
    89.3200       256
    89.3400       252
    89.3600       308
    89.3800       272
    89.4000       240
    89.4200       294
    89.4400       272
    89.4600       282
    89.4800       272
    89.5000       272
    89.5200       264
    89.5400       280
    89.5600       264
    89.5800       282
    89.6000       282
    89.6200       266
    89.6400       270
    89.6600       320
    89.6800       302
    89.7000       322
    89.7200       294
    89.7400       296
    89.7600       284
    89.7800       298
    89.8000       300
    89.8200       272
    89.8400       266
    89.8600       322
    89.8800       284
    89.9000       298
    89.9200       274
    89.9400       320
    89.9600       306
    89.9800       306
    90.0000       286
