    10.0000       382
    10.0200       368
    10.0400       384
    10.0600       380
    10.0800       330
    10.1000       366
    10.1200       358
    10.1400       380
    10.1600       374
    10.1800       334
    10.2000       348
    10.2200       354
    10.2400       374
    10.2600       336
    10.2800       356
    10.3000       316
    10.3200       380
    10.3400       340
    10.3600       344
    10.3800       354
    10.4000       364
    10.4200       326
    10.4400       358
    10.4600       360
    10.4800       368
    10.5000       370
    10.5200       348
    10.5400       340
    10.5600       356
    10.5800       314
    10.6000       364
    10.6200       338
    10.6400       326
    10.6600       372
    10.6800       332
    10.7000       338
    10.7200       362
    10.7400       344
    10.7600       334
    10.7800       322
    10.8000       316
    10.8200       346
    10.8400       350
    10.8600       310
    10.8800       326
    10.9000       318
    10.9200       330
    10.9400       336
    10.9600       326
    10.9800       360
    11.0000       336
    11.0200       320
    11.0400       352
    11.0600       334
    11.0800       302
    11.1000       300
    11.1200       334
    11.1400       330
    11.1600       390
    11.1800       378
    11.2000       324
    11.2200       330
    11.2400       316
    11.2600       300
    11.2800       358
    11.3000       320
    11.3200       300
    11.3400       294
    11.3600       350
    11.3800       332
    11.4000       378
    11.4200       316
    11.4400       324
    11.4600       344
    11.4800       324
    11.5000       318
    11.5200       314
    11.5400       294
    11.5600       332
    11.5800       312
    11.6000       330
    11.6200       298
    11.6400       296
    11.6600       310
    11.6800       342
    11.7000       308
    11.7200       312
    11.7400       338
    11.7600       342
    11.7800       296
    11.8000       322
    11.8200       290
    11.8400       316
    11.8600       340
    11.8800       298
    11.9000       300
    11.9200       304
    11.9400       312
    11.9600       296
    11.9800       302
    12.0000       296
    12.0200       304
    12.0400       302
    12.0600       320
    12.0800       318
    12.1000       278
    12.1200       352
    12.1400       282
    12.1600       286
    12.1800       314
    12.2000       286
    12.2200       304
    12.2400       276
    12.2600       300
    12.2800       292
    12.3000       308
    12.3200       284
    12.3400       310
    12.3600       270
    12.3800       312
    12.4000       340
    12.4200       302
    12.4400       288
    12.4600       328
    12.4800       310
    12.5000       278
    12.5200       296
    12.5400       250
    12.5600       334
    12.5800       308
    12.6000       294
    12.6200       304
    12.6400       280
    12.6600       266
    12.6800       304
    12.7000       288
    12.7200       306
    12.7400       274
    12.7600       290
    12.7800       276
    12.8000       284
    12.8200       330
    12.8400       292
    12.8600       292
    12.8800       260
    12.9000       266
    12.9200       274
    12.9400       272
    12.9600       310
    12.9800       274
    13.0000       268
    13.0200       290
    13.0400       268
    13.0600       266
    13.0800       282
    13.1000       270
    13.1200       310
    13.1400       258
    13.1600       294
    13.1800       282
    13.2000       274
    13.2200       272
    13.2400       278
    13.2600       274
    13.2800       268
    13.3000       276
    13.3200       270
    13.3400       268
    13.3600       290
    13.3800       240
    13.4000       268
    13.4200       262
    13.4400       284
    13.4600       252
    13.4800       268
    13.5000       270
    13.5200       270
    13.5400       272
    13.5600       268
    13.5800       298
    13.6000       292
    13.6200       282
    13.6400       258
    13.6600       266
    13.6800       274
    13.7000       264
    13.7200       270
    13.7400       264
    13.7600       252
    13.7800       254
    13.8000       274
    13.8200       276
    13.8400       260
    13.8600       242
    13.8800       244
    13.9000       250
    13.9200       256
    13.9400       272
    13.9600       246
    13.9800       280
    14.0000       244
    14.0200       252
    14.0400       282
    14.0600       244
    14.0800       258
    14.1000       254
    14.1200       260
    14.1400       290
    14.1600       252
    14.1800       262
    14.2000       268
    14.2200       222
    14.2400       236
    14.2600       248
    14.2800       248
    14.3000       270
    14.3200       232
    14.3400       250
    14.3600       270
    14.3800       272
    14.4000       244
    14.4200       280
    14.4400       242
    14.4600       262
    14.4800       268
    14.5000       246
    14.5200       256
    14.5400       258
    14.5600       300
    14.5800       266
    14.6000       232
    14.6200       248
    14.6400       224
    14.6600       244
    14.6800       242
    14.7000       256
    14.7200       284
    14.7400       278
    14.7600       244
    14.7800       246
    14.8000       260
    14.8200       280
    14.8400       248
    14.8600       246
    14.8800       262
    14.9000       238
    14.9200       276
    14.9400       264
    14.9600       284
    14.9800       256
    15.0000       276
    15.0200       274
    15.0400       258
    15.0600       256
    15.0800       298
    15.1000       240
    15.1200       264
    15.1400       270
    15.1600       264
    15.1800       246
    15.2000       260
    15.2200       266
    15.2400       258
    15.2600       268
    15.2800       256
    15.3000       276
    15.3200       288
    15.3400       288
    15.3600       284
    15.3800       322
    15.4000       316
    15.4200       344
    15.4400       320
    15.4600       324
    15.4800       338
    15.5000       358
    15.5200       380
    15.5400       394
    15.5600       422
    15.5800       400
    15.6000       374
    15.6200       376
    15.6400       352
    15.6600       338
    15.6800       314
    15.7000       324
    15.7200       280
    15.7400       246
    15.7600       280
    15.7800       278
    15.8000       298
    15.8200       250
    15.8400       256
    15.8600       268
    15.8800       298
    15.9000       232
    15.9200       264
    15.9400       276
    15.9600       242
    15.9800       252
    16.0000       246
    16.0200       270
    16.0400       274
    16.0600       260
    16.0800       244
    16.1000       266
    16.1200       256
    16.1400       234
    16.1600       268
    16.1800       250
    16.2000       228
    16.2200       232
    16.2400       306
    16.2600       232
    16.2800       252
    16.3000       220
    16.3200       238
    16.3400       252
    16.3600       214
    16.3800       254
    16.4000       238
    16.4200       222
    16.4400       234
    16.4600       236
    16.4800       222
    16.5000       250
    16.5200       204
    16.5400       216
    16.5600       262
    16.5800       234
    16.6000       238
    16.6200       230
    16.6400       244
    16.6600       240
    16.6800       240
    16.7000       264
    16.7200       226
    16.7400       216
    16.7600       256
    16.7800       208
    16.8000       210
    16.8200       228
    16.8400       224
    16.8600       210
    16.8800       216
    16.9000       236
    16.9200       218
    16.9400       206
    16.9600       232
    16.9800       230
    17.0000       224
    17.0200       242
    17.0400       212
    17.0600       234
    17.0800       230
    17.1000       232
    17.1200       234
    17.1400       222
    17.1600       216
    17.1800       210
    17.2000       188
    17.2200       264
    17.2400       244
    17.2600       212
    17.2800       220
    17.3000       200
    17.3200       232
    17.3400       214
    17.3600       238
    17.3800       234
    17.4000       206
    17.4200       254
    17.4400       222
    17.4600       212
    17.4800       186
    17.5000       220
    17.5200       204
    17.5400       188
    17.5600       194
    17.5800       212
    17.6000       224
    17.6200       202
    17.6400       186
    17.6600       226
    17.6800       210
    17.7000       194
    17.7200       214
    17.7400       230
    17.7600       192
    17.7800       206
    17.8000       234
    17.8200       214
    17.8400       226
    17.8600       214
    17.8800       210
    17.9000       198
    17.9200       230
    17.9400       214
    17.9600       182
    17.9800       250
    18.0000       216
    18.0200       214
    18.0400       210
    18.0600       228
    18.0800       200
    18.1000       206
    18.1200       204
    18.1400       194
    18.1600       228
    18.1800       210
    18.2000       226
    18.2200       238
    18.2400       238
    18.2600       238
    18.2800       256
    18.3000       228
    18.3200       232
    18.3400       232
    18.3600       240
    18.3800       236
    18.4000       218
    18.4200       266
    18.4400       226
    18.4600       250
    18.4800       236
    18.5000       268
    18.5200       244
    18.5400       258
    18.5600       254
    18.5800       270
    18.6000       306
    18.6200       296
    18.6400       278
    18.6600       292
    18.6800       280
    18.7000       314
    18.7200       338
    18.7400       358
    18.7600       386
    18.7800       392
    18.8000       382
    18.8200       376
    18.8400       394
    18.8600       428
    18.8800       456
    18.9000       434
    18.9200       456
    18.9400       436
    18.9600       484
    18.9800       496
    19.0000       448
    19.0200       458
    19.0400       464
    19.0600       436
    19.0800       416
    19.1000       482
    19.1200       470
    19.1400       478
    19.1600       486
    19.1800       528
    19.2000       582
    19.2200       626
    19.2400       674
    19.2600       756
    19.2800       864
    19.3000       950
    19.3200      1114
    19.3400      1170
    19.3600      1358
    19.3800      1540
    19.4000      1818
    19.4200      2104
    19.4400      2402
    19.4600      2658
    19.4800      3146
    19.5000      3460
    19.5200      3760
    19.5400      3880
    19.5600      3768
    19.5800      3448
    19.6000      3020
    19.6200      2518
    19.6400      2022
    19.6600      1652
    19.6800      1440
    19.7000      1302
    19.7200      1176
    19.7400      1182
    19.7600      1268
    19.7800      1322
    19.8000      1318
    19.8200      1582
    19.8400      1650
    19.8600      1848
    19.8800      2066
    19.9000      2268
    19.9200      2594
    19.9400      2724
    19.9600      2956
    19.9800      3056
    20.0000      2912
    20.0200      2708
    20.0400      2394
    20.0600      2054
    20.0800      1618
    20.1000      1328
    20.1200      1060
    20.1400       914
    20.1600       686
    20.1800       678
    20.2000       566
    20.2200       528
    20.2400       482
    20.2600       422
    20.2800       406
    20.3000       408
    20.3200       392
    20.3400       372
    20.3600       296
    20.3800       308
    20.4000       310
    20.4200       300
    20.4400       300
    20.4600       290
    20.4800       242
    20.5000       268
    20.5200       262
    20.5400       256
    20.5600       258
    20.5800       258
    20.6000       276
    20.6200       266
    20.6400       252
    20.6600       232
    20.6800       254
    20.7000       260
    20.7200       264
    20.7400       212
    20.7600       252
    20.7800       266
    20.8000       246
    20.8200       234
    20.8400       258
    20.8600       246
    20.8800       248
    20.9000       242
    20.9200       244
    20.9400       262
    20.9600       250
    20.9800       264
    21.0000       230
    21.0200       242
    21.0400       230
    21.0600       256
    21.0800       252
    21.1000       252
    21.1200       210
    21.1400       230
    21.1600       258
    21.1800       244
    21.2000       202
    21.2200       200
    21.2400       222
    21.2600       244
    21.2800       222
    21.3000       210
    21.3200       234
    21.3400       210
    21.3600       228
    21.3800       188
    21.4000       232
    21.4200       212
    21.4400       198
    21.4600       194
    21.4800       214
    21.5000       178
    21.5200       198
    21.5400       214
    21.5600       204
    21.5800       224
    21.6000       226
    21.6200       204
    21.6400       180
    21.6600       234
    21.6800       228
    21.7000       230
    21.7200       246
    21.7400       234
    21.7600       216
    21.7800       238
    21.8000       260
    21.8200       264
    21.8400       268
    21.8600       270
    21.8800       256
    21.9000       252
    21.9200       268
    21.9400       252
    21.9600       286
    21.9800       278
    22.0000       226
    22.0200       254
    22.0400       264
    22.0600       200
    22.0800       252
    22.1000       226
    22.1200       230
    22.1400       250
    22.1600       226
    22.1800       260
    22.2000       268
    22.2200       252
    22.2400       260
    22.2600       270
    22.2800       260
    22.3000       300
    22.3200       326
    22.3400       304
    22.3600       334
    22.3800       334
    22.4000       360
    22.4200       418
    22.4400       436
    22.4600       466
    22.4800       518
    22.5000       582
    22.5200       680
    22.5400       648
    22.5600       798
    22.5800       890
    22.6000       976
    22.6200      1116
    22.6400      1336
    22.6600      1594
    22.6800      1708
    22.7000      2034
    22.7200      2380
    22.7400      2916
    22.7600      3304
    22.7800      3866
    22.8000      4404
    22.8200      4856
    22.8400      5048
    22.8600      5390
    22.8800      5140
    22.9000      4690
    22.9200      4046
    22.9400      3384
    22.9600      2748
    22.9800      2158
    23.0000      1704
    23.0200      1374
    23.0400      1096
    23.0600      1000
    23.0800       842
    23.1000       750
    23.1200       700
    23.1400       628
    23.1600       562
    23.1800       524
    23.2000       508
    23.2200       452
    23.2400       444
    23.2600       404
    23.2800       360
    23.3000       370
    23.3200       342
    23.3400       332
    23.3600       306
    23.3800       334
    23.4000       268
    23.4200       258
    23.4400       278
    23.4600       252
    23.4800       272
    23.5000       220
    23.5200       232
    23.5400       242
    23.5600       242
    23.5800       224
    23.6000       244
    23.6200       228
    23.6400       254
    23.6600       222
    23.6800       242
    23.7000       230
    23.7200       256
    23.7400       228
    23.7600       228
    23.7800       242
    23.8000       226
    23.8200       218
    23.8400       230
    23.8600       248
    23.8800       224
    23.9000       246
    23.9200       194
    23.9400       232
    23.9600       206
    23.9800       208
    24.0000       236
    24.0200       230
    24.0400       232
    24.0600       224
    24.0800       182
    24.1000       242
    24.1200       238
    24.1400       244
    24.1600       226
    24.1800       218
    24.2000       236
    24.2200       240
    24.2400       198
    24.2600       214
    24.2800       192
    24.3000       194
    24.3200       224
    24.3400       204
    24.3600       210
    24.3800       212
    24.4000       196
    24.4200       216
    24.4400       228
    24.4600       170
    24.4800       240
    24.5000       210
    24.5200       208
    24.5400       188
    24.5600       232
    24.5800       198
    24.6000       210
    24.6200       242
    24.6400       210
    24.6600       210
    24.6800       204
    24.7000       202
    24.7200       216
    24.7400       214
    24.7600       226
    24.7800       208
    24.8000       224
    24.8200       196
    24.8400       218
    24.8600       226
    24.8800       210
    24.9000       232
    24.9200       206
    24.9400       232
    24.9600       224
    24.9800       196
    25.0000       242
    25.0200       202
    25.0400       204
    25.0600       226
    25.0800       220
    25.1000       218
    25.1200       222
    25.1400       220
    25.1600       240
    25.1800       254
    25.2000       262
    25.2200       272
    25.2400       288
    25.2600       312
    25.2800       314
    25.3000       336
    25.3200       370
    25.3400       384
    25.3600       410
    25.3800       454
    25.4000       540
    25.4200       556
    25.4400       584
    25.4600       648
    25.4800       778
    25.5000       844
    25.5200       958
    25.5400      1020
    25.5600      1138
    25.5800      1126
    25.6000      1142
    25.6200      1134
    25.6400      1062
    25.6600      1014
    25.6800       890
    25.7000       748
    25.7200       642
    25.7400       588
    25.7600       482
    25.7800       374
    25.8000       366
    25.8200       360
    25.8400       320
    25.8600       332
    25.8800       286
    25.9000       292
    25.9200       254
    25.9400       278
    25.9600       252
    25.9800       266
    26.0000       240
    26.0200       244
    26.0400       212
    26.0600       230
    26.0800       240
    26.1000       214
    26.1200       216
    26.1400       250
    26.1600       250
    26.1800       252
    26.2000       270
    26.2200       244
    26.2400       210
    26.2600       244
    26.2800       230
    26.3000       222
    26.3200       224
    26.3400       236
    26.3600       218
    26.3800       224
    26.4000       202
    26.4200       216
    26.4400       220
    26.4600       200
    26.4800       214
    26.5000       210
    26.5200       212
    26.5400       226
    26.5600       218
    26.5800       210
    26.6000       218
    26.6200       220
    26.6400       234
    26.6600       216
    26.6800       190
    26.7000       234
    26.7200       212
    26.7400       226
    26.7600       204
    26.7800       230
    26.8000       220
    26.8200       208
    26.8400       200
    26.8600       176
    26.8800       224
    26.9000       202
    26.9200       202
    26.9400       182
    26.9600       206
    26.9800       208
    27.0000       214
    27.0200       214
    27.0400       210
    27.0600       196
    27.0800       234
    27.1000       210
    27.1200       236
    27.1400       190
    27.1600       226
    27.1800       210
    27.2000       224
    27.2200       208
    27.2400       184
    27.2600       210
    27.2800       226
    27.3000       224
    27.3200       214
    27.3400       210
    27.3600       218
    27.3800       226
    27.4000       222
    27.4200       242
    27.4400       246
    27.4600       210
    27.4800       234
    27.5000       226
    27.5200       214
    27.5400       220
    27.5600       214
    27.5800       226
    27.6000       218
    27.6200       244
    27.6400       258
    27.6600       266
    27.6800       254
    27.7000       272
    27.7200       272
    27.7400       262
    27.7600       290
    27.7800       292
    27.8000       364
    27.8200       370
    27.8400       406
    27.8600       424
    27.8800       438
    27.9000       486
    27.9200       494
    27.9400       580
    27.9600       614
    27.9800       664
    28.0000       796
    28.0200       878
    28.0400      1010
    28.0600      1066
    28.0800      1372
    28.1000      1606
    28.1200      1882
    28.1400      2206
    28.1600      2542
    28.1800      2952
    28.2000      3352
    28.2200      3786
    28.2400      3902
    28.2600      4026
    28.2800      3974
    28.3000      3690
    28.3200      3412
    28.3400      2970
    28.3600      2488
    28.3800      2108
    28.4000      1660
    28.4200      1340
    28.4400      1088
    28.4600       972
    28.4800       814
    28.5000       662
    28.5200       610
    28.5400       536
    28.5600       514
    28.5800       446
    28.6000       418
    28.6200       404
    28.6400       318
    28.6600       320
    28.6800       340
    28.7000       272
    28.7200       264
    28.7400       288
    28.7600       280
    28.7800       242
    28.8000       246
    28.8200       248
    28.8400       276
    28.8600       220
    28.8800       226
    28.9000       210
    28.9200       240
    28.9400       202
    28.9600       230
    28.9800       224
    29.0000       210
    29.0200       208
    29.0400       200
    29.0600       202
    29.0800       218
    29.1000       222
    29.1200       212
    29.1400       218
    29.1600       182
    29.1800       222
    29.2000       204
    29.2200       218
    29.2400       216
    29.2600       200
    29.2800       218
    29.3000       198
    29.3200       208
    29.3400       218
    29.3600       206
    29.3800       210
    29.4000       198
    29.4200       210
    29.4400       202
    29.4600       214
    29.4800       200
    29.5000       202
    29.5200       228
    29.5400       202
    29.5600       180
    29.5800       228
    29.6000       204
    29.6200       216
    29.6400       204
    29.6600       232
    29.6800       204
    29.7000       220
    29.7200       200
    29.7400       232
    29.7600       214
    29.7800       216
    29.8000       198
    29.8200       194
    29.8400       202
    29.8600       216
    29.8800       224
    29.9000       198
    29.9200       240
    29.9400       208
    29.9600       186
    29.9800       230
    30.0000       198
    30.0200       194
    30.0400       232
    30.0600       246
    30.0800       228
    30.1000       216
    30.1200       222
    30.1400       236
    30.1600       254
    30.1800       240
    30.2000       218
    30.2200       216
    30.2400       258
    30.2600       212
    30.2800       244
    30.3000       218
    30.3200       262
    30.3400       232
    30.3600       244
    30.3800       228
    30.4000       244
    30.4200       258
    30.4400       274
    30.4600       244
    30.4800       268
    30.5000       278
    30.5200       286
    30.5400       268
    30.5600       294
    30.5800       298
    30.6000       300
    30.6200       298
    30.6400       276
    30.6600       290
    30.6800       312
    30.7000       310
    30.7200       316
    30.7400       322
    30.7600       358
    30.7800       354
    30.8000       354
    30.8200       374
    30.8400       402
    30.8600       464
    30.8800       438
    30.9000       448
    30.9200       488
    30.9400       540
    30.9600       586
    30.9800       602
    31.0000       662
    31.0200       678
    31.0400       878
    31.0600       790
    31.0800       942
    31.1000       950
    31.1200       978
    31.1400      1080
    31.1600      1072
    31.1800      1084
    31.2000      1114
    31.2200      1086
    31.2400      1104
    31.2600       992
    31.2800      1036
    31.3000       940
    31.3200       882
    31.3400       878
    31.3600       798
    31.3800       722
    31.4000       680
    31.4200       706
    31.4400       650
    31.4600       608
    31.4800       632
    31.5000       620
    31.5200       592
    31.5400       628
    31.5600       600
    31.5800       572
    31.6000       600
    31.6200       642
    31.6400       686
    31.6600       732
    31.6800       740
    31.7000       780
    31.7200       858
    31.7400       898
    31.7600      1020
    31.7800      1116
    31.8000      1220
    31.8200      1428
    31.8400      1612
    31.8600      1748
    31.8800      1992
    31.9000      2314
    31.9200      2582
    31.9400      2848
    31.9600      2928
    31.9800      3194
    32.0000      3178
    32.0200      3118
    32.0400      2936
    32.0600      2764
    32.0800      2382
    32.1000      2198
    32.1200      2082
    32.1400      1948
    32.1600      1682
    32.1800      1702
    32.2000      1714
    32.2200      1684
    32.2400      1724
    32.2600      1986
    32.2800      2012
    32.3000      2312
    32.3200      2546
    32.3400      2884
    32.3600      3388
    32.3800      3682
    32.4000      4416
    32.4200      5096
    32.4400      5896
    32.4600      6828
    32.4800      7492
    32.5000      8314
    32.5200      8858
    32.5400      9212
    32.5600      9104
    32.5800      8808
    32.6000      8284
    32.6200      7414
    32.6400      6944
    32.6600      5822
    32.6800      4824
    32.7000      4264
    32.7200      3494
    32.7400      3072
    32.7600      2446
    32.7800      2174
    32.8000      1982
    32.8200      1760
    32.8400      1652
    32.8600      1584
    32.8800      1494
    32.9000      1478
    32.9200      1422
    32.9400      1448
    32.9600      1522
    32.9800      1514
    33.0000      1656
    33.0200      1702
    33.0400      1816
    33.0600      1970
    33.0800      2004
    33.1000      1986
    33.1200      1998
    33.1400      1804
    33.1600      1670
    33.1800      1512
    33.2000      1446
    33.2200      1192
    33.2400      1126
    33.2600       906
    33.2800       794
    33.3000       734
    33.3200       694
    33.3400       620
    33.3600       522
    33.3800       512
    33.4000       466
    33.4200       434
    33.4400       398
    33.4600       382
    33.4800       380
    33.5000       342
    33.5200       384
    33.5400       334
    33.5600       356
    33.5800       308
    33.6000       282
    33.6200       268
    33.6400       272
    33.6600       296
    33.6800       262
    33.7000       270
    33.7200       260
    33.7400       296
    33.7600       294
    33.7800       242
    33.8000       248
    33.8200       284
    33.8400       248
    33.8600       280
    33.8800       274
    33.9000       282
    33.9200       246
    33.9400       268
    33.9600       282
    33.9800       278
    34.0000       278
    34.0200       304
    34.0400       282
    34.0600       256
    34.0800       324
    34.1000       316
    34.1200       278
    34.1400       268
    34.1600       296
    34.1800       276
    34.2000       308
    34.2200       308
    34.2400       346
    34.2600       308
    34.2800       334
    34.3000       342
    34.3200       316
    34.3400       308
    34.3600       338
    34.3800       292
    34.4000       316
    34.4200       348
    34.4400       318
    34.4600       300
    34.4800       302
    34.5000       258
    34.5200       292
    34.5400       318
    34.5600       340
    34.5800       298
    34.6000       304
    34.6200       284
    34.6400       292
    34.6600       294
    34.6800       310
    34.7000       280
    34.7200       284
    34.7400       286
    34.7600       256
    34.7800       316
    34.8000       314
    34.8200       256
    34.8400       286
    34.8600       300
    34.8800       274
    34.9000       248
    34.9200       264
    34.9400       290
    34.9600       264
    34.9800       270
    35.0000       286
    35.0200       272
    35.0400       290
    35.0600       314
    35.0800       252
    35.1000       280
    35.1200       240
    35.1400       270
    35.1600       268
    35.1800       260
    35.2000       280
    35.2200       262
    35.2400       288
    35.2600       284
    35.2800       276
    35.3000       294
    35.3200       286
    35.3400       298
    35.3600       302
    35.3800       314
    35.4000       282
    35.4200       300
    35.4400       314
    35.4600       302
    35.4800       370
    35.5000       320
    35.5200       364
    35.5400       392
    35.5600       360
    35.5800       372
    35.6000       340
    35.6200       396
    35.6400       406
    35.6600       440
    35.6800       470
    35.7000       512
    35.7200       468
    35.7400       490
    35.7600       500
    35.7800       444
    35.8000       476
    35.8200       448
    35.8400       462
    35.8600       454
    35.8800       442
    35.9000       500
    35.9200       492
    35.9400       440
    35.9600       520
    35.9800       522
    36.0000       534
    36.0200       622
    36.0400       662
    36.0600       632
    36.0800       724
    36.1000       814
    36.1200       796
    36.1400       852
    36.1600       800
    36.1800       790
    36.2000       692
    36.2200       700
    36.2400       636
    36.2600       602
    36.2800       600
    36.3000       556
    36.3200       508
    36.3400       494
    36.3600       442
    36.3800       486
    36.4000       482
    36.4200       488
    36.4400       464
    36.4600       480
    36.4800       494
    36.5000       498
    36.5200       518
    36.5400       546
    36.5600       538
    36.5800       586
    36.6000       604
    36.6200       680
    36.6400       722
    36.6600       796
    36.6800       836
    36.7000       950
    36.7200      1070
    36.7400      1174
    36.7600      1296
    36.7800      1532
    36.8000      1600
    36.8200      1844
    36.8400      2072
    36.8600      2258
    36.8800      2270
    36.9000      2290
    36.9200      2266
    36.9400      2106
    36.9600      2018
    36.9800      1772
    37.0000      1604
    37.0200      1570
    37.0400      1322
    37.0600      1212
    37.0800      1080
    37.1000       974
    37.1200       908
    37.1400       846
    37.1600       810
    37.1800       742
    37.2000       732
    37.2200       696
    37.2400       638
    37.2600       648
    37.2800       640
    37.3000       592
    37.3200       570
    37.3400       582
    37.3600       578
    37.3800       538
    37.4000       544
    37.4200       542
    37.4400       502
    37.4600       492
    37.4800       454
    37.5000       522
    37.5200       518
    37.5400       536
    37.5600       488
    37.5800       568
    37.6000       482
    37.6200       512
    37.6400       538
    37.6600       640
    37.6800       572
    37.7000       588
    37.7200       670
    37.7400       702
    37.7600       748
    37.7800       814
    37.8000       874
    37.8200       966
    37.8400      1098
    37.8600      1224
    37.8800      1364
    37.9000      1534
    37.9200      1692
    37.9400      1824
    37.9600      2076
    37.9800      2200
    38.0000      2278
    38.0200      2414
    38.0400      2414
    38.0600      2362
    38.0800      2330
    38.1000      2168
    38.1200      2136
    38.1400      2030
    38.1600      2072
    38.1800      1940
    38.2000      1888
    38.2200      2030
    38.2400      2012
    38.2600      2184
    38.2800      2332
    38.3000      2366
    38.3200      2788
    38.3400      2880
    38.3600      3340
    38.3800      3700
    38.4000      4108
    38.4200      4204
    38.4400      4676
    38.4600      4888
    38.4800      5048
    38.5000      5094
    38.5200      5082
    38.5400      5098
    38.5600      4740
    38.5800      4726
    38.6000      4522
    38.6200      4436
    38.6400      4372
    38.6600      4272
    38.6800      4108
    38.7000      4180
    38.7200      3948
    38.7400      3940
    38.7600      3716
    38.7800      3532
    38.8000      3346
    38.8200      3036
    38.8400      2694
    38.8600      2450
    38.8800      2162
    38.9000      1934
    38.9200      1670
    38.9400      1502
    38.9600      1330
    38.9800      1164
    39.0000      1090
    39.0200       938
    39.0400       928
    39.0600       918
    39.0800       898
    39.1000       790
    39.1200       726
    39.1400       748
    39.1600       706
    39.1800       676
    39.2000       650
    39.2200       638
    39.2400       636
    39.2600       652
    39.2800       672
    39.3000       694
    39.3200       696
    39.3400       702
    39.3600       734
    39.3800       736
    39.4000       822
    39.4200       838
    39.4400       930
    39.4600       958
    39.4800      1004
    39.5000      1164
    39.5200      1272
    39.5400      1424
    39.5600      1598
    39.5800      1794
    39.6000      1990
    39.6200      2178
    39.6400      2372
    39.6600      2556
    39.6800      2664
    39.7000      2524
    39.7200      2562
    39.7400      2440
    39.7600      2202
    39.7800      1998
    39.8000      1884
    39.8200      1696
    39.8400      1504
    39.8600      1344
    39.8800      1092
    39.9000       994
    39.9200       904
    39.9400       780
    39.9600       740
    39.9800       738
    40.0000       648
    40.0200       624
    40.0400       590
    40.0600       582
    40.0800       580
    40.1000       540
    40.1200       536
    40.1400       504
    40.1600       552
    40.1800       492
    40.2000       502
    40.2200       536
    40.2400       544
    40.2600       594
    40.2800       556
    40.3000       608
    40.3200       618
    40.3400       646
    40.3600       692
    40.3800       776
    40.4000       860
    40.4200       842
    40.4400       976
    40.4600      1046
    40.4800      1116
    40.5000      1188
    40.5200      1306
    40.5400      1370
    40.5600      1396
    40.5800      1432
    40.6000      1430
    40.6200      1452
    40.6400      1424
    40.6600      1360
    40.6800      1276
    40.7000      1180
    40.7200      1080
    40.7400       992
    40.7600       944
    40.7800       830
    40.8000       764
    40.8200       752
    40.8400       674
    40.8600       604
    40.8800       558
    40.9000       486
    40.9200       466
    40.9400       476
    40.9600       468
    40.9800       446
    41.0000       400
    41.0200       404
    41.0400       424
    41.0600       350
    41.0800       374
    41.1000       354
    41.1200       372
    41.1400       358
    41.1600       368
    41.1800       350
    41.2000       342
    41.2200       350
    41.2400       362
    41.2600       370
    41.2800       404
    41.3000       372
    41.3200       362
    41.3400       362
    41.3600       366
    41.3800       420
    41.4000       416
    41.4200       430
    41.4400       424
    41.4600       434
    41.4800       480
    41.5000       478
    41.5200       512
    41.5400       508
    41.5600       532
    41.5800       560
    41.6000       616
    41.6200       726
    41.6400       762
    41.6600       770
    41.6800       852
    41.7000       960
    41.7200       966
    41.7400      1166
    41.7600      1292
    41.7800      1408
    41.8000      1622
    41.8200      1782
    41.8400      1882
    41.8600      1880
    41.8800      1922
    41.9000      1958
    41.9200      1970
    41.9400      1934
    41.9600      1820
    41.9800      1628
    42.0000      1560
    42.0200      1428
    42.0400      1270
    42.0600      1152
    42.0800      1072
    42.1000       982
    42.1200       846
    42.1400       782
    42.1600       734
    42.1800       666
    42.2000       654
    42.2200       612
    42.2400       558
    42.2600       526
    42.2800       542
    42.3000       522
    42.3200       450
    42.3400       468
    42.3600       426
    42.3800       432
    42.4000       450
    42.4200       432
    42.4400       404
    42.4600       412
    42.4800       382
    42.5000       400
    42.5200       384
    42.5400       390
    42.5600       424
    42.5800       384
    42.6000       402
    42.6200       386
    42.6400       444
    42.6600       386
    42.6800       418
    42.7000       424
    42.7200       454
    42.7400       486
    42.7600       474
    42.7800       454
    42.8000       448
    42.8200       472
    42.8400       504
    42.8600       562
    42.8800       582
    42.9000       586
    42.9200       674
    42.9400       684
    42.9600       762
    42.9800       784
    43.0000       848
    43.0200       954
    43.0400      1070
    43.0600      1204
    43.0800      1392
    43.1000      1498
    43.1200      1592
    43.1400      1722
    43.1600      1866
    43.1800      1972
    43.2000      1850
    43.2200      1974
    43.2400      1856
    43.2600      1722
    43.2800      1630
    43.3000      1534
    43.3200      1446
    43.3400      1246
    43.3600      1170
    43.3800      1062
    43.4000       948
    43.4200       898
    43.4400       740
    43.4600       708
    43.4800       672
    43.5000       608
    43.5200       630
    43.5400       578
    43.5600       604
    43.5800       514
    43.6000       558
    43.6200       562
    43.6400       610
    43.6600       584
    43.6800       602
    43.7000       648
    43.7200       732
    43.7400       708
    43.7600       678
    43.7800       768
    43.8000       764
    43.8200       818
    43.8400       788
    43.8600       786
    43.8800       740
    43.9000       728
    43.9200       664
    43.9400       722
    43.9600       634
    43.9800       636
    44.0000       538
    44.0200       554
    44.0400       562
    44.0600       514
    44.0800       536
    44.1000       532
    44.1200       464
    44.1400       462
    44.1600       470
    44.1800       430
    44.2000       468
    44.2200       480
    44.2400       498
    44.2600       490
    44.2800       514
    44.3000       562
    44.3200       576
    44.3400       560
    44.3600       594
    44.3800       552
    44.4000       618
    44.4200       670
    44.4400       642
    44.4600       650
    44.4800       756
    44.5000       752
    44.5200       756
    44.5400       758
    44.5600       818
    44.5800       840
    44.6000       834
    44.6200       870
    44.6400       930
    44.6600       918
    44.6800       996
    44.7000       930
    44.7200       968
    44.7400      1000
    44.7600       932
    44.7800       898
    44.8000       876
    44.8200       888
    44.8400       824
    44.8600       778
    44.8800       828
    44.9000       700
    44.9200       660
    44.9400       692
    44.9600       640
    44.9800       626
    45.0000       606
    45.0200       600
    45.0400       542
    45.0600       524
    45.0800       536
    45.1000       486
    45.1200       506
    45.1400       436
    45.1600       446
    45.1800       482
    45.2000       458
    45.2200       414
    45.2400       468
    45.2600       422
    45.2800       444
    45.3000       440
    45.3200       406
    45.3400       430
    45.3600       420
    45.3800       432
    45.4000       412
    45.4200       456
    45.4400       436
    45.4600       418
    45.4800       452
    45.5000       420
    45.5200       470
    45.5400       512
    45.5600       482
    45.5800       496
    45.6000       474
    45.6200       542
    45.6400       476
    45.6600       572
    45.6800       536
    45.7000       544
    45.7200       602
    45.7400       594
    45.7600       566
    45.7800       622
    45.8000       604
    45.8200       674
    45.8400       672
    45.8600       616
    45.8800       616
    45.9000       656
    45.9200       648
    45.9400       734
    45.9600       668
    45.9800       702
    46.0000       702
    46.0200       680
    46.0400       698
    46.0600       724
    46.0800       752
    46.1000       776
    46.1200       802
    46.1400       822
    46.1600       850
    46.1800       928
    46.2000       928
    46.2200       942
    46.2400      1086
    46.2600      1100
    46.2800      1150
    46.3000      1276
    46.3200      1362
    46.3400      1550
    46.3600      1592
    46.3800      1712
    46.4000      2002
    46.4200      2234
    46.4400      2416
    46.4600      2738
    46.4800      3100
    46.5000      3422
    46.5200      3790
    46.5400      4370
    46.5600      4760
    46.5800      5496
    46.6000      6012
    46.6200      7050
    46.6400      7688
    46.6600      8224
    46.6800      8984
    46.7000      9066
    46.7200      9156
    46.7400      8994
    46.7600      8880
    46.7800      8518
    46.8000      7998
    46.8200      7720
    46.8400      7220
    46.8600      6846
    46.8800      6514
    46.9000      6262
    46.9200      5898
    46.9400      5748
    46.9600      5608
    46.9800      5506
    47.0000      5058
    47.0200      4902
    47.0400      4592
    47.0600      4176
    47.0800      3892
    47.1000      3574
    47.1200      3426
    47.1400      3108
    47.1600      2770
    47.1800      2434
    47.2000      2234
    47.2200      1940
    47.2400      1736
    47.2600      1532
    47.2800      1398
    47.3000      1302
    47.3200      1176
    47.3400      1112
    47.3600      1030
    47.3800      1022
    47.4000       960
    47.4200       898
    47.4400       840
    47.4600       722
    47.4800       732
    47.5000       728
    47.5200       694
    47.5400       706
    47.5600       676
    47.5800       694
    47.6000       676
    47.6200       710
    47.6400       680
    47.6600       684
    47.6800       700
    47.7000       688
    47.7200       768
    47.7400       756
    47.7600       816
    47.7800       788
    47.8000       902
    47.8200       936
    47.8400       916
    47.8600       878
    47.8800       894
    47.9000       864
    47.9200       828
    47.9400       800
    47.9600       836
    47.9800       812
    48.0000       702
    48.0200       716
    48.0400       726
    48.0600       676
    48.0800       742
    48.1000       768
    48.1200       760
    48.1400       810
    48.1600       884
    48.1800       860
    48.2000       864
    48.2200       876
    48.2400       842
    48.2600       830
    48.2800       794
    48.3000       798
    48.3200       720
    48.3400       750
    48.3600       610
    48.3800       644
    48.4000       528
    48.4200       538
    48.4400       548
    48.4600       504
    48.4800       476
    48.5000       456
    48.5200       434
    48.5400       394
    48.5600       392
    48.5800       344
    48.6000       328
    48.6200       318
    48.6400       352
    48.6600       324
    48.6800       310
    48.7000       318
    48.7200       328
    48.7400       330
    48.7600       308
    48.7800       330
    48.8000       306
    48.8200       284
    48.8400       326
    48.8600       296
    48.8800       274
    48.9000       288
    48.9200       312
    48.9400       316
    48.9600       302
    48.9800       310
    49.0000       300
    49.0200       308
    49.0400       328
    49.0600       296
    49.0800       322
    49.1000       272
    49.1200       304
    49.1400       284
    49.1600       296
    49.1800       290
    49.2000       268
    49.2200       284
    49.2400       262
    49.2600       288
    49.2800       256
    49.3000       276
    49.3200       288
    49.3400       290
    49.3600       262
    49.3800       258
    49.4000       286
    49.4200       276
    49.4400       262
    49.4600       292
    49.4800       306
    49.5000       274
    49.5200       300
    49.5400       292
    49.5600       334
    49.5800       338
    49.6000       276
    49.6200       280
    49.6400       262
    49.6600       270
    49.6800       310
    49.7000       298
    49.7200       286
    49.7400       288
    49.7600       268
    49.7800       294
    49.8000       298
    49.8200       280
    49.8400       304
    49.8600       250
    49.8800       290
    49.9000       280
    49.9200       240
    49.9400       266
    49.9600       284
    49.9800       260
    50.0000       254
    50.0200       264
    50.0400       276
    50.0600       276
    50.0800       298
    50.1000       274
    50.1200       276
    50.1400       288
    50.1600       330
    50.1800       278
    50.2000       274
    50.2200       302
    50.2400       298
    50.2600       294
    50.2800       336
    50.3000       324
    50.3200       306
    50.3400       324
    50.3600       306
    50.3800       340
    50.4000       320
    50.4200       302
    50.4400       308
    50.4600       308
    50.4800       322
    50.5000       330
    50.5200       346
    50.5400       354
    50.5600       332
    50.5800       344
    50.6000       356
    50.6200       372
    50.6400       348
    50.6600       366
    50.6800       396
    50.7000       432
    50.7200       394
    50.7400       474
    50.7600       502
    50.7800       504
    50.8000       578
    50.8200       630
    50.8400       596
    50.8600       674
    50.8800       728
    50.9000       718
    50.9200       774
    50.9400       690
    50.9600       738
    50.9800       692
    51.0000       730
    51.0200       678
    51.0400       614
    51.0600       648
    51.0800       592
    51.1000       620
    51.1200       600
    51.1400       540
    51.1600       514
    51.1800       532
    51.2000       506
    51.2200       530
    51.2400       490
    51.2600       538
    51.2800       564
    51.3000       568
    51.3200       604
    51.3400       618
    51.3600       652
    51.3800       648
    51.4000       692
    51.4200       698
    51.4400       676
    51.4600       682
    51.4800       714
    51.5000       672
    51.5200       694
    51.5400       670
    51.5600       674
    51.5800       656
    51.6000       656
    51.6200       656
    51.6400       638
    51.6600       666
    51.6800       686
    51.7000       772
    51.7200       732
    51.7400       808
    51.7600       842
    51.7800       888
    51.8000       942
    51.8200      1032
    51.8400       964
    51.8600      1032
    51.8800      1108
    51.9000       998
    51.9200       984
    51.9400      1002
    51.9600      1000
    51.9800       954
    52.0000      1012
    52.0200       902
    52.0400       872
    52.0600       872
    52.0800       802
    52.1000       794
    52.1200       754
    52.1400       694
    52.1600       706
    52.1800       676
    52.2000       678
    52.2200       696
    52.2400       658
    52.2600       658
    52.2800       668
    52.3000       694
    52.3200       730
    52.3400       746
    52.3600       786
    52.3800       828
    52.4000       862
    52.4200       900
    52.4400       984
    52.4600      1112
    52.4800      1144
    52.5000      1194
    52.5200      1242
    52.5400      1332
    52.5600      1362
    52.5800      1488
    52.6000      1516
    52.6200      1388
    52.6400      1426
    52.6600      1482
    52.6800      1420
    52.7000      1402
    52.7200      1350
    52.7400      1240
    52.7600      1176
    52.7800      1170
    52.8000      1064
    52.8200      1008
    52.8400       944
    52.8600       934
    52.8800       850
    52.9000       878
    52.9200       800
    52.9400       804
    52.9600       808
    52.9800       844
    53.0000       796
    53.0200       870
    53.0400       884
    53.0600      1000
    53.0800      1058
    53.1000      1064
    53.1200      1170
    53.1400      1262
    53.1600      1380
    53.1800      1588
    53.2000      1632
    53.2200      1716
    53.2400      1730
    53.2600      1786
    53.2800      1790
    53.3000      1784
    53.3200      1692
    53.3400      1682
    53.3600      1514
    53.3800      1426
    53.4000      1330
    53.4200      1346
    53.4400      1214
    53.4600      1016
    53.4800      1004
    53.5000       874
    53.5200       790
    53.5400       720
    53.5600       644
    53.5800       614
    53.6000       570
    53.6200       530
    53.6400       502
    53.6600       466
    53.6800       444
    53.7000       426
    53.7200       396
    53.7400       424
    53.7600       376
    53.7800       346
    53.8000       376
    53.8200       376
    53.8400       322
    53.8600       322
    53.8800       340
    53.9000       296
    53.9200       304
    53.9400       318
    53.9600       294
    53.9800       292
    54.0000       312
    54.0200       272
    54.0400       300
    54.0600       260
    54.0800       314
    54.1000       248
    54.1200       308
    54.1400       300
    54.1600       338
    54.1800       304
    54.2000       286
    54.2200       314
    54.2400       300
    54.2600       310
    54.2800       292
    54.3000       346
    54.3200       334
    54.3400       354
    54.3600       344
    54.3800       366
    54.4000       390
    54.4200       402
    54.4400       410
    54.4600       404
    54.4800       476
    54.5000       488
    54.5200       558
    54.5400       506
    54.5600       582
    54.5800       612
    54.6000       604
    54.6200       636
    54.6400       688
    54.6600       738
    54.6800       752
    54.7000       758
    54.7200       798
    54.7400       816
    54.7600       812
    54.7800       838
    54.8000       802
    54.8200       772
    54.8400       724
    54.8600       704
    54.8800       692
    54.9000       650
    54.9200       598
    54.9400       640
    54.9600       558
    54.9800       554
    55.0000       438
    55.0200       478
    55.0400       490
    55.0600       460
    55.0800       410
    55.1000       444
    55.1200       412
    55.1400       432
    55.1600       388
    55.1800       408
    55.2000       440
    55.2200       430
    55.2400       440
    55.2600       438
    55.2800       484
    55.3000       478
    55.3200       460
    55.3400       464
    55.3600       504
    55.3800       468
    55.4000       572
    55.4200       504
    55.4400       572
    55.4600       522
    55.4800       640
    55.5000       668
    55.5200       660
    55.5400       718
    55.5600       770
    55.5800       820
    55.6000       878
    55.6200       952
    55.6400      1038
    55.6600      1022
    55.6800      1120
    55.7000      1180
    55.7200      1206
    55.7400      1274
    55.7600      1232
    55.7800      1240
    55.8000      1136
    55.8200      1088
    55.8400      1070
    55.8600      1036
    55.8800       980
    55.9000       948
    55.9200       864
    55.9400       790
    55.9600       726
    55.9800       740
    56.0000       622
    56.0200       550
    56.0400       534
    56.0600       472
    56.0800       452
    56.1000       484
    56.1200       410
    56.1400       414
    56.1600       406
    56.1800       396
    56.2000       376
    56.2200       344
    56.2400       330
    56.2600       352
    56.2800       374
    56.3000       318
    56.3200       312
    56.3400       324
    56.3600       328
    56.3800       334
    56.4000       354
    56.4200       308
    56.4400       308
    56.4600       312
    56.4800       312
    56.5000       310
    56.5200       314
    56.5400       334
    56.5600       340
    56.5800       304
    56.6000       368
    56.6200       336
    56.6400       354
    56.6600       342
    56.6800       344
    56.7000       374
    56.7200       372
    56.7400       370
    56.7600       372
    56.7800       372
    56.8000       396
    56.8200       440
    56.8400       458
    56.8600       466
    56.8800       472
    56.9000       460
    56.9200       486
    56.9400       498
    56.9600       554
    56.9800       516
    57.0000       564
    57.0200       582
    57.0400       598
    57.0600       664
    57.0800       690
    57.1000       730
    57.1200       760
    57.1400       848
    57.1600       944
    57.1800       974
    57.2000      1042
    57.2200      1070
    57.2400      1264
    57.2600      1402
    57.2800      1456
    57.3000      1576
    57.3200      1678
    57.3400      1704
    57.3600      1762
    57.3800      1794
    57.4000      1814
    57.4200      1824
    57.4400      1890
    57.4600      1790
    57.4800      1760
    57.5000      1750
    57.5200      1760
    57.5400      1672
    57.5600      1694
    57.5800      1746
    57.6000      1706
    57.6200      1762
    57.6400      1816
    57.6600      1882
    57.6800      1822
    57.7000      1894
    57.7200      1886
    57.7400      1886
    57.7600      1956
    57.7800      1822
    57.8000      1698
    57.8200      1648
    57.8400      1670
    57.8600      1544
    57.8800      1430
    57.9000      1464
    57.9200      1338
    57.9400      1240
    57.9600      1218
    57.9800      1158
    58.0000      1034
    58.0200      1048
    58.0400      1044
    58.0600       974
    58.0800       998
    58.1000       968
    58.1200       996
    58.1400       954
    58.1600       918
    58.1800       966
    58.2000      1050
    58.2200      1034
    58.2400      1152
    58.2600      1154
    58.2800      1214
    58.3000      1372
    58.3200      1412
    58.3400      1498
    58.3600      1560
    58.3800      1624
    58.4000      1776
    58.4200      1852
    58.4400      2016
    58.4600      2072
    58.4800      2192
    58.5000      2304
    58.5200      2438
    58.5400      2450
    58.5600      2746
    58.5800      2782
    58.6000      2822
    58.6200      2950
    58.6400      3130
    58.6600      3426
    58.6800      3364
    58.7000      3456
    58.7200      3546
    58.7400      3446
    58.7600      3438
    58.7800      3478
    58.8000      3274
    58.8200      3160
    58.8400      3064
    58.8600      3030
    58.8800      2840
    58.9000      2694
    58.9200      2468
    58.9400      2280
    58.9600      2112
    58.9800      1944
    59.0000      1686
    59.0200      1632
    59.0400      1574
    59.0600      1268
    59.0800      1284
    59.1000      1156
    59.1200      1076
    59.1400      1034
    59.1600       902
    59.1800       850
    59.2000       888
    59.2200       798
    59.2400       736
    59.2600       710
    59.2800       684
    59.3000       678
    59.3200       646
    59.3400       562
    59.3600       576
    59.3800       566
    59.4000       542
    59.4200       542
    59.4400       520
    59.4600       496
    59.4800       458
    59.5000       456
    59.5200       448
    59.5400       436
    59.5600       428
    59.5800       444
    59.6000       390
    59.6200       414
    59.6400       392
    59.6600       390
    59.6800       338
    59.7000       344
    59.7200       368
    59.7400       340
    59.7600       350
    59.7800       336
    59.8000       340
    59.8200       348
    59.8400       326
    59.8600       328
    59.8800       314
    59.9000       324
    59.9200       318
    59.9400       322
    59.9600       316
    59.9800       306
    60.0000       300
    60.0200       284
    60.0400       304
    60.0600       280
    60.0800       306
    60.1000       314
    60.1200       304
    60.1400       332
    60.1600       282
    60.1800       272
    60.2000       292
    60.2200       316
    60.2400       280
    60.2600       294
    60.2800       266
    60.3000       298
    60.3200       288
    60.3400       280
    60.3600       250
    60.3800       308
    60.4000       316
    60.4200       270
    60.4400       292
    60.4600       316
    60.4800       300
    60.5000       314
    60.5200       312
    60.5400       320
    60.5600       286
    60.5800       282
    60.6000       280
    60.6200       276
    60.6400       274
    60.6600       328
    60.6800       312
    60.7000       286
    60.7200       306
    60.7400       320
    60.7600       282
    60.7800       330
    60.8000       300
    60.8200       336
    60.8400       384
    60.8600       384
    60.8800       366
    60.9000       364
    60.9200       358
    60.9400       382
    60.9600       402
    60.9800       438
    61.0000       452
    61.0200       442
    61.0400       458
    61.0600       472
    61.0800       480
    61.1000       470
    61.1200       500
    61.1400       508
    61.1600       498
    61.1800       552
    61.2000       536
    61.2200       486
    61.2400       506
    61.2600       500
    61.2800       508
    61.3000       506
    61.3200       478
    61.3400       498
    61.3600       514
    61.3800       424
    61.4000       494
    61.4200       480
    61.4400       552
    61.4600       512
    61.4800       550
    61.5000       550
    61.5200       500
    61.5400       580
    61.5600       568
    61.5800       538
    61.6000       510
    61.6200       556
    61.6400       534
    61.6600       504
    61.6800       524
    61.7000       504
    61.7200       504
    61.7400       514
    61.7600       510
    61.7800       484
    61.8000       492
    61.8200       532
    61.8400       502
    61.8600       532
    61.8800       528
    61.9000       560
    61.9200       530
    61.9400       522
    61.9600       544
    61.9800       526
    62.0000       508
    62.0200       590
    62.0400       586
    62.0600       582
    62.0800       560
    62.1000       566
    62.1200       580
    62.1400       560
    62.1600       542
    62.1800       516
    62.2000       518
    62.2200       500
    62.2400       558
    62.2600       546
    62.2800       562
    62.3000       528
    62.3200       532
    62.3400       530
    62.3600       486
    62.3800       474
    62.4000       450
    62.4200       436
    62.4400       436
    62.4600       422
    62.4800       446
    62.5000       422
    62.5200       396
    62.5400       412
    62.5600       320
    62.5800       380
    62.6000       362
    62.6200       326
    62.6400       336
    62.6600       298
    62.6800       302
    62.7000       290
    62.7200       290
    62.7400       282
    62.7600       274
    62.7800       280
    62.8000       268
    62.8200       284
    62.8400       264
    62.8600       262
    62.8800       262
    62.9000       270
    62.9200       234
    62.9400       224
    62.9600       240
    62.9800       244
    63.0000       256
    63.0200       220
    63.0400       224
    63.0600       256
    63.0800       252
    63.1000       244
    63.1200       236
    63.1400       230
    63.1600       220
    63.1800       236
    63.2000       234
    63.2200       214
    63.2400       254
    63.2600       234
    63.2800       236
    63.3000       230
    63.3200       224
    63.3400       244
    63.3600       260
    63.3800       262
    63.4000       228
    63.4200       246
    63.4400       238
    63.4600       258
    63.4800       256
    63.5000       248
    63.5200       270
    63.5400       282
    63.5600       256
    63.5800       284
    63.6000       290
    63.6200       292
    63.6400       304
    63.6600       290
    63.6800       322
    63.7000       374
    63.7200       382
    63.7400       374
    63.7600       368
    63.7800       414
    63.8000       482
    63.8200       458
    63.8400       426
    63.8600       458
    63.8800       492
    63.9000       458
    63.9200       450
    63.9400       444
    63.9600       412
    63.9800       364
    64.0000       408
    64.0200       368
    64.0400       360
    64.0600       362
    64.0800       344
    64.1000       338
    64.1200       332
    64.1400       332
    64.1600       300
    64.1800       286
    64.2000       266
    64.2200       268
    64.2400       270
    64.2600       268
    64.2800       250
    64.3000       274
    64.3200       254
    64.3400       282
    64.3600       240
    64.3800       260
    64.4000       238
    64.4200       256
    64.4400       266
    64.4600       292
    64.4800       280
    64.5000       278
    64.5200       278
    64.5400       256
    64.5600       270
    64.5800       302
    64.6000       314
    64.6200       266
    64.6400       320
    64.6600       304
    64.6800       354
    64.7000       318
    64.7200       314
    64.7400       336
    64.7600       334
    64.7800       304
    64.8000       358
    64.8200       380
    64.8400       370
    64.8600       368
    64.8800       368
    64.9000       414
    64.9200       414
    64.9400       424
    64.9600       446
    64.9800       420
    65.0000       460
    65.0200       474
    65.0400       504
    65.0600       486
    65.0800       516
    65.1000       496
    65.1200       502
    65.1400       516
    65.1600       532
    65.1800       512
    65.2000       570
    65.2200       546
    65.2400       584
    65.2600       620
    65.2800       550
    65.3000       570
    65.3200       596
    65.3400       610
    65.3600       542
    65.3800       538
    65.4000       524
    65.4200       522
    65.4400       522
    65.4600       496
    65.4800       502
    65.5000       422
    65.5200       408
    65.5400       462
    65.5600       400
    65.5800       364
    65.6000       356
    65.6200       314
    65.6400       370
    65.6600       344
    65.6800       320
    65.7000       314
    65.7200       292
    65.7400       302
    65.7600       300
    65.7800       316
    65.8000       318
    65.8200       314
    65.8400       322
    65.8600       296
    65.8800       286
    65.9000       284
    65.9200       300
    65.9400       296
    65.9600       286
    65.9800       258
    66.0000       268
    66.0200       264
    66.0400       310
    66.0600       282
    66.0800       274
    66.1000       306
    66.1200       292
    66.1400       292
    66.1600       308
    66.1800       292
    66.2000       290
    66.2200       314
    66.2400       286
    66.2600       294
    66.2800       322
    66.3000       288
    66.3200       282
    66.3400       328
    66.3600       374
    66.3800       342
    66.4000       304
    66.4200       354
    66.4400       348
    66.4600       376
    66.4800       396
    66.5000       428
    66.5200       432
    66.5400       442
    66.5600       446
    66.5800       508
    66.6000       496
    66.6200       610
    66.6400       584
    66.6600       634
    66.6800       702
    66.7000       672
    66.7200       792
    66.7400       754
    66.7600       764
    66.7800       784
    66.8000       746
    66.8200       802
    66.8400       822
    66.8600       826
    66.8800       836
    66.9000       840
    66.9200       844
    66.9400       836
    66.9600       780
    66.9800       770
    67.0000       688
    67.0200       658
    67.0400       696
    67.0600       616
    67.0800       634
    67.1000       574
    67.1200       588
    67.1400       560
    67.1600       520
    67.1800       548
    67.2000       486
    67.2200       530
    67.2400       450
    67.2600       464
    67.2800       442
    67.3000       416
    67.3200       410
    67.3400       426
    67.3600       384
    67.3800       370
    67.4000       370
    67.4200       358
    67.4400       366
    67.4600       404
    67.4800       406
    67.5000       356
    67.5200       358
    67.5400       360
    67.5600       364
    67.5800       376
    67.6000       384
    67.6200       408
    67.6400       408
    67.6600       394
    67.6800       380
    67.7000       398
    67.7200       382
    67.7400       430
    67.7600       464
    67.7800       486
    67.8000       474
    67.8200       554
    67.8400       484
    67.8600       544
    67.8800       616
    67.9000       620
    67.9200       662
    67.9400       708
    67.9600       760
    67.9800       768
    68.0000       898
    68.0200       926
    68.0400       938
    68.0600      1020
    68.0800      1114
    68.1000      1098
    68.1200      1214
    68.1400      1296
    68.1600      1162
    68.1800      1232
    68.2000      1254
    68.2200      1252
    68.2400      1202
    68.2600      1176
    68.2800      1188
    68.3000      1150
    68.3200      1096
    68.3400      1090
    68.3600      1060
    68.3800      1066
    68.4000      1006
    68.4200       952
    68.4400       940
    68.4600       862
    68.4800       832
    68.5000       844
    68.5200       762
    68.5400       844
    68.5600       718
    68.5800       786
    68.6000       732
    68.6200       782
    68.6400       778
    68.6600       676
    68.6800       712
    68.7000       658
    68.7200       648
    68.7400       642
    68.7600       638
    68.7800       570
    68.8000       570
    68.8200       556
    68.8400       538
    68.8600       482
    68.8800       476
    68.9000       464
    68.9200       450
    68.9400       438
    68.9600       434
    68.9800       412
    69.0000       440
    69.0200       418
    69.0400       426
    69.0600       388
    69.0800       388
    69.1000       386
    69.1200       376
    69.1400       378
    69.1600       384
    69.1800       400
    69.2000       466
    69.2200       414
    69.2400       480
    69.2600       454
    69.2800       464
    69.3000       478
    69.3200       518
    69.3400       540
    69.3600       542
    69.3800       560
    69.4000       558
    69.4200       560
    69.4400       588
    69.4600       530
    69.4800       548
    69.5000       462
    69.5200       500
    69.5400       518
    69.5600       496
    69.5800       482
    69.6000       464
    69.6200       468
    69.6400       450
    69.6600       426
    69.6800       438
    69.7000       374
    69.7200       348
    69.7400       374
    69.7600       332
    69.7800       314
    69.8000       322
    69.8200       314
    69.8400       282
    69.8600       294
    69.8800       290
    69.9000       276
    69.9200       284
    69.9400       244
    69.9600       264
    69.9800       236
    70.0000       234
    70.0200       238
    70.0400       242
    70.0600       236
    70.0800       216
    70.1000       228
    70.1200       194
    70.1400       222
    70.1600       208
    70.1800       226
    70.2000       212
    70.2200       196
    70.2400       202
    70.2600       242
    70.2800       216
    70.3000       202
    70.3200       214
    70.3400       220
    70.3600       238
    70.3800       208
    70.4000       216
    70.4200       224
    70.4400       220
    70.4600       236
    70.4800       254
    70.5000       242
    70.5200       252
    70.5400       264
    70.5600       250
    70.5800       232
    70.6000       262
    70.6200       254
    70.6400       264
    70.6600       236
    70.6800       248
    70.7000       236
    70.7200       240
    70.7400       240
    70.7600       260
    70.7800       234
    70.8000       250
    70.8200       266
    70.8400       240
    70.8600       224
    70.8800       224
    70.9000       220
    70.9200       238
    70.9400       232
    70.9600       230
    70.9800       254
    71.0000       254
    71.0200       266
    71.0400       268
    71.0600       252
    71.0800       298
    71.1000       284
    71.1200       290
    71.1400       296
    71.1600       318
    71.1800       310
    71.2000       326
    71.2200       342
    71.2400       394
    71.2600       408
    71.2800       376
    71.3000       394
    71.3200       406
    71.3400       460
    71.3600       486
    71.3800       528
    71.4000       548
    71.4200       562
    71.4400       560
    71.4600       612
    71.4800       636
    71.5000       646
    71.5200       654
    71.5400       636
    71.5600       604
    71.5800       660
    71.6000       618
    71.6200       660
    71.6400       656
    71.6600       696
    71.6800       658
    71.7000       646
    71.7200       614
    71.7400       624
    71.7600       594
    71.7800       612
    71.8000       574
    71.8200       564
    71.8400       512
    71.8600       552
    71.8800       520
    71.9000       554
    71.9200       544
    71.9400       476
    71.9600       514
    71.9800       448
    72.0000       532
    72.0200       486
    72.0400       480
    72.0600       494
    72.0800       460
    72.1000       482
    72.1200       472
    72.1400       430
    72.1600       454
    72.1800       536
    72.2000       472
    72.2200       466
    72.2400       508
    72.2600       486
    72.2800       510
    72.3000       512
    72.3200       490
    72.3400       474
    72.3600       516
    72.3800       416
    72.4000       454
    72.4200       450
    72.4400       446
    72.4600       406
    72.4800       410
    72.5000       364
    72.5200       424
    72.5400       358
    72.5600       392
    72.5800       356
    72.6000       370
    72.6200       312
    72.6400       326
    72.6600       352
    72.6800       302
    72.7000       282
    72.7200       296
    72.7400       282
    72.7600       256
    72.7800       322
    72.8000       310
    72.8200       284
    72.8400       290
    72.8600       282
    72.8800       308
    72.9000       298
    72.9200       286
    72.9400       286
    72.9600       270
    72.9800       262
    73.0000       290
    73.0200       298
    73.0400       270
    73.0600       286
    73.0800       258
    73.1000       264
    73.1200       278
    73.1400       286
    73.1600       248
    73.1800       240
    73.2000       274
    73.2200       258
    73.2400       226
    73.2600       224
    73.2800       232
    73.3000       220
    73.3200       208
    73.3400       224
    73.3600       220
    73.3800       222
    73.4000       232
    73.4200       200
    73.4400       216
    73.4600       224
    73.4800       222
    73.5000       244
    73.5200       246
    73.5400       244
    73.5600       242
    73.5800       256
    73.6000       210
    73.6200       244
    73.6400       240
    73.6600       226
    73.6800       258
    73.7000       254
    73.7200       242
    73.7400       240
    73.7600       226
    73.7800       242
    73.8000       244
    73.8200       250
    73.8400       234
    73.8600       286
    73.8800       294
    73.9000       308
    73.9200       274
    73.9400       278
    73.9600       290
    73.9800       306
    74.0000       332
    74.0200       296
    74.0400       306
    74.0600       288
    74.0800       306
    74.1000       332
    74.1200       326
    74.1400       308
    74.1600       308
    74.1800       306
    74.2000       300
    74.2200       292
    74.2400       286
    74.2600       300
    74.2800       268
    74.3000       284
    74.3200       272
    74.3400       280
    74.3600       272
    74.3800       268
    74.4000       324
    74.4200       266
    74.4400       246
    74.4600       234
    74.4800       220
    74.5000       236
    74.5200       216
    74.5400       234
    74.5600       224
    74.5800       216
    74.6000       214
    74.6200       208
    74.6400       200
    74.6600       200
    74.6800       202
    74.7000       180
    74.7200       186
    74.7400       208
    74.7600       186
    74.7800       188
    74.8000       174
    74.8200       206
    74.8400       190
    74.8600       208
    74.8800       180
    74.9000       188
    74.9200       176
    74.9400       186
    74.9600       174
    74.9800       194
    75.0000       196
    75.0200       204
    75.0400       160
    75.0600       202
    75.0800       180
    75.1000       178
    75.1200       186
    75.1400       200
    75.1600       164
    75.1800       194
    75.2000       184
    75.2200       162
    75.2400       202
    75.2600       198
    75.2800       174
    75.3000       206
    75.3200       184
    75.3400       222
    75.3600       192
    75.3800       226
    75.4000       202
    75.4200       224
    75.4400       218
    75.4600       240
    75.4800       244
    75.5000       232
    75.5200       256
    75.5400       262
    75.5600       278
    75.5800       250
    75.6000       276
    75.6200       294
    75.6400       310
    75.6600       326
    75.6800       318
    75.7000       324
    75.7200       342
    75.7400       336
    75.7600       380
    75.7800       356
    75.8000       388
    75.8200       402
    75.8400       414
    75.8600       400
    75.8800       422
    75.9000       384
    75.9200       396
    75.9400       362
    75.9600       372
    75.9800       364
    76.0000       366
    76.0200       392
    76.0400       368
    76.0600       356
    76.0800       330
    76.1000       368
    76.1200       362
    76.1400       318
    76.1600       326
    76.1800       328
    76.2000       354
    76.2200       332
    76.2400       286
    76.2600       344
    76.2800       324
    76.3000       330
    76.3200       318
    76.3400       332
    76.3600       320
    76.3800       356
    76.4000       334
    76.4200       304
    76.4400       306
    76.4600       350
    76.4800       338
    76.5000       338
    76.5200       324
    76.5400       360
    76.5600       356
    76.5800       376
    76.6000       366
    76.6200       360
    76.6400       378
    76.6600       376
    76.6800       406
    76.7000       394
    76.7200       394
    76.7400       430
    76.7600       412
    76.7800       314
    76.8000       344
    76.8200       384
    76.8400       348
    76.8600       340
    76.8800       362
    76.9000       332
    76.9200       344
    76.9400       330
    76.9600       378
    76.9800       348
    77.0000       326
    77.0200       328
    77.0400       316
    77.0600       320
    77.0800       300
    77.1000       326
    77.1200       330
    77.1400       332
    77.1600       314
    77.1800       348
    77.2000       378
    77.2200       332
    77.2400       372
    77.2600       426
    77.2800       396
    77.3000       392
    77.3200       438
    77.3400       474
    77.3600       498
    77.3800       490
    77.4000       500
    77.4200       542
    77.4400       576
    77.4600       612
    77.4800       612
    77.5000       674
    77.5200       746
    77.5400       718
    77.5600       776
    77.5800       780
    77.6000       804
    77.6200       806
    77.6400       822
    77.6600       848
    77.6800       848
    77.7000       804
    77.7200       862
    77.7400       780
    77.7600       784
    77.7800       794
    77.8000       746
    77.8200       794
    77.8400       686
    77.8600       674
    77.8800       652
    77.9000       682
    77.9200       638
    77.9400       592
    77.9600       564
    77.9800       514
    78.0000       538
    78.0200       502
    78.0400       484
    78.0600       476
    78.0800       428
    78.1000       446
    78.1200       440
    78.1400       388
    78.1600       434
    78.1800       442
    78.2000       390
    78.2200       406
    78.2400       360
    78.2600       354
    78.2800       414
    78.3000       400
    78.3200       356
    78.3400       374
    78.3600       362
    78.3800       424
    78.4000       400
    78.4200       404
    78.4400       372
    78.4600       406
    78.4800       420
    78.5000       402
    78.5200       432
    78.5400       436
    78.5600       398
    78.5800       388
    78.6000       390
    78.6200       430
    78.6400       464
    78.6600       414
    78.6800       412
    78.7000       434
    78.7200       430
    78.7400       396
    78.7600       424
    78.7800       406
    78.8000       398
    78.8200       394
    78.8400       370
    78.8600       352
    78.8800       338
    78.9000       346
    78.9200       362
    78.9400       358
    78.9600       322
    78.9800       296
    79.0000       312
    79.0200       292
    79.0400       286
    79.0600       292
    79.0800       266
    79.1000       262
    79.1200       252
    79.1400       240
    79.1600       246
    79.1800       230
    79.2000       234
    79.2200       248
    79.2400       262
    79.2600       228
    79.2800       228
    79.3000       210
    79.3200       232
    79.3400       266
    79.3600       246
    79.3800       238
    79.4000       266
    79.4200       214
    79.4400       216
    79.4600       214
    79.4800       242
    79.5000       224
    79.5200       226
    79.5400       210
    79.5600       240
    79.5800       248
    79.6000       240
    79.6200       232
    79.6400       290
    79.6600       240
    79.6800       254
    79.7000       258
    79.7200       260
    79.7400       260
    79.7600       268
    79.7800       262
    79.8000       224
    79.8200       264
    79.8400       274
    79.8600       258
    79.8800       256
    79.9000       246
    79.9200       234
    79.9400       256
    79.9600       266
    79.9800       244
    80.0000       238
    80.0200       242
    80.0400       222
    80.0600       244
    80.0800       220
    80.1000       200
    80.1200       232
    80.1400       246
    80.1600       200
    80.1800       190
    80.2000       206
    80.2200       200
    80.2400       210
    80.2600       186
    80.2800       206
    80.3000       204
    80.3200       232
    80.3400       232
    80.3600       208
    80.3800       222
    80.4000       204
    80.4200       188
    80.4400       238
    80.4600       216
    80.4800       206
    80.5000       214
    80.5200       214
    80.5400       214
    80.5600       222
    80.5800       192
    80.6000       192
    80.6200       210
    80.6400       180
    80.6600       202
    80.6800       196
    80.7000       154
    80.7200       178
    80.7400       180
    80.7600       182
    80.7800       200
    80.8000       174
    80.8200       216
    80.8400       176
    80.8600       212
    80.8800       186
    80.9000       174
    80.9200       192
    80.9400       182
    80.9600       198
    80.9800       192
    81.0000       210
    81.0200       198
    81.0400       200
    81.0600       200
    81.0800       194
    81.1000       212
    81.1200       214
    81.1400       224
    81.1600       212
    81.1800       204
    81.2000       232
    81.2200       224
    81.2400       240
    81.2600       238
    81.2800       234
    81.3000       226
    81.3200       260
    81.3400       244
    81.3600       256
    81.3800       238
    81.4000       226
    81.4200       270
    81.4400       260
    81.4600       288
    81.4800       232
    81.5000       248
    81.5200       258
    81.5400       234
    81.5600       302
    81.5800       260
    81.6000       252
    81.6200       238
    81.6400       262
    81.6600       244
    81.6800       240
    81.7000       254
    81.7200       228
    81.7400       240
    81.7600       246
    81.7800       262
    81.8000       218
    81.8200       248
    81.8400       240
    81.8600       264
    81.8800       286
    81.9000       226
    81.9200       252
    81.9400       254
    81.9600       272
    81.9800       276
    82.0000       294
    82.0200       254
    82.0400       298
    82.0600       270
    82.0800       294
    82.1000       304
    82.1200       318
    82.1400       302
    82.1600       294
    82.1800       318
    82.2000       302
    82.2200       330
    82.2400       332
    82.2600       350
    82.2800       320
    82.3000       356
    82.3200       324
    82.3400       350
    82.3600       344
    82.3800       358
    82.4000       340
    82.4200       340
    82.4400       320
    82.4600       346
    82.4800       320
    82.5000       326
    82.5200       388
    82.5400       344
    82.5600       372
    82.5800       368
    82.6000       390
    82.6200       394
    82.6400       402
    82.6600       398
    82.6800       398
    82.7000       438
    82.7200       334
    82.7400       390
    82.7600       416
    82.7800       376
    82.8000       384
    82.8200       370
    82.8400       398
    82.8600       404
    82.8800       380
    82.9000       362
    82.9200       406
    82.9400       370
    82.9600       410
    82.9800       446
    83.0000       378
    83.0200       352
    83.0400       412
    83.0600       390
    83.0800       384
    83.1000       390
    83.1200       372
    83.1400       376
    83.1600       358
    83.1800       360
    83.2000       342
    83.2200       356
    83.2400       376
    83.2600       368
    83.2800       380
    83.3000       354
    83.3200       346
    83.3400       380
    83.3600       358
    83.3800       370
    83.4000       328
    83.4200       362
    83.4400       356
    83.4600       368
    83.4800       318
    83.5000       348
    83.5200       322
    83.5400       318
    83.5600       292
    83.5800       330
    83.6000       308
    83.6200       306
    83.6400       312
    83.6600       302
    83.6800       300
    83.7000       286
    83.7200       292
    83.7400       318
    83.7600       272
    83.7800       312
    83.8000       280
    83.8200       270
    83.8400       292
    83.8600       274
    83.8800       246
    83.9000       272
    83.9200       256
    83.9400       258
    83.9600       248
    83.9800       264
    84.0000       276
    84.0200       280
    84.0400       276
    84.0600       266
    84.0800       302
    84.1000       236
    84.1200       258
    84.1400       246
    84.1600       286
    84.1800       286
    84.2000       282
    84.2200       236
    84.2400       240
    84.2600       220
    84.2800       234
    84.3000       212
    84.3200       226
    84.3400       244
    84.3600       222
    84.3800       226
    84.4000       204
    84.4200       220
    84.4400       202
    84.4600       204
    84.4800       232
    84.5000       204
    84.5200       216
    84.5400       204
    84.5600       214
    84.5800       240
    84.6000       200
    84.6200       212
    84.6400       198
    84.6600       192
    84.6800       224
    84.7000       226
    84.7200       190
    84.7400       228
    84.7600       248
    84.7800       214
    84.8000       188
    84.8200       216
    84.8400       200
    84.8600       200
    84.8800       204
    84.9000       182
    84.9200       190
    84.9400       218
    84.9600       184
    84.9800       212
    85.0000       184
    85.0200       210
    85.0400       202
    85.0600       202
    85.0800       198
    85.1000       204
    85.1200       220
    85.1400       182
    85.1600       222
    85.1800       194
    85.2000       202
    85.2200       210
    85.2400       206
    85.2600       256
    85.2800       230
    85.3000       236
    85.3200       248
    85.3400       224
    85.3600       240
    85.3800       240
    85.4000       234
    85.4200       256
    85.4400       282
    85.4600       248
    85.4800       262
    85.5000       262
    85.5200       272
    85.5400       260
    85.5600       268
    85.5800       260
    85.6000       286
    85.6200       232
    85.6400       278
    85.6600       240
    85.6800       224
    85.7000       252
    85.7200       226
    85.7400       246
    85.7600       240
    85.7800       234
    85.8000       236
    85.8200       240
    85.8400       210
    85.8600       200
    85.8800       222
    85.9000       224
    85.9200       220
    85.9400       214
    85.9600       202
    85.9800       190
    86.0000       182
    86.0200       188
    86.0400       182
    86.0600       176
    86.0800       200
    86.1000       184
    86.1200       180
    86.1400       170
    86.1600       180
    86.1800       200
    86.2000       196
    86.2200       188
    86.2400       168
    86.2600       186
    86.2800       206
    86.3000       186
    86.3200       198
    86.3400       196
    86.3600       172
    86.3800       198
    86.4000       188
    86.4200       188
    86.4400       186
    86.4600       206
    86.4800       206
    86.5000       206
    86.5200       234
    86.5400       214
    86.5600       204
    86.5800       226
    86.6000       218
    86.6200       230
    86.6400       208
    86.6600       238
    86.6800       254
    86.7000       240
    86.7200       242
    86.7400       282
    86.7600       310
    86.7800       260
    86.8000       318
    86.8200       318
    86.8400       336
    86.8600       296
    86.8800       298
    86.9000       362
    86.9200       352
    86.9400       358
    86.9600       376
    86.9800       396
    87.0000       368
    87.0200       404
    87.0400       378
    87.0600       394
    87.0800       426
    87.1000       446
    87.1200       454
    87.1400       398
    87.1600       454
    87.1800       406
    87.2000       486
    87.2200       524
    87.2400       510
    87.2600       530
    87.2800       532
    87.3000       548
    87.3200       556
    87.3400       534
    87.3600       540
    87.3800       578
    87.4000       558
    87.4200       572
    87.4400       526
    87.4600       558
    87.4800       536
    87.5000       554
    87.5200       504
    87.5400       524
    87.5600       446
    87.5800       530
    87.6000       504
    87.6200       480
    87.6400       462
    87.6600       458
    87.6800       484
    87.7000       524
    87.7200       456
    87.7400       454
    87.7600       438
    87.7800       454
    87.8000       456
    87.8200       432
    87.8400       406
    87.8600       404
    87.8800       436
    87.9000       388
    87.9200       362
    87.9400       402
    87.9600       370
    87.9800       358
    88.0000       340
    88.0200       324
    88.0400       356
    88.0600       368
    88.0800       298
    88.1000       320
    88.1200       334
    88.1400       308
    88.1600       282
    88.1800       308
    88.2000       302
    88.2200       294
    88.2400       294
    88.2600       278
    88.2800       286
    88.3000       246
    88.3200       286
    88.3400       280
    88.3600       278
    88.3800       270
    88.4000       244
    88.4200       254
    88.4400       268
    88.4600       254
    88.4800       222
    88.5000       240
    88.5200       274
    88.5400       254
    88.5600       250
    88.5800       250
    88.6000       260
    88.6200       270
    88.6400       240
    88.6600       234
    88.6800       218
    88.7000       238
    88.7200       256
    88.7400       276
    88.7600       236
    88.7800       252
    88.8000       256
    88.8200       262
    88.8400       256
    88.8600       228
    88.8800       232
    88.9000       220
    88.9200       222
    88.9400       192
    88.9600       250
    88.9800       228
    89.0000       236
    89.0200       240
    89.0400       246
    89.0600       216
    89.0800       226
    89.1000       214
    89.1200       210
    89.1400       218
    89.1600       210
    89.1800       252
    89.2000       242
    89.2200       218
    89.2400       202
    89.2600       204
    89.2800       242
    89.3000       224
    89.3200       246
    89.3400       222
    89.3600       218
    89.3800       206
    89.4000       224
    89.4200       270
    89.4400       208
    89.4600       234
    89.4800       226
    89.5000       252
    89.5200       270
    89.5400       250
    89.5600       230
    89.5800       270
    89.6000       258
    89.6200       254
    89.6400       252
    89.6600       254
    89.6800       256
    89.7000       274
    89.7200       264
    89.7400       294
    89.7600       264
    89.7800       262
    89.8000       284
    89.8200       258
    89.8400       260
    89.8600       302
    89.8800       316
    89.9000       292
    89.9200       296
    89.9400       312
    89.9600       292
    89.9800       292
    90.0000       288
