    10.0000       344
    10.0200       378
    10.0400       380
    10.0600       352
    10.0800       366
    10.1000       382
    10.1200       350
    10.1400       380
    10.1600       354
    10.1800       342
    10.2000       362
    10.2200       316
    10.2400       344
    10.2600       370
    10.2800       336
    10.3000       316
    10.3200       356
    10.3400       356
    10.3600       374
    10.3800       320
    10.4000       310
    10.4200       356
    10.4400       350
    10.4600       328
    10.4800       352
    10.5000       316
    10.5200       314
    10.5400       318
    10.5600       338
    10.5800       338
    10.6000       362
    10.6200       358
    10.6400       318
    10.6600       328
    10.6800       354
    10.7000       316
    10.7200       344
    10.7400       334
    10.7600       306
    10.7800       308
    10.8000       344
    10.8200       362
    10.8400       350
    10.8600       330
    10.8800       312
    10.9000       356
    10.9200       374
    10.9400       330
    10.9600       306
    10.9800       318
    11.0000       322
    11.0200       308
    11.0400       288
    11.0600       322
    11.0800       318
    11.1000       362
    11.1200       350
    11.1400       332
    11.1600       330
    11.1800       340
    11.2000       328
    11.2200       318
    11.2400       310
    11.2600       344
    11.2800       320
    11.3000       338
    11.3200       306
    11.3400       306
    11.3600       296
    11.3800       344
    11.4000       316
    11.4200       304
    11.4400       334
    11.4600       298
    11.4800       308
    11.5000       294
    11.5200       320
    11.5400       302
    11.5600       292
    11.5800       330
    11.6000       308
    11.6200       300
    11.6400       306
    11.6600       316
    11.6800       310
    11.7000       298
    11.7200       290
    11.7400       304
    11.7600       340
    11.7800       300
    11.8000       290
    11.8200       298
    11.8400       314
    11.8600       310
    11.8800       306
    11.9000       296
    11.9200       306
    11.9400       330
    11.9600       308
    11.9800       292
    12.0000       294
    12.0200       298
    12.0400       316
    12.0600       324
    12.0800       292
    12.1000       254
    12.1200       314
    12.1400       270
    12.1600       288
    12.1800       316
    12.2000       302
    12.2200       266
    12.2400       274
    12.2600       270
    12.2800       282
    12.3000       308
    12.3200       276
    12.3400       286
    12.3600       272
    12.3800       286
    12.4000       286
    12.4200       298
    12.4400       292
    12.4600       300
    12.4800       254
    12.5000       296
    12.5200       322
    12.5400       306
    12.5600       286
    12.5800       284
    12.6000       276
    12.6200       282
    12.6400       276
    12.6600       274
    12.6800       286
    12.7000       284
    12.7200       272
    12.7400       238
    12.7600       288
    12.7800       302
    12.8000       268
    12.8200       268
    12.8400       248
    12.8600       258
    12.8800       270
    12.9000       260
    12.9200       288
    12.9400       288
    12.9600       280
    12.9800       304
    13.0000       318
    13.0200       266
    13.0400       278
    13.0600       254
    13.0800       242
    13.1000       284
    13.1200       272
    13.1400       282
    13.1600       240
    13.1800       256
    13.2000       240
    13.2200       238
    13.2400       268
    13.2600       262
    13.2800       246
    13.3000       252
    13.3200       246
    13.3400       266
    13.3600       236
    13.3800       258
    13.4000       250
    13.4200       268
    13.4400       240
    13.4600       268
    13.4800       254
    13.5000       274
    13.5200       230
    13.5400       216
    13.5600       254
    13.5800       238
    13.6000       234
    13.6200       242
    13.6400       220
    13.6600       256
    13.6800       272
    13.7000       242
    13.7200       244
    13.7400       262
    13.7600       262
    13.7800       238
    13.8000       240
    13.8200       236
    13.8400       232
    13.8600       224
    13.8800       244
    13.9000       250
    13.9200       228
    13.9400       242
    13.9600       278
    13.9800       258
    14.0000       244
    14.0200       260
    14.0400       242
    14.0600       238
    14.0800       258
    14.1000       258
    14.1200       242
    14.1400       242
    14.1600       246
    14.1800       232
    14.2000       246
    14.2200       228
    14.2400       248
    14.2600       248
    14.2800       280
    14.3000       252
    14.3200       258
    14.3400       224
    14.3600       262
    14.3800       238
    14.4000       214
    14.4200       232
    14.4400       248
    14.4600       246
    14.4800       248
    14.5000       226
    14.5200       248
    14.5400       248
    14.5600       226
    14.5800       236
    14.6000       260
    14.6200       246
    14.6400       254
    14.6600       238
    14.6800       220
    14.7000       248
    14.7200       218
    14.7400       228
    14.7600       252
    14.7800       230
    14.8000       236
    14.8200       222
    14.8400       210
    14.8600       236
    14.8800       192
    14.9000       250
    14.9200       236
    14.9400       246
    14.9600       246
    14.9800       224
    15.0000       226
    15.0200       210
    15.0400       242
    15.0600       216
    15.0800       222
    15.1000       234
    15.1200       210
    15.1400       254
    15.1600       226
    15.1800       238
    15.2000       232
    15.2200       208
    15.2400       234
    15.2600       238
    15.2800       246
    15.3000       224
    15.3200       260
    15.3400       232
    15.3600       232
    15.3800       222
    15.4000       252
    15.4200       246
    15.4400       260
    15.4600       254
    15.4800       264
    15.5000       248
    15.5200       190
    15.5400       220
    15.5600       218
    15.5800       246
    15.6000       234
    15.6200       230
    15.6400       236
    15.6600       250
    15.6800       230
    15.7000       260
    15.7200       250
    15.7400       266
    15.7600       240
    15.7800       262
    15.8000       240
    15.8200       248
    15.8400       246
    15.8600       252
    15.8800       214
    15.9000       238
    15.9200       226
    15.9400       226
    15.9600       236
    15.9800       196
    16.0000       214
    16.0200       218
    16.0400       228
    16.0600       186
    16.0800       208
    16.1000       216
    16.1200       214
    16.1400       210
    16.1600       200
    16.1800       198
    16.2000       232
    16.2200       238
    16.2400       246
    16.2600       210
    16.2800       222
    16.3000       216
    16.3200       218
    16.3400       210
    16.3600       206
    16.3800       214
    16.4000       198
    16.4200       228
    16.4400       208
    16.4600       192
    16.4800       208
    16.5000       200
    16.5200       200
    16.5400       216
    16.5600       218
    16.5800       242
    16.6000       200
    16.6200       242
    16.6400       212
    16.6600       216
    16.6800       206
    16.7000       198
    16.7200       232
    16.7400       218
    16.7600       190
    16.7800       232
    16.8000       196
    16.8200       218
    16.8400       188
    16.8600       194
    16.8800       244
    16.9000       202
    16.9200       202
    16.9400       204
    16.9600       238
    16.9800       200
    17.0000       220
    17.0200       214
    17.0400       208
    17.0600       212
    17.0800       236
    17.1000       240
    17.1200       204
    17.1400       202
    17.1600       188
    17.1800       192
    17.2000       218
    17.2200       198
    17.2400       212
    17.2600       236
    17.2800       192
    17.3000       212
    17.3200       206
    17.3400       184
    17.3600       202
    17.3800       216
    17.4000       224
    17.4200       200
    17.4400       210
    17.4600       224
    17.4800       188
    17.5000       188
    17.5200       218
    17.5400       214
    17.5600       230
    17.5800       194
    17.6000       208
    17.6200       200
    17.6400       196
    17.6600       206
    17.6800       208
    17.7000       222
    17.7200       210
    17.7400       198
    17.7600       212
    17.7800       194
    17.8000       208
    17.8200       216
    17.8400       188
    17.8600       214
    17.8800       160
    17.9000       204
    17.9200       204
    17.9400       206
    17.9600       204
    17.9800       228
    18.0000       202
    18.0200       224
    18.0400       204
    18.0600       226
    18.0800       186
    18.1000       202
    18.1200       174
    18.1400       186
    18.1600       188
    18.1800       214
    18.2000       190
    18.2200       202
    18.2400       202
    18.2600       198
    18.2800       228
    18.3000       212
    18.3200       226
    18.3400       198
    18.3600       226
    18.3800       204
    18.4000       204
    18.4200       190
    18.4400       264
    18.4600       234
    18.4800       228
    18.5000       244
    18.5200       244
    18.5400       256
    18.5600       240
    18.5800       268
    18.6000       286
    18.6200       280
    18.6400       274
    18.6600       292
    18.6800       270
    18.7000       294
    18.7200       282
    18.7400       322
    18.7600       334
    18.7800       358
    18.8000       352
    18.8200       376
    18.8400       408
    18.8600       454
    18.8800       480
    18.9000       472
    18.9200       544
    18.9400       520
    18.9600       550
    18.9800       514
    19.0000       492
    19.0200       508
    19.0400       464
    19.0600       440
    19.0800       438
    19.1000       424
    19.1200       434
    19.1400       464
    19.1600       480
    19.1800       542
    19.2000       548
    19.2200       632
    19.2400       662
    19.2600       782
    19.2800       794
    19.3000       912
    19.3200      1064
    19.3400      1172
    19.3600      1366
    19.3800      1498
    19.4000      1784
    19.4200      2150
    19.4400      2516
    19.4600      2808
    19.4800      3368
    19.5000      3788
    19.5200      4134
    19.5400      4170
    19.5600      3956
    19.5800      3436
    19.6000      2910
    19.6200      2426
    19.6400      2026
    19.6600      1554
    19.6800      1328
    19.7000      1202
    19.7200      1100
    19.7400      1178
    19.7600      1244
    19.7800      1308
    19.8000      1330
    19.8200      1512
    19.8400      1622
    19.8600      1896
    19.8800      2200
    19.9000      2326
    19.9200      2632
    19.9400      3054
    19.9600      3158
    19.9800      3228
    20.0000      3148
    20.0200      2762
    20.0400      2360
    20.0600      1896
    20.0800      1532
    20.1000      1150
    20.1200       826
    20.1400       748
    20.1600       628
    20.1800       520
    20.2000       492
    20.2200       438
    20.2400       408
    20.2600       394
    20.2800       348
    20.3000       320
    20.3200       334
    20.3400       324
    20.3600       312
    20.3800       308
    20.4000       256
    20.4200       288
    20.4400       300
    20.4600       260
    20.4800       234
    20.5000       242
    20.5200       250
    20.5400       242
    20.5600       204
    20.5800       232
    20.6000       224
    20.6200       238
    20.6400       242
    20.6600       220
    20.6800       230
    20.7000       238
    20.7200       242
    20.7400       230
    20.7600       204
    20.7800       230
    20.8000       214
    20.8200       232
    20.8400       216
    20.8600       226
    20.8800       234
    20.9000       200
    20.9200       224
    20.9400       232
    20.9600       190
    20.9800       216
    21.0000       218
    21.0200       226
    21.0400       214
    21.0600       192
    21.0800       204
    21.1000       210
    21.1200       230
    21.1400       236
    21.1600       184
    21.1800       224
    21.2000       230
    21.2200       220
    21.2400       198
    21.2600       228
    21.2800       202
    21.3000       194
    21.3200       182
    21.3400       206
    21.3600       228
    21.3800       192
    21.4000       200
    21.4200       200
    21.4400       208
    21.4600       230
    21.4800       214
    21.5000       196
    21.5200       200
    21.5400       236
    21.5600       212
    21.5800       212
    21.6000       204
    21.6200       226
    21.6400       224
    21.6600       230
    21.6800       208
    21.7000       200
    21.7200       226
    21.7400       214
    21.7600       250
    21.7800       244
    21.8000       262
    21.8200       220
    21.8400       246
    21.8600       270
    21.8800       278
    21.9000       270
    21.9200       218
    21.9400       224
    21.9600       246
    21.9800       268
    22.0000       268
    22.0200       260
    22.0400       234
    22.0600       220
    22.0800       242
    22.1000       264
    22.1200       240
    22.1400       216
    22.1600       230
    22.1800       228
    22.2000       244
    22.2200       230
    22.2400       262
    22.2600       272
    22.2800       272
    22.3000       268
    22.3200       286
    22.3400       304
    22.3600       324
    22.3800       358
    22.4000       370
    22.4200       386
    22.4400       412
    22.4600       480
    22.4800       528
    22.5000       576
    22.5200       646
    22.5400       740
    22.5600       752
    22.5800       872
    22.6000      1012
    22.6200      1128
    22.6400      1362
    22.6600      1470
    22.6800      1786
    22.7000      2176
    22.7200      2532
    22.7400      3034
    22.7600      3532
    22.7800      4212
    22.8000      4764
    22.8200      5464
    22.8400      5812
    22.8600      5804
    22.8800      5692
    22.9000      4934
    22.9200      4126
    22.9400      3472
    22.9600      2762
    22.9800      2192
    23.0000      1858
    23.0200      1518
    23.0400      1346
    23.0600      1228
    23.0800      1088
    23.1000      1048
    23.1200      1012
    23.1400       870
    23.1600       864
    23.1800       750
    23.2000       710
    23.2200       628
    23.2400       604
    23.2600       546
    23.2800       560
    23.3000       492
    23.3200       512
    23.3400       416
    23.3600       436
    23.3800       386
    23.4000       310
    23.4200       340
    23.4400       334
    23.4600       340
    23.4800       348
    23.5000       306
    23.5200       312
    23.5400       278
    23.5600       288
    23.5800       304
    23.6000       286
    23.6200       266
    23.6400       278
    23.6600       264
    23.6800       276
    23.7000       268
    23.7200       254
    23.7400       256
    23.7600       238
    23.7800       284
    23.8000       274
    23.8200       300
    23.8400       278
    23.8600       264
    23.8800       278
    23.9000       268
    23.9200       252
    23.9400       260
    23.9600       238
    23.9800       290
    24.0000       278
    24.0200       252
    24.0400       276
    24.0600       274
    24.0800       252
    24.1000       260
    24.1200       234
    24.1400       268
    24.1600       230
    24.1800       262
    24.2000       258
    24.2200       254
    24.2400       258
    24.2600       280
    24.2800       256
    24.3000       264
    24.3200       288
    24.3400       294
    24.3600       294
    24.3800       268
    24.4000       266
    24.4200       260
    24.4400       266
    24.4600       240
    24.4800       258
    24.5000       294
    24.5200       248
    24.5400       260
    24.5600       262
    24.5800       240
    24.6000       212
    24.6200       236
    24.6400       230
    24.6600       222
    24.6800       198
    24.7000       192
    24.7200       202
    24.7400       206
    24.7600       192
    24.7800       186
    24.8000       216
    24.8200       188
    24.8400       200
    24.8600       226
    24.8800       222
    24.9000       198
    24.9200       194
    24.9400       196
    24.9600       210
    24.9800       244
    25.0000       232
    25.0200       232
    25.0400       208
    25.0600       188
    25.0800       222
    25.1000       228
    25.1200       224
    25.1400       216
    25.1600       246
    25.1800       248
    25.2000       276
    25.2200       240
    25.2400       280
    25.2600       290
    25.2800       304
    25.3000       316
    25.3200       340
    25.3400       354
    25.3600       366
    25.3800       458
    25.4000       436
    25.4200       496
    25.4400       582
    25.4600       676
    25.4800       750
    25.5000       852
    25.5200       960
    25.5400      1118
    25.5600      1164
    25.5800      1276
    25.6000      1224
    25.6200      1262
    25.6400      1070
    25.6600       952
    25.6800       824
    25.7000       764
    25.7200       568
    25.7400       516
    25.7600       452
    25.7800       432
    25.8000       350
    25.8200       342
    25.8400       312
    25.8600       276
    25.8800       302
    25.9000       270
    25.9200       274
    25.9400       266
    25.9600       268
    25.9800       266
    26.0000       264
    26.0200       246
    26.0400       242
    26.0600       236
    26.0800       232
    26.1000       244
    26.1200       242
    26.1400       262
    26.1600       246
    26.1800       284
    26.2000       262
    26.2200       272
    26.2400       304
    26.2600       248
    26.2800       290
    26.3000       294
    26.3200       296
    26.3400       330
    26.3600       272
    26.3800       306
    26.4000       326
    26.4200       294
    26.4400       310
    26.4600       298
    26.4800       288
    26.5000       348
    26.5200       340
    26.5400       320
    26.5600       318
    26.5800       314
    26.6000       312
    26.6200       314
    26.6400       296
    26.6600       324
    26.6800       302
    26.7000       288
    26.7200       304
    26.7400       268
    26.7600       262
    26.7800       268
    26.8000       268
    26.8200       222
    26.8400       222
    26.8600       254
    26.8800       264
    26.9000       230
    26.9200       246
    26.9400       202
    26.9600       214
    26.9800       236
    27.0000       220
    27.0200       226
    27.0400       226
    27.0600       222
    27.0800       244
    27.1000       246
    27.1200       234
    27.1400       196
    27.1600       236
    27.1800       220
    27.2000       210
    27.2200       240
    27.2400       200
    27.2600       248
    27.2800       196
    27.3000       222
    27.3200       208
    27.3400       228
    27.3600       226
    27.3800       186
    27.4000       214
    27.4200       220
    27.4400       236
    27.4600       228
    27.4800       220
    27.5000       254
    27.5200       208
    27.5400       238
    27.5600       226
    27.5800       226
    27.6000       212
    27.6200       234
    27.6400       252
    27.6600       236
    27.6800       220
    27.7000       262
    27.7200       248
    27.7400       278
    27.7600       294
    27.7800       306
    27.8000       326
    27.8200       306
    27.8400       378
    27.8600       376
    27.8800       444
    27.9000       458
    27.9200       468
    27.9400       550
    27.9600       616
    27.9800       590
    28.0000       678
    28.0200       790
    28.0400       908
    28.0600      1024
    28.0800      1292
    28.1000      1418
    28.1200      1698
    28.1400      1952
    28.1600      2324
    28.1800      2634
    28.2000      3190
    28.2200      3392
    28.2400      3726
    28.2600      3836
    28.2800      3708
    28.3000      3464
    28.3200      3038
    28.3400      2608
    28.3600      2202
    28.3800      1824
    28.4000      1504
    28.4200      1134
    28.4400      1000
    28.4600       776
    28.4800       690
    28.5000       604
    28.5200       544
    28.5400       472
    28.5600       408
    28.5800       384
    28.6000       320
    28.6200       352
    28.6400       314
    28.6600       290
    28.6800       274
    28.7000       236
    28.7200       230
    28.7400       262
    28.7600       234
    28.7800       254
    28.8000       260
    28.8200       226
    28.8400       254
    28.8600       210
    28.8800       232
    28.9000       180
    28.9200       214
    28.9400       214
    28.9600       180
    28.9800       216
    29.0000       204
    29.0200       208
    29.0400       194
    29.0600       188
    29.0800       198
    29.1000       206
    29.1200       188
    29.1400       184
    29.1600       222
    29.1800       200
    29.2000       204
    29.2200       202
    29.2400       200
    29.2600       200
    29.2800       200
    29.3000       192
    29.3200       204
    29.3400       214
    29.3600       178
    29.3800       184
    29.4000       182
    29.4200       198
    29.4400       230
    29.4600       190
    29.4800       218
    29.5000       178
    29.5200       206
    29.5400       214
    29.5600       180
    29.5800       216
    29.6000       192
    29.6200       202
    29.6400       222
    29.6600       204
    29.6800       190
    29.7000       210
    29.7200       198
    29.7400       208
    29.7600       182
    29.7800       198
    29.8000       208
    29.8200       186
    29.8400       196
    29.8600       190
    29.8800       180
    29.9000       192
    29.9200       226
    29.9400       214
    29.9600       204
    29.9800       190
    30.0000       200
    30.0200       212
    30.0400       178
    30.0600       198
    30.0800       196
    30.1000       218
    30.1200       220
    30.1400       230
    30.1600       202
    30.1800       230
    30.2000       206
    30.2200       238
    30.2400       224
    30.2600       208
    30.2800       238
    30.3000       224
    30.3200       248
    30.3400       274
    30.3600       246
    30.3800       226
    30.4000       236
    30.4200       236
    30.4400       236
    30.4600       252
    30.4800       252
    30.5000       234
    30.5200       244
    30.5400       256
    30.5600       288
    30.5800       264
    30.6000       296
    30.6200       272
    30.6400       290
    30.6600       272
    30.6800       254
    30.7000       308
    30.7200       292
    30.7400       352
    30.7600       346
    30.7800       332
    30.8000       366
    30.8200       364
    30.8400       414
    30.8600       440
    30.8800       466
    30.9000       490
    30.9200       564
    30.9400       592
    30.9600       580
    30.9800       714
    31.0000       798
    31.0200       848
    31.0400       992
    31.0600      1062
    31.0800      1110
    31.1000      1196
    31.1200      1350
    31.1400      1376
    31.1600      1420
    31.1800      1462
    31.2000      1434
    31.2200      1432
    31.2400      1340
    31.2600      1314
    31.2800      1220
    31.3000      1060
    31.3200       992
    31.3400       842
    31.3600       804
    31.3800       688
    31.4000       726
    31.4200       632
    31.4400       578
    31.4600       574
    31.4800       498
    31.5000       456
    31.5200       494
    31.5400       492
    31.5600       538
    31.5800       500
    31.6000       566
    31.6200       530
    31.6400       542
    31.6600       558
    31.6800       656
    31.7000       640
    31.7200       764
    31.7400       774
    31.7600       908
    31.7800       924
    31.8000      1070
    31.8200      1200
    31.8400      1244
    31.8600      1450
    31.8800      1708
    31.9000      1908
    31.9200      2304
    31.9400      2564
    31.9600      2758
    31.9800      2920
    32.0000      3006
    32.0200      2978
    32.0400      2732
    32.0600      2674
    32.0800      2332
    32.1000      2076
    32.1200      1934
    32.1400      1756
    32.1600      1598
    32.1800      1558
    32.2000      1528
    32.2200      1520
    32.2400      1644
    32.2600      1792
    32.2800      1876
    32.3000      2110
    32.3200      2360
    32.3400      2700
    32.3600      3148
    32.3800      3644
    32.4000      4298
    32.4200      5092
    32.4400      5810
    32.4600      6856
    32.4800      7732
    32.5000      8664
    32.5200      9380
    32.5400      9348
    32.5600      9764
    32.5800      9374
    32.6000      8626
    32.6200      7744
    32.6400      6940
    32.6600      6014
    32.6800      4882
    32.7000      4128
    32.7200      3418
    32.7400      2838
    32.7600      2340
    32.7800      2030
    32.8000      1848
    32.8200      1678
    32.8400      1544
    32.8600      1466
    32.8800      1398
    32.9000      1376
    32.9200      1468
    32.9400      1358
    32.9600      1508
    32.9800      1520
    33.0000      1716
    33.0200      1748
    33.0400      1970
    33.0600      1942
    33.0800      2004
    33.1000      1988
    33.1200      1896
    33.1400      1766
    33.1600      1502
    33.1800      1454
    33.2000      1242
    33.2200      1060
    33.2400       880
    33.2600       776
    33.2800       670
    33.3000       622
    33.3200       572
    33.3400       520
    33.3600       468
    33.3800       404
    33.4000       398
    33.4200       352
    33.4400       352
    33.4600       330
    33.4800       332
    33.5000       326
    33.5200       300
    33.5400       284
    33.5600       256
    33.5800       270
    33.6000       242
    33.6200       260
    33.6400       264
    33.6600       238
    33.6800       220
    33.7000       250
    33.7200       242
    33.7400       218
    33.7600       224
    33.7800       220
    33.8000       248
    33.8200       232
    33.8400       232
    33.8600       208
    33.8800       274
    33.9000       240
    33.9200       230
    33.9400       218
    33.9600       220
    33.9800       238
    34.0000       256
    34.0200       238
    34.0400       246
    34.0600       226
    34.0800       222
    34.1000       272
    34.1200       262
    34.1400       248
    34.1600       250
    34.1800       236
    34.2000       224
    34.2200       222
    34.2400       208
    34.2600       212
    34.2800       196
    34.3000       196
    34.3200       210
    34.3400       224
    34.3600       198
    34.3800       232
    34.4000       182
    34.4200       198
    34.4400       212
    34.4600       212
    34.4800       218
    34.5000       228
    34.5200       238
    34.5400       212
    34.5600       206
    34.5800       224
    34.6000       206
    34.6200       216
    34.6400       210
    34.6600       208
    34.6800       202
    34.7000       216
    34.7200       222
    34.7400       214
    34.7600       228
    34.7800       188
    34.8000       228
    34.8200       242
    34.8400       226
    34.8600       188
    34.8800       204
    34.9000       222
    34.9200       216
    34.9400       250
    34.9600       212
    34.9800       248
    35.0000       214
    35.0200       214
    35.0400       200
    35.0600       202
    35.0800       224
    35.1000       210
    35.1200       228
    35.1400       214
    35.1600       198
    35.1800       236
    35.2000       200
    35.2200       196
    35.2400       216
    35.2600       242
    35.2800       226
    35.3000       218
    35.3200       236
    35.3400       194
    35.3600       220
    35.3800       230
    35.4000       242
    35.4200       218
    35.4400       202
    35.4600       232
    35.4800       254
    35.5000       222
    35.5200       210
    35.5400       266
    35.5600       238
    35.5800       258
    35.6000       246
    35.6200       250
    35.6400       240
    35.6600       248
    35.6800       272
    35.7000       270
    35.7200       284
    35.7400       278
    35.7600       284
    35.7800       282
    35.8000       304
    35.8200       332
    35.8400       270
    35.8600       304
    35.8800       306
    35.9000       346
    35.9200       370
    35.9400       394
    35.9600       404
    35.9800       458
    36.0000       494
    36.0200       530
    36.0400       564
    36.0600       598
    36.0800       652
    36.1000       710
    36.1200       772
    36.1400       742
    36.1600       794
    36.1800       746
    36.2000       710
    36.2200       616
    36.2400       684
    36.2600       592
    36.2800       504
    36.3000       492
    36.3200       470
    36.3400       428
    36.3600       432
    36.3800       408
    36.4000       402
    36.4200       390
    36.4400       370
    36.4600       404
    36.4800       426
    36.5000       408
    36.5200       414
    36.5400       454
    36.5600       456
    36.5800       532
    36.6000       540
    36.6200       612
    36.6400       670
    36.6600       734
    36.6800       812
    36.7000       870
    36.7200       982
    36.7400      1144
    36.7600      1242
    36.7800      1552
    36.8000      1690
    36.8200      1892
    36.8400      1996
    36.8600      2312
    36.8800      2402
    36.9000      2358
    36.9200      2238
    36.9400      2070
    36.9600      1956
    36.9800      1712
    37.0000      1528
    37.0200      1348
    37.0400      1180
    37.0600      1058
    37.0800       950
    37.1000       830
    37.1200       720
    37.1400       692
    37.1600       618
    37.1800       642
    37.2000       570
    37.2200       528
    37.2400       548
    37.2600       500
    37.2800       456
    37.3000       440
    37.3200       452
    37.3400       410
    37.3600       444
    37.3800       432
    37.4000       382
    37.4200       398
    37.4400       424
    37.4600       414
    37.4800       428
    37.5000       444
    37.5200       462
    37.5400       436
    37.5600       424
    37.5800       432
    37.6000       440
    37.6200       458
    37.6400       524
    37.6600       514
    37.6800       548
    37.7000       588
    37.7200       578
    37.7400       648
    37.7600       710
    37.7800       760
    37.8000       820
    37.8200       902
    37.8400      1018
    37.8600      1180
    37.8800      1218
    37.9000      1424
    37.9200      1676
    37.9400      1816
    37.9600      2046
    37.9800      2256
    38.0000      2438
    38.0200      2436
    38.0400      2440
    38.0600      2430
    38.0800      2370
    38.1000      2216
    38.1200      2162
    38.1400      1942
    38.1600      1940
    38.1800      1930
    38.2000      1852
    38.2200      1918
    38.2400      1886
    38.2600      2124
    38.2800      2230
    38.3000      2426
    38.3200      2760
    38.3400      2966
    38.3600      3278
    38.3800      3814
    38.4000      4184
    38.4200      4624
    38.4400      4986
    38.4600      5374
    38.4800      5532
    38.5000      5446
    38.5200      5526
    38.5400      5254
    38.5600      5054
    38.5800      4784
    38.6000      4592
    38.6200      4584
    38.6400      4400
    38.6600      4344
    38.6800      4322
    38.7000      4244
    38.7200      4094
    38.7400      3948
    38.7600      3840
    38.7800      3624
    38.8000      3212
    38.8200      3026
    38.8400      2628
    38.8600      2390
    38.8800      2162
    38.9000      1794
    38.9200      1550
    38.9400      1436
    38.9600      1240
    38.9800      1132
    39.0000       960
    39.0200       878
    39.0400       820
    39.0600       816
    39.0800       760
    39.1000       702
    39.1200       720
    39.1400       636
    39.1600       676
    39.1800       620
    39.2000       538
    39.2200       590
    39.2400       588
    39.2600       590
    39.2800       598
    39.3000       582
    39.3200       566
    39.3400       606
    39.3600       622
    39.3800       656
    39.4000       696
    39.4200       714
    39.4400       828
    39.4600       852
    39.4800       972
    39.5000      1130
    39.5200      1150
    39.5400      1240
    39.5600      1496
    39.5800      1720
    39.6000      1906
    39.6200      2156
    39.6400      2410
    39.6600      2588
    39.6800      2756
    39.7000      2768
    39.7200      2614
    39.7400      2486
    39.7600      2360
    39.7800      2176
    39.8000      1956
    39.8200      1792
    39.8400      1502
    39.8600      1328
    39.8800      1124
    39.9000       982
    39.9200       876
    39.9400       718
    39.9600       670
    39.9800       642
    40.0000       572
    40.0200       582
    40.0400       512
    40.0600       526
    40.0800       466
    40.1000       492
    40.1200       458
    40.1400       478
    40.1600       506
    40.1800       498
    40.2000       506
    40.2200       510
    40.2400       526
    40.2600       510
    40.2800       576
    40.3000       596
    40.3200       596
    40.3400       630
    40.3600       656
    40.3800       714
    40.4000       806
    40.4200       866
    40.4400       948
    40.4600      1048
    40.4800      1098
    40.5000      1228
    40.5200      1374
    40.5400      1398
    40.5600      1508
    40.5800      1510
    40.6000      1510
    40.6200      1504
    40.6400      1458
    40.6600      1374
    40.6800      1344
    40.7000      1200
    40.7200      1116
    40.7400       988
    40.7600       970
    40.7800       810
    40.8000       762
    40.8200       702
    40.8400       642
    40.8600       580
    40.8800       590
    40.9000       510
    40.9200       484
    40.9400       482
    40.9600       506
    40.9800       426
    41.0000       452
    41.0200       418
    41.0400       394
    41.0600       396
    41.0800       414
    41.1000       394
    41.1200       374
    41.1400       374
    41.1600       380
    41.1800       360
    41.2000       368
    41.2200       384
    41.2400       378
    41.2600       382
    41.2800       382
    41.3000       368
    41.3200       366
    41.3400       372
    41.3600       394
    41.3800       384
    41.4000       370
    41.4200       384
    41.4400       414
    41.4600       432
    41.4800       438
    41.5000       436
    41.5200       468
    41.5400       514
    41.5600       546
    41.5800       560
    41.6000       536
    41.6200       632
    41.6400       650
    41.6600       698
    41.6800       830
    41.7000       948
    41.7200      1048
    41.7400      1126
    41.7600      1318
    41.7800      1460
    41.8000      1602
    41.8200      1778
    41.8400      2022
    41.8600      2044
    41.8800      2144
    41.9000      2146
    41.9200      2064
    41.9400      1966
    41.9600      1912
    41.9800      1714
    42.0000      1596
    42.0200      1492
    42.0400      1272
    42.0600      1188
    42.0800      1016
    42.1000       948
    42.1200       782
    42.1400       800
    42.1600       692
    42.1800       656
    42.2000       576
    42.2200       550
    42.2400       526
    42.2600       486
    42.2800       494
    42.3000       418
    42.3200       458
    42.3400       472
    42.3600       426
    42.3800       440
    42.4000       380
    42.4200       376
    42.4400       414
    42.4600       396
    42.4800       364
    42.5000       354
    42.5200       364
    42.5400       386
    42.5600       356
    42.5800       368
    42.6000       364
    42.6200       360
    42.6400       360
    42.6600       404
    42.6800       366
    42.7000       394
    42.7200       368
    42.7400       394
    42.7600       420
    42.7800       446
    42.8000       486
    42.8200       446
    42.8400       510
    42.8600       492
    42.8800       484
    42.9000       592
    42.9200       608
    42.9400       706
    42.9600       734
    42.9800       830
    43.0000       812
    43.0200       992
    43.0400      1118
    43.0600      1226
    43.0800      1382
    43.1000      1496
    43.1200      1650
    43.1400      1846
    43.1600      1910
    43.1800      1976
    43.2000      2098
    43.2200      2112
    43.2400      1936
    43.2600      1834
    43.2800      1766
    43.3000      1652
    43.3200      1450
    43.3400      1326
    43.3600      1154
    43.3800      1052
    43.4000       952
    43.4200       846
    43.4400       768
    43.4600       694
    43.4800       624
    43.5000       568
    43.5200       586
    43.5400       544
    43.5600       532
    43.5800       516
    43.6000       524
    43.6200       554
    43.6400       590
    43.6600       606
    43.6800       606
    43.7000       628
    43.7200       652
    43.7400       676
    43.7600       790
    43.7800       880
    43.8000       766
    43.8200       820
    43.8400       776
    43.8600       800
    43.8800       752
    43.9000       744
    43.9200       704
    43.9400       712
    43.9600       680
    43.9800       616
    44.0000       622
    44.0200       548
    44.0400       542
    44.0600       502
    44.0800       468
    44.1000       476
    44.1200       478
    44.1400       446
    44.1600       490
    44.1800       480
    44.2000       434
    44.2200       486
    44.2400       458
    44.2600       502
    44.2800       508
    44.3000       486
    44.3200       472
    44.3400       560
    44.3600       550
    44.3800       602
    44.4000       694
    44.4200       698
    44.4400       692
    44.4600       702
    44.4800       766
    44.5000       860
    44.5200       870
    44.5400       924
    44.5600      1024
    44.5800      1054
    44.6000      1106
    44.6200      1160
    44.6400      1168
    44.6600      1260
    44.6800      1274
    44.7000      1258
    44.7200      1358
    44.7400      1260
    44.7600      1270
    44.7800      1218
    44.8000      1032
    44.8200      1092
    44.8400      1004
    44.8600       964
    44.8800       876
    44.9000       838
    44.9200       774
    44.9400       776
    44.9600       700
    44.9800       606
    45.0000       612
    45.0200       590
    45.0400       552
    45.0600       528
    45.0800       512
    45.1000       464
    45.1200       472
    45.1400       456
    45.1600       424
    45.1800       450
    45.2000       452
    45.2200       396
    45.2400       434
    45.2600       432
    45.2800       396
    45.3000       380
    45.3200       386
    45.3400       422
    45.3600       408
    45.3800       360
    45.4000       394
    45.4200       410
    45.4400       374
    45.4600       406
    45.4800       414
    45.5000       402
    45.5200       430
    45.5400       414
    45.5600       416
    45.5800       428
    45.6000       422
    45.6200       448
    45.6400       422
    45.6600       422
    45.6800       464
    45.7000       394
    45.7200       438
    45.7400       462
    45.7600       452
    45.7800       450
    45.8000       454
    45.8200       462
    45.8400       488
    45.8600       498
    45.8800       506
    45.9000       486
    45.9200       512
    45.9400       548
    45.9600       506
    45.9800       524
    46.0000       578
    46.0200       572
    46.0400       616
    46.0600       586
    46.0800       582
    46.1000       638
    46.1200       646
    46.1400       674
    46.1600       758
    46.1800       776
    46.2000       790
    46.2200       850
    46.2400       924
    46.2600       946
    46.2800      1030
    46.3000      1058
    46.3200      1214
    46.3400      1324
    46.3600      1434
    46.3800      1544
    46.4000      1884
    46.4200      1998
    46.4400      2136
    46.4600      2478
    46.4800      2722
    46.5000      3320
    46.5200      3672
    46.5400      4262
    46.5600      4732
    46.5800      5582
    46.6000      6370
    46.6200      7178
    46.6400      8012
    46.6600      8910
    46.6800      9254
    46.7000      9594
    46.7200      9720
    46.7400      9446
    46.7600      9246
    46.7800      8774
    46.8000      8232
    46.8200      7842
    46.8400      7312
    46.8600      6954
    46.8800      6596
    46.9000      6120
    46.9200      5942
    46.9400      5568
    46.9600      5602
    46.9800      5282
    47.0000      4990
    47.0200      4836
    47.0400      4546
    47.0600      4136
    47.0800      3832
    47.1000      3574
    47.1200      3234
    47.1400      3000
    47.1600      2744
    47.1800      2338
    47.2000      2222
    47.2200      1904
    47.2400      1800
    47.2600      1520
    47.2800      1432
    47.3000      1316
    47.3200      1182
    47.3400      1198
    47.3600      1076
    47.3800      1016
    47.4000       978
    47.4200       902
    47.4400       866
    47.4600       870
    47.4800       822
    47.5000       774
    47.5200       740
    47.5400       656
    47.5600       708
    47.5800       710
    47.6000       764
    47.6200       676
    47.6400       720
    47.6600       684
    47.6800       700
    47.7000       740
    47.7200       808
    47.7400       804
    47.7600       868
    47.7800       878
    47.8000       910
    47.8200      1010
    47.8400       964
    47.8600       920
    47.8800       932
    47.9000       944
    47.9200       928
    47.9400       862
    47.9600       830
    47.9800       832
    48.0000       780
    48.0200       784
    48.0400       762
    48.0600       790
    48.0800       804
    48.1000       804
    48.1200       820
    48.1400       878
    48.1600       862
    48.1800       914
    48.2000       960
    48.2200       924
    48.2400       912
    48.2600       884
    48.2800       922
    48.3000       784
    48.3200       800
    48.3400       772
    48.3600       686
    48.3800       700
    48.4000       592
    48.4200       572
    48.4400       576
    48.4600       524
    48.4800       478
    48.5000       442
    48.5200       428
    48.5400       408
    48.5600       368
    48.5800       394
    48.6000       316
    48.6200       344
    48.6400       350
    48.6600       386
    48.6800       292
    48.7000       330
    48.7200       318
    48.7400       348
    48.7600       326
    48.7800       348
    48.8000       346
    48.8200       350
    48.8400       330
    48.8600       306
    48.8800       346
    48.9000       324
    48.9200       336
    48.9400       350
    48.9600       346
    48.9800       340
    49.0000       330
    49.0200       306
    49.0400       340
    49.0600       290
    49.0800       320
    49.1000       334
    49.1200       330
    49.1400       312
    49.1600       310
    49.1800       250
    49.2000       284
    49.2200       292
    49.2400       280
    49.2600       308
    49.2800       302
    49.3000       298
    49.3200       306
    49.3400       284
    49.3600       302
    49.3800       244
    49.4000       240
    49.4200       264
    49.4400       252
    49.4600       302
    49.4800       290
    49.5000       264
    49.5200       286
    49.5400       274
    49.5600       278
    49.5800       284
    49.6000       300
    49.6200       324
    49.6400       314
    49.6600       280
    49.6800       288
    49.7000       304
    49.7200       298
    49.7400       274
    49.7600       292
    49.7800       268
    49.8000       292
    49.8200       308
    49.8400       284
    49.8600       256
    49.8800       270
    49.9000       288
    49.9200       294
    49.9400       266
    49.9600       294
    49.9800       288
    50.0000       278
    50.0200       338
    50.0400       300
    50.0600       286
    50.0800       280
    50.1000       298
    50.1200       306
    50.1400       284
    50.1600       292
    50.1800       308
    50.2000       302
    50.2200       354
    50.2400       338
    50.2600       320
    50.2800       318
    50.3000       308
    50.3200       376
    50.3400       342
    50.3600       328
    50.3800       362
    50.4000       332
    50.4200       332
    50.4400       376
    50.4600       294
    50.4800       336
    50.5000       338
    50.5200       356
    50.5400       314
    50.5600       350
    50.5800       350
    50.6000       346
    50.6200       324
    50.6400       398
    50.6600       368
    50.6800       368
    50.7000       408
    50.7200       424
    50.7400       482
    50.7600       480
    50.7800       502
    50.8000       532
    50.8200       536
    50.8400       662
    50.8600       676
    50.8800       708
    50.9000       748
    50.9200       790
    50.9400       748
    50.9600       700
    50.9800       752
    51.0000       708
    51.0200       682
    51.0400       646
    51.0600       612
    51.0800       624
    51.1000       608
    51.1200       594
    51.1400       558
    51.1600       510
    51.1800       534
    51.2000       488
    51.2200       494
    51.2400       502
    51.2600       506
    51.2800       534
    51.3000       544
    51.3200       586
    51.3400       600
    51.3600       630
    51.3800       670
    51.4000       694
    51.4200       696
    51.4400       730
    51.4600       696
    51.4800       684
    51.5000       702
    51.5200       658
    51.5400       636
    51.5600       638
    51.5800       642
    51.6000       596
    51.6200       616
    51.6400       638
    51.6600       652
    51.6800       662
    51.7000       674
    51.7200       734
    51.7400       766
    51.7600       836
    51.7800       912
    51.8000       984
    51.8200       978
    51.8400      1048
    51.8600      1050
    51.8800      1014
    51.9000       972
    51.9200      1104
    51.9400       994
    51.9600      1016
    51.9800      1018
    52.0000       908
    52.0200       952
    52.0400       906
    52.0600       866
    52.0800       806
    52.1000       800
    52.1200       732
    52.1400       734
    52.1600       724
    52.1800       648
    52.2000       636
    52.2200       658
    52.2400       588
    52.2600       644
    52.2800       646
    52.3000       682
    52.3200       624
    52.3400       748
    52.3600       696
    52.3800       812
    52.4000       808
    52.4200       902
    52.4400       924
    52.4600      1060
    52.4800      1072
    52.5000      1250
    52.5200      1324
    52.5400      1496
    52.5600      1412
    52.5800      1590
    52.6000      1662
    52.6200      1650
    52.6400      1594
    52.6600      1534
    52.6800      1502
    52.7000      1508
    52.7200      1424
    52.7400      1338
    52.7600      1284
    52.7800      1192
    52.8000      1096
    52.8200      1058
    52.8400       946
    52.8600       954
    52.8800       862
    52.9000       790
    52.9200       860
    52.9400       802
    52.9600       804
    52.9800       830
    53.0000       818
    53.0200       836
    53.0400       910
    53.0600      1036
    53.0800       984
    53.1000      1098
    53.1200      1166
    53.1400      1254
    53.1600      1414
    53.1800      1510
    53.2000      1700
    53.2200      1796
    53.2400      1828
    53.2600      1846
    53.2800      1880
    53.3000      1914
    53.3200      1840
    53.3400      1724
    53.3600      1674
    53.3800      1626
    53.4000      1502
    53.4200      1412
    53.4400      1264
    53.4600      1250
    53.4800      1042
    53.5000      1002
    53.5200       872
    53.5400       770
    53.5600       734
    53.5800       630
    53.6000       610
    53.6200       540
    53.6400       466
    53.6600       468
    53.6800       460
    53.7000       462
    53.7200       406
    53.7400       406
    53.7600       364
    53.7800       384
    53.8000       352
    53.8200       312
    53.8400       316
    53.8600       370
    53.8800       332
    53.9000       346
    53.9200       322
    53.9400       342
    53.9600       294
    53.9800       332
    54.0000       328
    54.0200       330
    54.0400       310
    54.0600       310
    54.0800       326
    54.1000       282
    54.1200       270
    54.1400       296
    54.1600       294
    54.1800       314
    54.2000       308
    54.2200       290
    54.2400       352
    54.2600       314
    54.2800       328
    54.3000       352
    54.3200       358
    54.3400       334
    54.3600       358
    54.3800       376
    54.4000       398
    54.4200       386
    54.4400       416
    54.4600       428
    54.4800       484
    54.5000       502
    54.5200       510
    54.5400       592
    54.5600       570
    54.5800       648
    54.6000       586
    54.6200       674
    54.6400       656
    54.6600       772
    54.6800       820
    54.7000       840
    54.7200       828
    54.7400       860
    54.7600       886
    54.7800       828
    54.8000       856
    54.8200       770
    54.8400       780
    54.8600       772
    54.8800       674
    54.9000       650
    54.9200       674
    54.9400       624
    54.9600       604
    54.9800       546
    55.0000       486
    55.0200       504
    55.0400       494
    55.0600       484
    55.0800       418
    55.1000       428
    55.1200       404
    55.1400       438
    55.1600       426
    55.1800       392
    55.2000       402
    55.2200       416
    55.2400       436
    55.2600       456
    55.2800       470
    55.3000       460
    55.3200       476
    55.3400       466
    55.3600       526
    55.3800       548
    55.4000       574
    55.4200       588
    55.4400       570
    55.4600       650
    55.4800       610
    55.5000       674
    55.5200       708
    55.5400       730
    55.5600       762
    55.5800       830
    55.6000       808
    55.6200       916
    55.6400       970
    55.6600      1068
    55.6800      1108
    55.7000      1148
    55.7200      1228
    55.7400      1250
    55.7600      1218
    55.7800      1178
    55.8000      1168
    55.8200      1050
    55.8400      1024
    55.8600      1016
    55.8800       962
    55.9000       882
    55.9200       886
    55.9400       780
    55.9600       716
    55.9800       612
    56.0000       570
    56.0200       552
    56.0400       508
    56.0600       484
    56.0800       468
    56.1000       420
    56.1200       408
    56.1400       382
    56.1600       348
    56.1800       342
    56.2000       314
    56.2200       338
    56.2400       350
    56.2600       318
    56.2800       308
    56.3000       342
    56.3200       288
    56.3400       310
    56.3600       308
    56.3800       330
    56.4000       284
    56.4200       278
    56.4400       286
    56.4600       316
    56.4800       296
    56.5000       302
    56.5200       284
    56.5400       320
    56.5600       306
    56.5800       284
    56.6000       286
    56.6200       308
    56.6400       300
    56.6600       272
    56.6800       300
    56.7000       298
    56.7200       328
    56.7400       318
    56.7600       376
    56.7800       328
    56.8000       336
    56.8200       344
    56.8400       372
    56.8600       362
    56.8800       414
    56.9000       362
    56.9200       436
    56.9400       422
    56.9600       412
    56.9800       456
    57.0000       458
    57.0200       474
    57.0400       490
    57.0600       532
    57.0800       630
    57.1000       632
    57.1200       690
    57.1400       728
    57.1600       804
    57.1800       834
    57.2000       950
    57.2200       994
    57.2400      1162
    57.2600      1196
    57.2800      1386
    57.3000      1474
    57.3200      1590
    57.3400      1752
    57.3600      1716
    57.3800      1910
    57.4000      1870
    57.4200      1816
    57.4400      1810
    57.4600      1794
    57.4800      1774
    57.5000      1716
    57.5200      1682
    57.5400      1630
    57.5600      1626
    57.5800      1644
    57.6000      1758
    57.6200      1710
    57.6400      1782
    57.6600      1804
    57.6800      1778
    57.7000      1836
    57.7200      1884
    57.7400      1890
    57.7600      1804
    57.7800      1796
    57.8000      1792
    57.8200      1740
    57.8400      1608
    57.8600      1588
    57.8800      1416
    57.9000      1394
    57.9200      1312
    57.9400      1220
    57.9600      1166
    57.9800      1022
    58.0000      1042
    58.0200       996
    58.0400       932
    58.0600       914
    58.0800       854
    58.1000       874
    58.1200       864
    58.1400       866
    58.1600       834
    58.1800       922
    58.2000       944
    58.2200       938
    58.2400       966
    58.2600      1002
    58.2800      1118
    58.3000      1262
    58.3200      1336
    58.3400      1352
    58.3600      1490
    58.3800      1554
    58.4000      1710
    58.4200      1866
    58.4400      1986
    58.4600      2090
    58.4800      2170
    58.5000      2272
    58.5200      2354
    58.5400      2494
    58.5600      2644
    58.5800      2846
    58.6000      2988
    58.6200      2968
    58.6400      3178
    58.6600      3276
    58.6800      3444
    58.7000      3588
    58.7200      3628
    58.7400      3556
    58.7600      3552
    58.7800      3536
    58.8000      3390
    58.8200      3266
    58.8400      3204
    58.8600      3104
    58.8800      2800
    58.9000      2678
    58.9200      2448
    58.9400      2390
    58.9600      2150
    58.9800      1922
    59.0000      1790
    59.0200      1542
    59.0400      1386
    59.0600      1350
    59.0800      1190
    59.1000      1152
    59.1200      1002
    59.1400       928
    59.1600       868
    59.1800       870
    59.2000       794
    59.2200       756
    59.2400       720
    59.2600       670
    59.2800       634
    59.3000       590
    59.3200       552
    59.3400       578
    59.3600       544
    59.3800       476
    59.4000       518
    59.4200       414
    59.4400       494
    59.4600       462
    59.4800       400
    59.5000       416
    59.5200       402
    59.5400       358
    59.5600       378
    59.5800       378
    59.6000       350
    59.6200       334
    59.6400       366
    59.6600       304
    59.6800       342
    59.7000       324
    59.7200       316
    59.7400       332
    59.7600       296
    59.7800       278
    59.8000       328
    59.8200       258
    59.8400       298
    59.8600       302
    59.8800       316
    59.9000       294
    59.9200       266
    59.9400       244
    59.9600       292
    59.9800       286
    60.0000       290
    60.0200       236
    60.0400       284
    60.0600       266
    60.0800       274
    60.1000       274
    60.1200       286
    60.1400       266
    60.1600       254
    60.1800       268
    60.2000       252
    60.2200       264
    60.2400       270
    60.2600       236
    60.2800       276
    60.3000       266
    60.3200       258
    60.3400       282
    60.3600       308
    60.3800       274
    60.4000       290
    60.4200       316
    60.4400       298
    60.4600       306
    60.4800       250
    60.5000       282
    60.5200       278
    60.5400       302
    60.5600       284
    60.5800       282
    60.6000       278
    60.6200       282
    60.6400       264
    60.6600       298
    60.6800       278
    60.7000       292
    60.7200       312
    60.7400       304
    60.7600       308
    60.7800       274
    60.8000       334
    60.8200       344
    60.8400       340
    60.8600       296
    60.8800       354
    60.9000       380
    60.9200       348
    60.9400       396
    60.9600       438
    60.9800       442
    61.0000       436
    61.0200       432
    61.0400       456
    61.0600       486
    61.0800       470
    61.1000       530
    61.1200       532
    61.1400       568
    61.1600       508
    61.1800       540
    61.2000       490
    61.2200       506
    61.2400       524
    61.2600       480
    61.2800       490
    61.3000       484
    61.3200       494
    61.3400       470
    61.3600       486
    61.3800       502
    61.4000       510
    61.4200       502
    61.4400       526
    61.4600       502
    61.4800       518
    61.5000       536
    61.5200       600
    61.5400       530
    61.5600       470
    61.5800       572
    61.6000       530
    61.6200       538
    61.6400       532
    61.6600       484
    61.6800       556
    61.7000       504
    61.7200       506
    61.7400       452
    61.7600       502
    61.7800       498
    61.8000       508
    61.8200       480
    61.8400       476
    61.8600       516
    61.8800       508
    61.9000       514
    61.9200       518
    61.9400       512
    61.9600       560
    61.9800       572
    62.0000       568
    62.0200       566
    62.0400       526
    62.0600       544
    62.0800       542
    62.1000       574
    62.1200       574
    62.1400       570
    62.1600       532
    62.1800       584
    62.2000       518
    62.2200       512
    62.2400       502
    62.2600       556
    62.2800       550
    62.3000       534
    62.3200       490
    62.3400       504
    62.3600       460
    62.3800       478
    62.4000       438
    62.4200       442
    62.4400       446
    62.4600       420
    62.4800       380
    62.5000       428
    62.5200       392
    62.5400       358
    62.5600       382
    62.5800       316
    62.6000       338
    62.6200       326
    62.6400       320
    62.6600       308
    62.6800       314
    62.7000       260
    62.7200       284
    62.7400       270
    62.7600       250
    62.7800       216
    62.8000       262
    62.8200       214
    62.8400       250
    62.8600       232
    62.8800       242
    62.9000       250
    62.9200       242
    62.9400       210
    62.9600       226
    62.9800       240
    63.0000       230
    63.0200       244
    63.0400       214
    63.0600       186
    63.0800       240
    63.1000       200
    63.1200       230
    63.1400       210
    63.1600       230
    63.1800       218
    63.2000       222
    63.2200       206
    63.2400       212
    63.2600       242
    63.2800       234
    63.3000       244
    63.3200       236
    63.3400       240
    63.3600       212
    63.3800       220
    63.4000       226
    63.4200       216
    63.4400       244
    63.4600       272
    63.4800       228
    63.5000       254
    63.5200       248
    63.5400       228
    63.5600       266
    63.5800       256
    63.6000       276
    63.6200       260
    63.6400       280
    63.6600       322
    63.6800       306
    63.7000       306
    63.7200       346
    63.7400       372
    63.7600       374
    63.7800       460
    63.8000       438
    63.8200       440
    63.8400       456
    63.8600       452
    63.8800       472
    63.9000       466
    63.9200       434
    63.9400       400
    63.9600       442
    63.9800       396
    64.0000       388
    64.0200       352
    64.0400       392
    64.0600       386
    64.0800       342
    64.1000       344
    64.1200       338
    64.1400       314
    64.1600       278
    64.1800       294
    64.2000       288
    64.2200       276
    64.2400       260
    64.2600       262
    64.2800       262
    64.3000       236
    64.3200       268
    64.3400       252
    64.3600       256
    64.3800       242
    64.4000       260
    64.4200       246
    64.4400       240
    64.4600       246
    64.4800       240
    64.5000       258
    64.5200       266
    64.5400       270
    64.5600       252
    64.5800       290
    64.6000       290
    64.6200       274
    64.6400       328
    64.6600       318
    64.6800       316
    64.7000       308
    64.7200       312
    64.7400       338
    64.7600       352
    64.7800       374
    64.8000       382
    64.8200       396
    64.8400       396
    64.8600       462
    64.8800       420
    64.9000       460
    64.9200       452
    64.9400       492
    64.9600       514
    64.9800       528
    65.0000       562
    65.0200       550
    65.0400       564
    65.0600       578
    65.0800       594
    65.1000       604
    65.1200       622
    65.1400       612
    65.1600       628
    65.1800       674
    65.2000       650
    65.2200       618
    65.2400       650
    65.2600       640
    65.2800       654
    65.3000       640
    65.3200       594
    65.3400       598
    65.3600       564
    65.3800       594
    65.4000       534
    65.4200       558
    65.4400       504
    65.4600       478
    65.4800       472
    65.5000       428
    65.5200       392
    65.5400       404
    65.5600       442
    65.5800       390
    65.6000       386
    65.6200       326
    65.6400       310
    65.6600       304
    65.6800       308
    65.7000       264
    65.7200       282
    65.7400       284
    65.7600       258
    65.7800       260
    65.8000       270
    65.8200       248
    65.8400       254
    65.8600       240
    65.8800       252
    65.9000       218
    65.9200       216
    65.9400       226
    65.9600       236
    65.9800       234
    66.0000       234
    66.0200       228
    66.0400       234
    66.0600       226
    66.0800       230
    66.1000       198
    66.1200       228
    66.1400       224
    66.1600       200
    66.1800       236
    66.2000       216
    66.2200       260
    66.2400       222
    66.2600       238
    66.2800       216
    66.3000       266
    66.3200       272
    66.3400       252
    66.3600       266
    66.3800       258
    66.4000       280
    66.4200       256
    66.4400       266
    66.4600       290
    66.4800       314
    66.5000       272
    66.5200       308
    66.5400       306
    66.5600       316
    66.5800       352
    66.6000       372
    66.6200       358
    66.6400       406
    66.6600       400
    66.6800       400
    66.7000       396
    66.7200       424
    66.7400       430
    66.7600       448
    66.7800       476
    66.8000       506
    66.8200       532
    66.8400       576
    66.8600       552
    66.8800       598
    66.9000       578
    66.9200       570
    66.9400       564
    66.9600       580
    66.9800       554
    67.0000       504
    67.0200       546
    67.0400       506
    67.0600       502
    67.0800       456
    67.1000       450
    67.1200       458
    67.1400       452
    67.1600       394
    67.1800       418
    67.2000       364
    67.2200       396
    67.2400       334
    67.2600       318
    67.2800       294
    67.3000       340
    67.3200       324
    67.3400       310
    67.3600       272
    67.3800       328
    67.4000       276
    67.4200       284
    67.4400       298
    67.4600       258
    67.4800       274
    67.5000       256
    67.5200       268
    67.5400       284
    67.5600       310
    67.5800       310
    67.6000       294
    67.6200       286
    67.6400       340
    67.6600       334
    67.6800       292
    67.7000       314
    67.7200       358
    67.7400       386
    67.7600       384
    67.7800       394
    67.8000       376
    67.8200       476
    67.8400       456
    67.8600       494
    67.8800       548
    67.9000       548
    67.9200       616
    67.9400       684
    67.9600       710
    67.9800       738
    68.0000       762
    68.0200       876
    68.0400       950
    68.0600      1068
    68.0800      1152
    68.1000      1154
    68.1200      1292
    68.1400      1308
    68.1600      1306
    68.1800      1306
    68.2000      1350
    68.2200      1370
    68.2400      1306
    68.2600      1244
    68.2800      1308
    68.3000      1360
    68.3200      1206
    68.3400      1224
    68.3600      1174
    68.3800      1062
    68.4000       978
    68.4200      1030
    68.4400       892
    68.4600       976
    68.4800       890
    68.5000       890
    68.5200       814
    68.5400       758
    68.5600       744
    68.5800       794
    68.6000       736
    68.6200       732
    68.6400       718
    68.6600       710
    68.6800       696
    68.7000       632
    68.7200       584
    68.7400       580
    68.7600       584
    68.7800       522
    68.8000       544
    68.8200       556
    68.8400       488
    68.8600       494
    68.8800       476
    68.9000       426
    68.9200       428
    68.9400       374
    68.9600       398
    68.9800       386
    69.0000       352
    69.0200       384
    69.0400       384
    69.0600       382
    69.0800       376
    69.1000       374
    69.1200       376
    69.1400       410
    69.1600       388
    69.1800       414
    69.2000       386
    69.2200       402
    69.2400       442
    69.2600       448
    69.2800       498
    69.3000       504
    69.3200       514
    69.3400       494
    69.3600       560
    69.3800       528
    69.4000       582
    69.4200       572
    69.4400       570
    69.4600       554
    69.4800       570
    69.5000       506
    69.5200       538
    69.5400       518
    69.5600       524
    69.5800       454
    69.6000       462
    69.6200       426
    69.6400       410
    69.6600       436
    69.6800       454
    69.7000       392
    69.7200       364
    69.7400       338
    69.7600       344
    69.7800       344
    69.8000       298
    69.8200       272
    69.8400       310
    69.8600       302
    69.8800       268
    69.9000       246
    69.9200       260
    69.9400       228
    69.9600       248
    69.9800       248
    70.0000       232
    70.0200       224
    70.0400       216
    70.0600       246
    70.0800       236
    70.1000       218
    70.1200       226
    70.1400       230
    70.1600       190
    70.1800       220
    70.2000       198
    70.2200       224
    70.2400       226
    70.2600       226
    70.2800       190
    70.3000       208
    70.3200       228
    70.3400       230
    70.3600       200
    70.3800       238
    70.4000       222
    70.4200       206
    70.4400       190
    70.4600       222
    70.4800       210
    70.5000       216
    70.5200       218
    70.5400       210
    70.5600       212
    70.5800       234
    70.6000       244
    70.6200       252
    70.6400       190
    70.6600       246
    70.6800       212
    70.7000       224
    70.7200       220
    70.7400       228
    70.7600       246
    70.7800       244
    70.8000       234
    70.8200       264
    70.8400       214
    70.8600       212
    70.8800       236
    70.9000       290
    70.9200       226
    70.9400       232
    70.9600       230
    70.9800       226
    71.0000       238
    71.0200       208
    71.0400       232
    71.0600       236
    71.0800       242
    71.1000       276
    71.1200       246
    71.1400       258
    71.1600       272
    71.1800       272
    71.2000       310
    71.2200       318
    71.2400       332
    71.2600       392
    71.2800       380
    71.3000       406
    71.3200       446
    71.3400       422
    71.3600       464
    71.3800       536
    71.4000       548
    71.4200       584
    71.4400       578
    71.4600       588
    71.4800       652
    71.5000       642
    71.5200       674
    71.5400       648
    71.5600       652
    71.5800       696
    71.6000       696
    71.6200       656
    71.6400       684
    71.6600       680
    71.6800       696
    71.7000       680
    71.7200       656
    71.7400       660
    71.7600       600
    71.7800       632
    71.8000       624
    71.8200       552
    71.8400       574
    71.8600       582
    71.8800       520
    71.9000       548
    71.9200       542
    71.9400       518
    71.9600       526
    71.9800       490
    72.0000       428
    72.0200       468
    72.0400       432
    72.0600       518
    72.0800       488
    72.1000       472
    72.1200       514
    72.1400       494
    72.1600       480
    72.1800       498
    72.2000       530
    72.2200       476
    72.2400       548
    72.2600       474
    72.2800       506
    72.3000       486
    72.3200       468
    72.3400       506
    72.3600       472
    72.3800       524
    72.4000       460
    72.4200       432
    72.4400       464
    72.4600       454
    72.4800       430
    72.5000       354
    72.5200       454
    72.5400       394
    72.5600       356
    72.5800       372
    72.6000       346
    72.6200       348
    72.6400       334
    72.6600       280
    72.6800       306
    72.7000       320
    72.7200       274
    72.7400       296
    72.7600       268
    72.7800       298
    72.8000       290
    72.8200       330
    72.8400       290
    72.8600       294
    72.8800       338
    72.9000       314
    72.9200       302
    72.9400       284
    72.9600       284
    72.9800       276
    73.0000       268
    73.0200       286
    73.0400       276
    73.0600       276
    73.0800       248
    73.1000       254
    73.1200       250
    73.1400       242
    73.1600       244
    73.1800       208
    73.2000       242
    73.2200       230
    73.2400       240
    73.2600       246
    73.2800       216
    73.3000       234
    73.3200       204
    73.3400       220
    73.3600       214
    73.3800       210
    73.4000       230
    73.4200       212
    73.4400       254
    73.4600       222
    73.4800       266
    73.5000       258
    73.5200       220
    73.5400       248
    73.5600       262
    73.5800       266
    73.6000       264
    73.6200       260
    73.6400       262
    73.6600       246
    73.6800       252
    73.7000       236
    73.7200       246
    73.7400       296
    73.7600       292
    73.7800       284
    73.8000       284
    73.8200       280
    73.8400       286
    73.8600       286
    73.8800       304
    73.9000       328
    73.9200       302
    73.9400       284
    73.9600       322
    73.9800       338
    74.0000       298
    74.0200       350
    74.0400       326
    74.0600       340
    74.0800       380
    74.1000       344
    74.1200       330
    74.1400       354
    74.1600       378
    74.1800       348
    74.2000       336
    74.2200       314
    74.2400       326
    74.2600       302
    74.2800       308
    74.3000       340
    74.3200       324
    74.3400       306
    74.3600       258
    74.3800       288
    74.4000       294
    74.4200       266
    74.4400       270
    74.4600       274
    74.4800       236
    74.5000       242
    74.5200       224
    74.5400       228
    74.5600       220
    74.5800       220
    74.6000       208
    74.6200       204
    74.6400       218
    74.6600       194
    74.6800       198
    74.7000       186
    74.7200       194
    74.7400       204
    74.7600       180
    74.7800       206
    74.8000       210
    74.8200       176
    74.8400       160
    74.8600       198
    74.8800       170
    74.9000       202
    74.9200       178
    74.9400       164
    74.9600       186
    74.9800       184
    75.0000       168
    75.0200       170
    75.0400       194
    75.0600       174
    75.0800       154
    75.1000       186
    75.1200       180
    75.1400       168
    75.1600       188
    75.1800       178
    75.2000       170
    75.2200       200
    75.2400       168
    75.2600       198
    75.2800       202
    75.3000       204
    75.3200       196
    75.3400       210
    75.3600       200
    75.3800       206
    75.4000       206
    75.4200       180
    75.4400       208
    75.4600       196
    75.4800       228
    75.5000       182
    75.5200       236
    75.5400       232
    75.5600       226
    75.5800       236
    75.6000       238
    75.6200       276
    75.6400       278
    75.6600       280
    75.6800       264
    75.7000       310
    75.7200       338
    75.7400       348
    75.7600       326
    75.7800       354
    75.8000       392
    75.8200       370
    75.8400       378
    75.8600       376
    75.8800       366
    75.9000       338
    75.9200       402
    75.9400       328
    75.9600       324
    75.9800       316
    76.0000       390
    76.0200       334
    76.0400       334
    76.0600       330
    76.0800       338
    76.1000       336
    76.1200       326
    76.1400       306
    76.1600       332
    76.1800       356
    76.2000       318
    76.2200       280
    76.2400       302
    76.2600       332
    76.2800       356
    76.3000       296
    76.3200       322
    76.3400       308
    76.3600       314
    76.3800       312
    76.4000       318
    76.4200       310
    76.4400       328
    76.4600       312
    76.4800       364
    76.5000       326
    76.5200       356
    76.5400       336
    76.5600       338
    76.5800       352
    76.6000       368
    76.6200       370
    76.6400       358
    76.6600       382
    76.6800       358
    76.7000       354
    76.7200       362
    76.7400       320
    76.7600       344
    76.7800       360
    76.8000       356
    76.8200       352
    76.8400       378
    76.8600       346
    76.8800       314
    76.9000       344
    76.9200       316
    76.9400       328
    76.9600       286
    76.9800       320
    77.0000       290
    77.0200       304
    77.0400       294
    77.0600       310
    77.0800       306
    77.1000       278
    77.1200       324
    77.1400       356
    77.1600       300
    77.1800       328
    77.2000       332
    77.2200       328
    77.2400       352
    77.2600       340
    77.2800       358
    77.3000       376
    77.3200       400
    77.3400       396
    77.3600       448
    77.3800       474
    77.4000       458
    77.4200       514
    77.4400       578
    77.4600       612
    77.4800       640
    77.5000       674
    77.5200       762
    77.5400       738
    77.5600       794
    77.5800       796
    77.6000       830
    77.6200       908
    77.6400       846
    77.6600       882
    77.6800       940
    77.7000       898
    77.7200       804
    77.7400       864
    77.7600       818
    77.7800       806
    77.8000       826
    77.8200       780
    77.8400       746
    77.8600       776
    77.8800       692
    77.9000       706
    77.9200       682
    77.9400       616
    77.9600       598
    77.9800       534
    78.0000       552
    78.0200       530
    78.0400       492
    78.0600       492
    78.0800       450
    78.1000       464
    78.1200       458
    78.1400       414
    78.1600       414
    78.1800       414
    78.2000       396
    78.2200       358
    78.2400       386
    78.2600       358
    78.2800       380
    78.3000       382
    78.3200       376
    78.3400       398
    78.3600       438
    78.3800       386
    78.4000       406
    78.4200       382
    78.4400       398
    78.4600       412
    78.4800       444
    78.5000       430
    78.5200       422
    78.5400       442
    78.5600       412
    78.5800       410
    78.6000       424
    78.6200       428
    78.6400       440
    78.6600       440
    78.6800       392
    78.7000       464
    78.7200       412
    78.7400       396
    78.7600       446
    78.7800       406
    78.8000       416
    78.8200       370
    78.8400       382
    78.8600       370
    78.8800       296
    78.9000       350
    78.9200       334
    78.9400       328
    78.9600       340
    78.9800       320
    79.0000       300
    79.0200       278
    79.0400       318
    79.0600       262
    79.0800       304
    79.1000       224
    79.1200       274
    79.1400       240
    79.1600       242
    79.1800       266
    79.2000       226
    79.2200       262
    79.2400       248
    79.2600       206
    79.2800       224
    79.3000       188
    79.3200       210
    79.3400       220
    79.3600       216
    79.3800       214
    79.4000       216
    79.4200       210
    79.4400       216
    79.4600       242
    79.4800       232
    79.5000       228
    79.5200       200
    79.5400       230
    79.5600       252
    79.5800       196
    79.6000       228
    79.6200       268
    79.6400       250
    79.6600       228
    79.6800       240
    79.7000       244
    79.7200       240
    79.7400       212
    79.7600       244
    79.7800       262
    79.8000       222
    79.8200       250
    79.8400       254
    79.8600       238
    79.8800       236
    79.9000       236
    79.9200       218
    79.9400       228
    79.9600       232
    79.9800       238
    80.0000       198
    80.0200       208
    80.0400       234
    80.0600       224
    80.0800       250
    80.1000       220
    80.1200       210
    80.1400       204
    80.1600       228
    80.1800       204
    80.2000       194
    80.2200       208
    80.2400       216
    80.2600       208
    80.2800       240
    80.3000       210
    80.3200       240
    80.3400       204
    80.3600       244
    80.3800       228
    80.4000       212
    80.4200       212
    80.4400       206
    80.4600       216
    80.4800       194
    80.5000       208
    80.5200       182
    80.5400       198
    80.5600       204
    80.5800       206
    80.6000       208
    80.6200       204
    80.6400       204
    80.6600       178
    80.6800       174
    80.7000       186
    80.7200       176
    80.7400       184
    80.7600       182
    80.7800       168
    80.8000       206
    80.8200       202
    80.8400       192
    80.8600       166
    80.8800       170
    80.9000       178
    80.9200       200
    80.9400       170
    80.9600       188
    80.9800       208
    81.0000       168
    81.0200       178
    81.0400       184
    81.0600       178
    81.0800       204
    81.1000       208
    81.1200       206
    81.1400       198
    81.1600       224
    81.1800       200
    81.2000       216
    81.2200       252
    81.2400       240
    81.2600       238
    81.2800       240
    81.3000       254
    81.3200       242
    81.3400       256
    81.3600       228
    81.3800       264
    81.4000       264
    81.4200       230
    81.4400       238
    81.4600       226
    81.4800       276
    81.5000       258
    81.5200       238
    81.5400       258
    81.5600       268
    81.5800       230
    81.6000       268
    81.6200       222
    81.6400       242
    81.6600       254
    81.6800       248
    81.7000       240
    81.7200       212
    81.7400       226
    81.7600       228
    81.7800       278
    81.8000       232
    81.8200       256
    81.8400       260
    81.8600       254
    81.8800       274
    81.9000       250
    81.9200       258
    81.9400       248
    81.9600       274
    81.9800       254
    82.0000       250
    82.0200       276
    82.0400       276
    82.0600       270
    82.0800       286
    82.1000       330
    82.1200       330
    82.1400       330
    82.1600       346
    82.1800       366
    82.2000       328
    82.2200       346
    82.2400       338
    82.2600       344
    82.2800       336
    82.3000       370
    82.3200       362
    82.3400       372
    82.3600       368
    82.3800       342
    82.4000       352
    82.4200       360
    82.4400       378
    82.4600       382
    82.4800       362
    82.5000       354
    82.5200       314
    82.5400       360
    82.5600       362
    82.5800       348
    82.6000       378
    82.6200       394
    82.6400       378
    82.6600       412
    82.6800       428
    82.7000       380
    82.7200       388
    82.7400       404
    82.7600       412
    82.7800       372
    82.8000       408
    82.8200       468
    82.8400       450
    82.8600       416
    82.8800       442
    82.9000       426
    82.9200       384
    82.9400       378
    82.9600       374
    82.9800       388
    83.0000       436
    83.0200       390
    83.0400       390
    83.0600       396
    83.0800       368
    83.1000       352
    83.1200       428
    83.1400       372
    83.1600       344
    83.1800       386
    83.2000       408
    83.2200       390
    83.2400       360
    83.2600       380
    83.2800       364
    83.3000       380
    83.3200       370
    83.3400       374
    83.3600       378
    83.3800       402
    83.4000       388
    83.4200       340
    83.4400       342
    83.4600       342
    83.4800       332
    83.5000       352
    83.5200       336
    83.5400       324
    83.5600       308
    83.5800       310
    83.6000       290
    83.6200       276
    83.6400       314
    83.6600       294
    83.6800       300
    83.7000       294
    83.7200       264
    83.7400       278
    83.7600       280
    83.7800       262
    83.8000       280
    83.8200       282
    83.8400       250
    83.8600       290
    83.8800       268
    83.9000       280
    83.9200       266
    83.9400       292
    83.9600       276
    83.9800       278
    84.0000       244
    84.0200       266
    84.0400       256
    84.0600       234
    84.0800       270
    84.1000       246
    84.1200       260
    84.1400       260
    84.1600       256
    84.1800       274
    84.2000       268
    84.2200       236
    84.2400       240
    84.2600       226
    84.2800       212
    84.3000       234
    84.3200       234
    84.3400       214
    84.3600       224
    84.3800       214
    84.4000       234
    84.4200       200
    84.4400       190
    84.4600       208
    84.4800       238
    84.5000       192
    84.5200       208
    84.5400       198
    84.5600       202
    84.5800       202
    84.6000       166
    84.6200       198
    84.6400       188
    84.6600       186
    84.6800       214
    84.7000       218
    84.7200       202
    84.7400       194
    84.7600       200
    84.7800       182
    84.8000       206
    84.8200       182
    84.8400       198
    84.8600       188
    84.8800       188
    84.9000       176
    84.9200       178
    84.9400       204
    84.9600       196
    84.9800       196
    85.0000       224
    85.0200       200
    85.0400       188
    85.0600       180
    85.0800       204
    85.1000       190
    85.1200       204
    85.1400       188
    85.1600       196
    85.1800       192
    85.2000       190
    85.2200       202
    85.2400       200
    85.2600       228
    85.2800       226
    85.3000       192
    85.3200       210
    85.3400       240
    85.3600       250
    85.3800       208
    85.4000       234
    85.4200       236
    85.4400       240
    85.4600       254
    85.4800       248
    85.5000       234
    85.5200       264
    85.5400       234
    85.5600       288
    85.5800       282
    85.6000       254
    85.6200       230
    85.6400       284
    85.6600       292
    85.6800       248
    85.7000       278
    85.7200       240
    85.7400       212
    85.7600       238
    85.7800       238
    85.8000       244
    85.8200       228
    85.8400       218
    85.8600       224
    85.8800       210
    85.9000       216
    85.9200       216
    85.9400       218
    85.9600       192
    85.9800       184
    86.0000       208
    86.0200       182
    86.0400       174
    86.0600       204
    86.0800       198
    86.1000       196
    86.1200       202
    86.1400       172
    86.1600       174
    86.1800       198
    86.2000       188
    86.2200       176
    86.2400       150
    86.2600       192
    86.2800       186
    86.3000       190
    86.3200       170
    86.3400       170
    86.3600       196
    86.3800       168
    86.4000       178
    86.4200       220
    86.4400       186
    86.4600       214
    86.4800       210
    86.5000       196
    86.5200       194
    86.5400       224
    86.5600       224
    86.5800       214
    86.6000       212
    86.6200       212
    86.6400       212
    86.6600       232
    86.6800       224
    86.7000       254
    86.7200       226
    86.7400       268
    86.7600       272
    86.7800       256
    86.8000       264
    86.8200       308
    86.8400       306
    86.8600       288
    86.8800       318
    86.9000       324
    86.9200       334
    86.9400       314
    86.9600       362
    86.9800       358
    87.0000       348
    87.0200       390
    87.0400       346
    87.0600       382
    87.0800       380
    87.1000       392
    87.1200       396
    87.1400       430
    87.1600       436
    87.1800       426
    87.2000       434
    87.2200       460
    87.2400       496
    87.2600       512
    87.2800       514
    87.3000       538
    87.3200       576
    87.3400       538
    87.3600       536
    87.3800       596
    87.4000       538
    87.4200       528
    87.4400       518
    87.4600       494
    87.4800       502
    87.5000       478
    87.5200       494
    87.5400       484
    87.5600       488
    87.5800       470
    87.6000       514
    87.6200       502
    87.6400       460
    87.6600       480
    87.6800       484
    87.7000       484
    87.7200       468
    87.7400       430
    87.7600       454
    87.7800       430
    87.8000       420
    87.8200       426
    87.8400       406
    87.8600       388
    87.8800       394
    87.9000       400
    87.9200       358
    87.9400       362
    87.9600       398
    87.9800       362
    88.0000       362
    88.0200       366
    88.0400       316
    88.0600       380
    88.0800       314
    88.1000       338
    88.1200       362
    88.1400       302
    88.1600       324
    88.1800       302
    88.2000       292
    88.2200       294
    88.2400       266
    88.2600       278
    88.2800       286
    88.3000       232
    88.3200       282
    88.3400       266
    88.3600       264
    88.3800       250
    88.4000       240
    88.4200       266
    88.4400       252
    88.4600       240
    88.4800       234
    88.5000       260
    88.5200       244
    88.5400       256
    88.5600       230
    88.5800       268
    88.6000       252
    88.6200       282
    88.6400       262
    88.6600       270
    88.6800       250
    88.7000       242
    88.7200       270
    88.7400       272
    88.7600       264
    88.7800       250
    88.8000       240
    88.8200       240
    88.8400       242
    88.8600       214
    88.8800       234
    88.9000       234
    88.9200       244
    88.9400       246
    88.9600       236
    88.9800       250
    89.0000       232
    89.0200       240
    89.0400       242
    89.0600       232
    89.0800       248
    89.1000       224
    89.1200       212
    89.1400       252
    89.1600       236
    89.1800       222
    89.2000       204
    89.2200       266
    89.2400       222
    89.2600       246
    89.2800       222
    89.3000       256
    89.3200       206
    89.3400       204
    89.3600       216
    89.3800       222
    89.4000       250
    89.4200       222
    89.4400       244
    89.4600       246
    89.4800       276
    89.5000       248
    89.5200       246
    89.5400       266
    89.5600       248
    89.5800       264
    89.6000       264
    89.6200       260
    89.6400       230
    89.6600       278
    89.6800       300
    89.7000       284
    89.7200       284
    89.7400       246
    89.7600       284
    89.7800       282
    89.8000       262
    89.8200       278
    89.8400       280
    89.8600       272
    89.8800       276
    89.9000       306
    89.9200       296
    89.9400       280
    89.9600       288
    89.9800       286
    90.0000       274
