    10.0000       374
    10.0200       360
    10.0400       398
    10.0600       358
    10.0800       370
    10.1000       384
    10.1200       368
    10.1400       364
    10.1600       370
    10.1800       352
    10.2000       362
    10.2200       350
    10.2400       360
    10.2600       332
    10.2800       378
    10.3000       348
    10.3200       354
    10.3400       356
    10.3600       344
    10.3800       322
    10.4000       362
    10.4200       322
    10.4400       352
    10.4600       306
    10.4800       378
    10.5000       354
    10.5200       302
    10.5400       338
    10.5600       340
    10.5800       332
    10.6000       320
    10.6200       358
    10.6400       360
    10.6600       344
    10.6800       344
    10.7000       370
    10.7200       326
    10.7400       364
    10.7600       324
    10.7800       338
    10.8000       356
    10.8200       354
    10.8400       330
    10.8600       332
    10.8800       354
    10.9000       344
    10.9200       348
    10.9400       332
    10.9600       352
    10.9800       332
    11.0000       308
    11.0200       328
    11.0400       324
    11.0600       346
    11.0800       316
    11.1000       316
    11.1200       296
    11.1400       330
    11.1600       324
    11.1800       310
    11.2000       348
    11.2200       334
    11.2400       326
    11.2600       328
    11.2800       308
    11.3000       322
    11.3200       300
    11.3400       328
    11.3600       310
    11.3800       302
    11.4000       366
    11.4200       344
    11.4400       330
    11.4600       344
    11.4800       298
    11.5000       348
    11.5200       334
    11.5400       272
    11.5600       342
    11.5800       338
    11.6000       296
    11.6200       344
    11.6400       316
    11.6600       332
    11.6800       326
    11.7000       332
    11.7200       338
    11.7400       314
    11.7600       306
    11.7800       326
    11.8000       362
    11.8200       372
    11.8400       342
    11.8600       418
    11.8800       366
    11.9000       396
    11.9200       422
    11.9400       390
    11.9600       420
    11.9800       446
    12.0000       464
    12.0200       488
    12.0400       498
    12.0600       514
    12.0800       568
    12.1000       612
    12.1200       630
    12.1400       702
    12.1600       708
    12.1800       746
    12.2000       792
    12.2200       752
    12.2400       676
    12.2600       554
    12.2800       560
    12.3000       440
    12.3200       404
    12.3400       388
    12.3600       328
    12.3800       354
    12.4000       346
    12.4200       364
    12.4400       288
    12.4600       322
    12.4800       324
    12.5000       308
    12.5200       320
    12.5400       292
    12.5600       300
    12.5800       332
    12.6000       270
    12.6200       306
    12.6400       290
    12.6600       272
    12.6800       296
    12.7000       298
    12.7200       296
    12.7400       294
    12.7600       288
    12.7800       306
    12.8000       300
    12.8200       268
    12.8400       302
    12.8600       274
    12.8800       276
    12.9000       262
    12.9200       278
    12.9400       258
    12.9600       288
    12.9800       292
    13.0000       240
    13.0200       276
    13.0400       266
    13.0600       298
    13.0800       288
    13.1000       294
    13.1200       320
    13.1400       266
    13.1600       266
    13.1800       268
    13.2000       284
    13.2200       272
    13.2400       258
    13.2600       286
    13.2800       304
    13.3000       276
    13.3200       230
    13.3400       284
    13.3600       258
    13.3800       272
    13.4000       252
    13.4200       262
    13.4400       306
    13.4600       260
    13.4800       290
    13.5000       276
    13.5200       246
    13.5400       242
    13.5600       250
    13.5800       240
    13.6000       276
    13.6200       278
    13.6400       258
    13.6600       272
    13.6800       262
    13.7000       258
    13.7200       272
    13.7400       276
    13.7600       270
    13.7800       242
    13.8000       258
    13.8200       268
    13.8400       270
    13.8600       260
    13.8800       268
    13.9000       268
    13.9200       284
    13.9400       286
    13.9600       260
    13.9800       238
    14.0000       268
    14.0200       248
    14.0400       264
    14.0600       264
    14.0800       274
    14.1000       278
    14.1200       244
    14.1400       228
    14.1600       226
    14.1800       256
    14.2000       264
    14.2200       232
    14.2400       252
    14.2600       284
    14.2800       252
    14.3000       272
    14.3200       248
    14.3400       278
    14.3600       260
    14.3800       272
    14.4000       246
    14.4200       270
    14.4400       280
    14.4600       232
    14.4800       270
    14.5000       276
    14.5200       282
    14.5400       270
    14.5600       262
    14.5800       304
    14.6000       272
    14.6200       276
    14.6400       292
    14.6600       282
    14.6800       318
    14.7000       278
    14.7200       298
    14.7400       304
    14.7600       292
    14.7800       344
    14.8000       354
    14.8200       368
    14.8400       360
    14.8600       342
    14.8800       406
    14.9000       442
    14.9200       442
    14.9400       478
    14.9600       528
    14.9800       584
    15.0000       596
    15.0200       612
    15.0400       708
    15.0600       708
    15.0800       714
    15.1000       762
    15.1200       732
    15.1400       800
    15.1600       830
    15.1800       860
    15.2000       826
    15.2200       698
    15.2400       676
    15.2600       542
    15.2800       466
    15.3000       412
    15.3200       398
    15.3400       330
    15.3600       326
    15.3800       326
    15.4000       288
    15.4200       304
    15.4400       264
    15.4600       272
    15.4800       274
    15.5000       256
    15.5200       262
    15.5400       244
    15.5600       260
    15.5800       216
    15.6000       260
    15.6200       228
    15.6400       232
    15.6600       268
    15.6800       234
    15.7000       210
    15.7200       278
    15.7400       260
    15.7600       232
    15.7800       228
    15.8000       250
    15.8200       240
    15.8400       250
    15.8600       244
    15.8800       248
    15.9000       250
    15.9200       214
    15.9400       218
    15.9600       232
    15.9800       266
    16.0000       246
    16.0200       244
    16.0400       252
    16.0600       252
    16.0800       254
    16.1000       258
    16.1200       234
    16.1400       280
    16.1600       256
    16.1800       268
    16.2000       240
    16.2200       254
    16.2400       270
    16.2600       216
    16.2800       264
    16.3000       262
    16.3200       242
    16.3400       246
    16.3600       248
    16.3800       274
    16.4000       252
    16.4200       238
    16.4400       232
    16.4600       238
    16.4800       280
    16.5000       258
    16.5200       234
    16.5400       276
    16.5600       282
    16.5800       288
    16.6000       258
    16.6200       312
    16.6400       308
    16.6600       304
    16.6800       310
    16.7000       344
    16.7200       342
    16.7400       332
    16.7600       382
    16.7800       426
    16.8000       422
    16.8200       442
    16.8400       458
    16.8600       512
    16.8800       576
    16.9000       686
    16.9200       674
    16.9400       804
    16.9600       830
    16.9800      1014
    17.0000      1118
    17.0200      1286
    17.0400      1362
    17.0600      1376
    17.0800      1452
    17.1000      1478
    17.1200      1344
    17.1400      1140
    17.1600      1108
    17.1800       972
    17.2000       954
    17.2200       952
    17.2400       890
    17.2600       790
    17.2800       814
    17.3000       772
    17.3200       730
    17.3400       672
    17.3600       604
    17.3800       588
    17.4000       540
    17.4200       476
    17.4400       520
    17.4600       456
    17.4800       454
    17.5000       444
    17.5200       450
    17.5400       402
    17.5600       422
    17.5800       408
    17.6000       432
    17.6200       408
    17.6400       426
    17.6600       420
    17.6800       496
    17.7000       446
    17.7200       514
    17.7400       506
    17.7600       518
    17.7800       518
    17.8000       496
    17.8200       498
    17.8400       436
    17.8600       416
    17.8800       364
    17.9000       304
    17.9200       318
    17.9400       330
    17.9600       236
    17.9800       248
    18.0000       236
    18.0200       236
    18.0400       236
    18.0600       224
    18.0800       218
    18.1000       238
    18.1200       234
    18.1400       216
    18.1600       228
    18.1800       202
    18.2000       228
    18.2200       262
    18.2400       240
    18.2600       216
    18.2800       212
    18.3000       222
    18.3200       232
    18.3400       210
    18.3600       188
    18.3800       212
    18.4000       214
    18.4200       210
    18.4400       194
    18.4600       214
    18.4800       248
    18.5000       240
    18.5200       232
    18.5400       208
    18.5600       214
    18.5800       274
    18.6000       260
    18.6200       230
    18.6400       288
    18.6600       254
    18.6800       230
    18.7000       312
    18.7200       290
    18.7400       276
    18.7600       294
    18.7800       358
    18.8000       336
    18.8200       342
    18.8400       366
    18.8600       442
    18.8800       464
    18.9000       458
    18.9200       498
    18.9400       490
    18.9600       522
    18.9800       446
    19.0000       504
    19.0200       422
    19.0400       420
    19.0600       412
    19.0800       400
    19.1000       398
    19.1200       400
    19.1400       352
    19.1600       376
    19.1800       422
    19.2000       448
    19.2200       456
    19.2400       494
    19.2600       580
    19.2800       608
    19.3000       626
    19.3200       716
    19.3400       818
    19.3600       810
    19.3800       924
    19.4000      1108
    19.4200      1334
    19.4400      1402
    19.4600      1656
    19.4800      1888
    19.5000      2098
    19.5200      2368
    19.5400      2460
    19.5600      2456
    19.5800      2504
    19.6000      2180
    19.6200      1872
    19.6400      1562
    19.6600      1252
    19.6800      1098
    19.7000       852
    19.7200       888
    19.7400       846
    19.7600       816
    19.7800       824
    19.8000       892
    19.8200      1000
    19.8400      1118
    19.8600      1172
    19.8800      1302
    19.9000      1452
    19.9200      1550
    19.9400      1706
    19.9600      1878
    19.9800      1956
    20.0000      1904
    20.0200      1836
    20.0400      1688
    20.0600      1386
    20.0800      1146
    20.1000       976
    20.1200       812
    20.1400       644
    20.1600       504
    20.1800       462
    20.2000       394
    20.2200       384
    20.2400       328
    20.2600       370
    20.2800       322
    20.3000       300
    20.3200       298
    20.3400       294
    20.3600       308
    20.3800       262
    20.4000       278
    20.4200       262
    20.4400       272
    20.4600       256
    20.4800       236
    20.5000       252
    20.5200       276
    20.5400       272
    20.5600       250
    20.5800       234
    20.6000       234
    20.6200       252
    20.6400       250
    20.6600       234
    20.6800       274
    20.7000       260
    20.7200       276
    20.7400       276
    20.7600       280
    20.7800       300
    20.8000       338
    20.8200       300
    20.8400       338
    20.8600       358
    20.8800       400
    20.9000       432
    20.9200       464
    20.9400       524
    20.9600       536
    20.9800       620
    21.0000       730
    21.0200       744
    21.0400       870
    21.0600       984
    21.0800      1182
    21.1000      1370
    21.1200      1592
    21.1400      1820
    21.1600      1918
    21.1800      2208
    21.2000      2324
    21.2200      2364
    21.2400      2316
    21.2600      2008
    21.2800      1854
    21.3000      1524
    21.3200      1248
    21.3400      1002
    21.3600       848
    21.3800       684
    21.4000       538
    21.4200       522
    21.4400       370
    21.4600       434
    21.4800       336
    21.5000       328
    21.5200       318
    21.5400       286
    21.5600       296
    21.5800       244
    21.6000       234
    21.6200       262
    21.6400       244
    21.6600       252
    21.6800       266
    21.7000       242
    21.7200       240
    21.7400       236
    21.7600       244
    21.7800       246
    21.8000       250
    21.8200       242
    21.8400       226
    21.8600       260
    21.8800       234
    21.9000       278
    21.9200       270
    21.9400       270
    21.9600       250
    21.9800       294
    22.0000       228
    22.0200       248
    22.0400       242
    22.0600       210
    22.0800       250
    22.1000       230
    22.1200       224
    22.1400       246
    22.1600       236
    22.1800       224
    22.2000       214
    22.2200       234
    22.2400       258
    22.2600       238
    22.2800       240
    22.3000       240
    22.3200       244
    22.3400       262
    22.3600       244
    22.3800       282
    22.4000       286
    22.4200       296
    22.4400       314
    22.4600       350
    22.4800       366
    22.5000       430
    22.5200       440
    22.5400       482
    22.5600       544
    22.5800       590
    22.6000       628
    22.6200       726
    22.6400       858
    22.6600       948
    22.6800      1074
    22.7000      1284
    22.7200      1502
    22.7400      1812
    22.7600      2048
    22.7800      2324
    22.8000      2756
    22.8200      3076
    22.8400      3322
    22.8600      3410
    22.8800      3428
    22.9000      3334
    22.9200      2918
    22.9400      2474
    22.9600      2082
    22.9800      1628
    23.0000      1276
    23.0200      1102
    23.0400       874
    23.0600       730
    23.0800       710
    23.1000       636
    23.1200       570
    23.1400       570
    23.1600       500
    23.1800       496
    23.2000       442
    23.2200       414
    23.2400       374
    23.2600       376
    23.2800       370
    23.3000       342
    23.3200       336
    23.3400       330
    23.3600       306
    23.3800       254
    23.4000       276
    23.4200       294
    23.4400       286
    23.4600       266
    23.4800       286
    23.5000       266
    23.5200       256
    23.5400       248
    23.5600       252
    23.5800       218
    23.6000       264
    23.6200       242
    23.6400       246
    23.6600       216
    23.6800       230
    23.7000       254
    23.7200       230
    23.7400       222
    23.7600       234
    23.7800       244
    23.8000       234
    23.8200       244
    23.8400       236
    23.8600       232
    23.8800       226
    23.9000       210
    23.9200       240
    23.9400       232
    23.9600       242
    23.9800       244
    24.0000       238
    24.0200       250
    24.0400       270
    24.0600       278
    24.0800       254
    24.1000       274
    24.1200       262
    24.1400       302
    24.1600       290
    24.1800       286
    24.2000       352
    24.2200       350
    24.2400       350
    24.2600       372
    24.2800       444
    24.3000       408
    24.3200       462
    24.3400       578
    24.3600       616
    24.3800       648
    24.4000       732
    24.4200       810
    24.4400       968
    24.4600      1020
    24.4800      1198
    24.5000      1268
    24.5200      1340
    24.5400      1444
    24.5600      1360
    24.5800      1312
    24.6000      1250
    24.6200      1076
    24.6400      1062
    24.6600       962
    24.6800       794
    24.7000       756
    24.7200       664
    24.7400       624
    24.7600       558
    24.7800       572
    24.8000       510
    24.8200       434
    24.8400       442
    24.8600       486
    24.8800       436
    24.9000       442
    24.9200       462
    24.9400       452
    24.9600       504
    24.9800       494
    25.0000       454
    25.0200       558
    25.0400       502
    25.0600       534
    25.0800       534
    25.1000       586
    25.1200       618
    25.1400       640
    25.1600       670
    25.1800       698
    25.2000       730
    25.2200       768
    25.2400       786
    25.2600       836
    25.2800       764
    25.3000       748
    25.3200       750
    25.3400       682
    25.3600       586
    25.3800       554
    25.4000       556
    25.4200       584
    25.4400       540
    25.4600       554
    25.4800       612
    25.5000       686
    25.5200       682
    25.5400       730
    25.5600       752
    25.5800       874
    25.6000       868
    25.6200       872
    25.6400       884
    25.6600       792
    25.6800       718
    25.7000       596
    25.7200       570
    25.7400       472
    25.7600       420
    25.7800       386
    25.8000       340
    25.8200       318
    25.8400       334
    25.8600       264
    25.8800       300
    25.9000       276
    25.9200       264
    25.9400       266
    25.9600       248
    25.9800       268
    26.0000       234
    26.0200       264
    26.0400       222
    26.0600       238
    26.0800       242
    26.1000       232
    26.1200       246
    26.1400       226
    26.1600       238
    26.1800       234
    26.2000       264
    26.2200       252
    26.2400       254
    26.2600       262
    26.2800       258
    26.3000       294
    26.3200       262
    26.3400       280
    26.3600       264
    26.3800       280
    26.4000       286
    26.4200       294
    26.4400       310
    26.4600       280
    26.4800       280
    26.5000       282
    26.5200       288
    26.5400       254
    26.5600       264
    26.5800       296
    26.6000       282
    26.6200       296
    26.6400       314
    26.6600       284
    26.6800       280
    26.7000       240
    26.7200       278
    26.7400       288
    26.7600       270
    26.7800       244
    26.8000       246
    26.8200       242
    26.8400       226
    26.8600       238
    26.8800       246
    26.9000       226
    26.9200       256
    26.9400       240
    26.9600       256
    26.9800       226
    27.0000       228
    27.0200       254
    27.0400       266
    27.0600       286
    27.0800       268
    27.1000       288
    27.1200       298
    27.1400       292
    27.1600       344
    27.1800       392
    27.2000       382
    27.2200       400
    27.2400       448
    27.2600       488
    27.2800       514
    27.3000       610
    27.3200       674
    27.3400       750
    27.3600       906
    27.3800       930
    27.4000      1040
    27.4200      1136
    27.4400      1232
    27.4600      1330
    27.4800      1338
    27.5000      1344
    27.5200      1418
    27.5400      1322
    27.5600      1262
    27.5800      1132
    27.6000      1050
    27.6200       852
    27.6400       754
    27.6600       698
    27.6800       636
    27.7000       484
    27.7200       458
    27.7400       372
    27.7600       404
    27.7800       316
    27.8000       346
    27.8200       326
    27.8400       306
    27.8600       298
    27.8800       284
    27.9000       328
    27.9200       306
    27.9400       276
    27.9600       296
    27.9800       256
    28.0000       266
    28.0200       254
    28.0400       258
    28.0600       256
    28.0800       238
    28.1000       268
    28.1200       232
    28.1400       236
    28.1600       242
    28.1800       252
    28.2000       286
    28.2200       246
    28.2400       224
    28.2600       250
    28.2800       262
    28.3000       248
    28.3200       246
    28.3400       250
    28.3600       240
    28.3800       236
    28.4000       266
    28.4200       236
    28.4400       246
    28.4600       252
    28.4800       240
    28.5000       248
    28.5200       232
    28.5400       242
    28.5600       236
    28.5800       264
    28.6000       268
    28.6200       246
    28.6400       256
    28.6600       274
    28.6800       272
    28.7000       344
    28.7200       338
    28.7400       336
    28.7600       290
    28.7800       274
    28.8000       276
    28.8200       324
    28.8400       288
    28.8600       290
    28.8800       302
    28.9000       266
    28.9200       286
    28.9400       290
    28.9600       252
    28.9800       280
    29.0000       240
    29.0200       224
    29.0400       266
    29.0600       254
    29.0800       256
    29.1000       282
    29.1200       290
    29.1400       282
    29.1600       298
    29.1800       268
    29.2000       296
    29.2200       294
    29.2400       334
    29.2600       310
    29.2800       360
    29.3000       350
    29.3200       402
    29.3400       390
    29.3600       450
    29.3800       414
    29.4000       474
    29.4200       484
    29.4400       544
    29.4600       568
    29.4800       598
    29.5000       612
    29.5200       634
    29.5400       688
    29.5600       688
    29.5800       726
    29.6000       766
    29.6200       748
    29.6400       708
    29.6600       682
    29.6800       648
    29.7000       572
    29.7200       588
    29.7400       512
    29.7600       500
    29.7800       500
    29.8000       484
    29.8200       504
    29.8400       522
    29.8600       518
    29.8800       538
    29.9000       544
    29.9200       572
    29.9400       642
    29.9600       762
    29.9800       832
    30.0000       902
    30.0200      1068
    30.0400      1102
    30.0600      1292
    30.0800      1482
    30.1000      1794
    30.1200      1894
    30.1400      2148
    30.1600      2332
    30.1800      2376
    30.2000      2420
    30.2200      2552
    30.2400      2406
    30.2600      2372
    30.2800      2264
    30.3000      2168
    30.3200      1964
    30.3400      1932
    30.3600      1706
    30.3800      1802
    30.4000      1776
    30.4200      1826
    30.4400      1910
    30.4600      1930
    30.4800      2116
    30.5000      2386
    30.5200      2578
    30.5400      2852
    30.5600      3172
    30.5800      3262
    30.6000      3768
    30.6200      3918
    30.6400      4056
    30.6600      4094
    30.6800      3852
    30.7000      3582
    30.7200      3312
    30.7400      2930
    30.7600      2554
    30.7800      2194
    30.8000      1822
    30.8200      1590
    30.8400      1498
    30.8600      1326
    30.8800      1198
    30.9000      1218
    30.9200      1178
    30.9400      1212
    30.9600      1260
    30.9800      1214
    31.0000      1224
    31.0200      1300
    31.0400      1398
    31.0600      1458
    31.0800      1466
    31.1000      1520
    31.1200      1618
    31.1400      1676
    31.1600      1672
    31.1800      1700
    31.2000      1684
    31.2200      1686
    31.2400      1524
    31.2600      1510
    31.2800      1346
    31.3000      1264
    31.3200      1086
    31.3400      1030
    31.3600       890
    31.3800       756
    31.4000       730
    31.4200       630
    31.4400       594
    31.4600       600
    31.4800       506
    31.5000       512
    31.5200       448
    31.5400       464
    31.5600       480
    31.5800       466
    31.6000       444
    31.6200       480
    31.6400       480
    31.6600       488
    31.6800       470
    31.7000       510
    31.7200       520
    31.7400       614
    31.7600       606
    31.7800       626
    31.8000       702
    31.8200       748
    31.8400       850
    31.8600       848
    31.8800      1004
    31.9000      1128
    31.9200      1272
    31.9400      1318
    31.9600      1572
    31.9800      1716
    32.0000      1812
    32.0200      1860
    32.0400      1856
    32.0600      1832
    32.0800      1666
    32.1000      1452
    32.1200      1424
    32.1400      1362
    32.1600      1194
    32.1800      1130
    32.2000      1062
    32.2200      1116
    32.2400      1062
    32.2600      1140
    32.2800      1232
    32.3000      1346
    32.3200      1568
    32.3400      1752
    32.3600      1932
    32.3800      2130
    32.4000      2488
    32.4200      2912
    32.4400      3228
    32.4600      3922
    32.4800      4356
    32.5000      5060
    32.5200      5458
    32.5400      5828
    32.5600      6156
    32.5800      6216
    32.6000      5828
    32.6200      5522
    32.6400      5050
    32.6600      4522
    32.6800      4022
    32.7000      3368
    32.7200      3004
    32.7400      2584
    32.7600      2032
    32.7800      1800
    32.8000      1568
    32.8200      1376
    32.8400      1306
    32.8600      1160
    32.8800      1106
    32.9000      1012
    32.9200      1062
    32.9400      1040
    32.9600      1034
    32.9800      1110
    33.0000      1080
    33.0200      1170
    33.0400      1230
    33.0600      1222
    33.0800      1324
    33.1000      1362
    33.1200      1230
    33.1400      1190
    33.1600      1030
    33.1800       968
    33.2000       938
    33.2200       786
    33.2400       704
    33.2600       586
    33.2800       588
    33.3000       478
    33.3200       448
    33.3400       384
    33.3600       364
    33.3800       372
    33.4000       364
    33.4200       362
    33.4400       310
    33.4600       306
    33.4800       298
    33.5000       280
    33.5200       276
    33.5400       250
    33.5600       264
    33.5800       240
    33.6000       278
    33.6200       244
    33.6400       260
    33.6600       232
    33.6800       240
    33.7000       240
    33.7200       246
    33.7400       232
    33.7600       250
    33.7800       218
    33.8000       232
    33.8200       216
    33.8400       238
    33.8600       224
    33.8800       226
    33.9000       196
    33.9200       230
    33.9400       238
    33.9600       234
    33.9800       216
    34.0000       218
    34.0200       230
    34.0400       230
    34.0600       242
    34.0800       242
    34.1000       258
    34.1200       264
    34.1400       262
    34.1600       226
    34.1800       258
    34.2000       248
    34.2200       210
    34.2400       266
    34.2600       232
    34.2800       252
    34.3000       280
    34.3200       248
    34.3400       276
    34.3600       286
    34.3800       296
    34.4000       322
    34.4200       316
    34.4400       322
    34.4600       390
    34.4800       430
    34.5000       410
    34.5200       484
    34.5400       416
    34.5600       458
    34.5800       434
    34.6000       426
    34.6200       426
    34.6400       368
    34.6600       408
    34.6800       342
    34.7000       364
    34.7200       360
    34.7400       346
    34.7600       342
    34.7800       296
    34.8000       314
    34.8200       314
    34.8400       296
    34.8600       280
    34.8800       282
    34.9000       306
    34.9200       294
    34.9400       304
    34.9600       270
    34.9800       298
    35.0000       302
    35.0200       282
    35.0400       290
    35.0600       280
    35.0800       290
    35.1000       276
    35.1200       246
    35.1400       254
    35.1600       238
    35.1800       260
    35.2000       216
    35.2200       274
    35.2400       248
    35.2600       230
    35.2800       232
    35.3000       254
    35.3200       274
    35.3400       254
    35.3600       238
    35.3800       246
    35.4000       254
    35.4200       244
    35.4400       242
    35.4600       264
    35.4800       266
    35.5000       256
    35.5200       236
    35.5400       256
    35.5600       264
    35.5800       282
    35.6000       292
    35.6200       266
    35.6400       294
    35.6600       276
    35.6800       288
    35.7000       304
    35.7200       332
    35.7400       348
    35.7600       336
    35.7800       336
    35.8000       400
    35.8200       348
    35.8400       386
    35.8600       384
    35.8800       442
    35.9000       436
    35.9200       444
    35.9400       486
    35.9600       506
    35.9800       590
    36.0000       582
    36.0200       662
    36.0400       650
    36.0600       658
    36.0800       682
    36.1000       692
    36.1200       676
    36.1400       656
    36.1600       736
    36.1800       706
    36.2000       676
    36.2200       666
    36.2400       606
    36.2600       546
    36.2800       520
    36.3000       504
    36.3200       478
    36.3400       382
    36.3600       384
    36.3800       360
    36.4000       346
    36.4200       354
    36.4400       328
    36.4600       386
    36.4800       352
    36.5000       374
    36.5200       368
    36.5400       424
    36.5600       372
    36.5800       418
    36.6000       418
    36.6200       442
    36.6400       488
    36.6600       534
    36.6800       572
    36.7000       616
    36.7200       684
    36.7400       808
    36.7600       906
    36.7800      1008
    36.8000      1128
    36.8200      1190
    36.8400      1360
    36.8600      1462
    36.8800      1536
    36.9000      1612
    36.9200      1504
    36.9400      1582
    36.9600      1506
    36.9800      1426
    37.0000      1344
    37.0200      1224
    37.0400      1154
    37.0600      1102
    37.0800      1008
    37.1000      1016
    37.1200      1006
    37.1400       974
    37.1600       898
    37.1800       992
    37.2000      1004
    37.2200       868
    37.2400       872
    37.2600       864
    37.2800       808
    37.3000       776
    37.3200       714
    37.3400       664
    37.3600       622
    37.3800       642
    37.4000       594
    37.4200       558
    37.4400       504
    37.4600       532
    37.4800       482
    37.5000       538
    37.5200       520
    37.5400       486
    37.5600       494
    37.5800       476
    37.6000       506
    37.6200       470
    37.6400       546
    37.6600       518
    37.6800       512
    37.7000       544
    37.7200       584
    37.7400       604
    37.7600       622
    37.7800       670
    37.8000       702
    37.8200       724
    37.8400       716
    37.8600       838
    37.8800       886
    37.9000       976
    37.9200      1068
    37.9400      1222
    37.9600      1320
    37.9800      1446
    38.0000      1648
    38.0200      1724
    38.0400      1722
    38.0600      1876
    38.0800      1752
    38.1000      1790
    38.1200      1718
    38.1400      1712
    38.1600      1582
    38.1800      1606
    38.2000      1528
    38.2200      1618
    38.2400      1674
    38.2600      1776
    38.2800      1872
    38.3000      1950
    38.3200      2226
    38.3400      2470
    38.3600      2720
    38.3800      3026
    38.4000      3334
    38.4200      3742
    38.4400      3926
    38.4600      4322
    38.4800      4538
    38.5000      4666
    38.5200      4868
    38.5400      4792
    38.5600      4866
    38.5800      4906
    38.6000      4888
    38.6200      4932
    38.6400      4704
    38.6600      4554
    38.6800      4338
    38.7000      4354
    38.7200      4186
    38.7400      4024
    38.7600      3760
    38.7800      3198
    38.8000      3140
    38.8200      2794
    38.8400      2560
    38.8600      2252
    38.8800      2074
    38.9000      1840
    38.9200      1646
    38.9400      1492
    38.9600      1408
    38.9800      1280
    39.0000      1262
    39.0200      1186
    39.0400      1154
    39.0600      1158
    39.0800      1134
    39.1000      1208
    39.1200      1140
    39.1400      1162
    39.1600      1138
    39.1800      1128
    39.2000      1192
    39.2200      1214
    39.2400      1218
    39.2600      1282
    39.2800      1204
    39.3000      1264
    39.3200      1232
    39.3400      1188
    39.3600      1124
    39.3800      1086
    39.4000      1086
    39.4200      1060
    39.4400       990
    39.4600       984
    39.4800       966
    39.5000      1002
    39.5200       986
    39.5400      1014
    39.5600      1092
    39.5800      1182
    39.6000      1268
    39.6200      1436
    39.6400      1572
    39.6600      1658
    39.6800      1778
    39.7000      1878
    39.7200      1936
    39.7400      1920
    39.7600      1856
    39.7800      1684
    39.8000      1506
    39.8200      1514
    39.8400      1390
    39.8600      1250
    39.8800      1090
    39.9000       950
    39.9200       972
    39.9400       834
    39.9600       798
    39.9800       746
    40.0000       738
    40.0200       738
    40.0400       718
    40.0600       722
    40.0800       762
    40.1000       768
    40.1200       722
    40.1400       790
    40.1600       788
    40.1800       762
    40.2000       794
    40.2200       788
    40.2400       780
    40.2600       730
    40.2800       858
    40.3000       782
    40.3200       802
    40.3400       814
    40.3600       876
    40.3800       964
    40.4000       980
    40.4200      1072
    40.4400      1068
    40.4600      1112
    40.4800      1154
    40.5000      1188
    40.5200      1228
    40.5400      1296
    40.5600      1332
    40.5800      1288
    40.6000      1378
    40.6200      1260
    40.6400      1262
    40.6600      1170
    40.6800      1100
    40.7000      1080
    40.7200      1030
    40.7400       910
    40.7600       938
    40.7800       830
    40.8000       808
    40.8200       716
    40.8400       696
    40.8600       690
    40.8800       630
    40.9000       654
    40.9200       644
    40.9400       622
    40.9600       630
    40.9800       662
    41.0000       726
    41.0200       668
    41.0400       776
    41.0600       810
    41.0800       816
    41.1000       936
    41.1200       964
    41.1400      1152
    41.1600      1230
    41.1800      1348
    41.2000      1472
    41.2200      1562
    41.2400      1750
    41.2600      1782
    41.2800      1948
    41.3000      2038
    41.3200      1966
    41.3400      2028
    41.3600      2026
    41.3800      2050
    41.4000      1848
    41.4200      1802
    41.4400      1650
    41.4600      1540
    41.4800      1430
    41.5000      1324
    41.5200      1258
    41.5400      1222
    41.5600      1060
    41.5800      1002
    41.6000       968
    41.6200       922
    41.6400       876
    41.6600       832
    41.6800       830
    41.7000       834
    41.7200       940
    41.7400       868
    41.7600       968
    41.7800      1072
    41.8000      1060
    41.8200      1202
    41.8400      1198
    41.8600      1382
    41.8800      1318
    41.9000      1418
    41.9200      1412
    41.9400      1332
    41.9600      1340
    41.9800      1290
    42.0000      1208
    42.0200      1064
    42.0400      1036
    42.0600       994
    42.0800       878
    42.1000       802
    42.1200       692
    42.1400       664
    42.1600       568
    42.1800       554
    42.2000       506
    42.2200       490
    42.2400       496
    42.2600       452
    42.2800       486
    42.3000       420
    42.3200       414
    42.3400       398
    42.3600       370
    42.3800       388
    42.4000       360
    42.4200       348
    42.4400       376
    42.4600       340
    42.4800       314
    42.5000       370
    42.5200       360
    42.5400       322
    42.5600       328
    42.5800       372
    42.6000       366
    42.6200       314
    42.6400       312
    42.6600       374
    42.6800       384
    42.7000       374
    42.7200       354
    42.7400       370
    42.7600       374
    42.7800       370
    42.8000       364
    42.8200       366
    42.8400       388
    42.8600       454
    42.8800       426
    42.9000       464
    42.9200       482
    42.9400       522
    42.9600       520
    42.9800       550
    43.0000       562
    43.0200       638
    43.0400       708
    43.0600       766
    43.0800       886
    43.1000       976
    43.1200      1026
    43.1400      1182
    43.1600      1318
    43.1800      1396
    43.2000      1358
    43.2200      1448
    43.2400      1520
    43.2600      1392
    43.2800      1362
    43.3000      1332
    43.3200      1192
    43.3400      1124
    43.3600      1046
    43.3800      1010
    43.4000       872
    43.4200       774
    43.4400       684
    43.4600       656
    43.4800       652
    43.5000       556
    43.5200       568
    43.5400       508
    43.5600       512
    43.5800       524
    43.6000       512
    43.6200       504
    43.6400       486
    43.6600       482
    43.6800       534
    43.7000       518
    43.7200       544
    43.7400       538
    43.7600       584
    43.7800       626
    43.8000       592
    43.8200       618
    43.8400       608
    43.8600       580
    43.8800       640
    43.9000       640
    43.9200       590
    43.9400       584
    43.9600       590
    43.9800       568
    44.0000       502
    44.0200       506
    44.0400       502
    44.0600       500
    44.0800       466
    44.1000       510
    44.1200       472
    44.1400       502
    44.1600       484
    44.1800       484
    44.2000       440
    44.2200       464
    44.2400       470
    44.2600       518
    44.2800       506
    44.3000       538
    44.3200       538
    44.3400       564
    44.3600       536
    44.3800       564
    44.4000       606
    44.4200       608
    44.4400       670
    44.4600       734
    44.4800       762
    44.5000       826
    44.5200       884
    44.5400      1012
    44.5600      1008
    44.5800      1164
    44.6000      1220
    44.6200      1300
    44.6400      1356
    44.6600      1454
    44.6800      1544
    44.7000      1620
    44.7200      1532
    44.7400      1522
    44.7600      1594
    44.7800      1578
    44.8000      1628
    44.8200      1580
    44.8400      1648
    44.8600      1640
    44.8800      1558
    44.9000      1640
    44.9200      1602
    44.9400      1794
    44.9600      1746
    44.9800      1906
    45.0000      1906
    45.0200      2058
    45.0400      2158
    45.0600      2126
    45.0800      2202
    45.1000      2132
    45.1200      2140
    45.1400      2156
    45.1600      2126
    45.1800      2140
    45.2000      2088
    45.2200      2108
    45.2400      1858
    45.2600      1820
    45.2800      1716
    45.3000      1596
    45.3200      1516
    45.3400      1456
    45.3600      1368
    45.3800      1210
    45.4000      1144
    45.4200      1130
    45.4400      1142
    45.4600      1058
    45.4800       992
    45.5000       964
    45.5200       954
    45.5400       910
    45.5600       902
    45.5800       870
    45.6000       806
    45.6200       768
    45.6400       818
    45.6600       720
    45.6800       788
    45.7000       716
    45.7200       760
    45.7400       674
    45.7600       758
    45.7800       678
    45.8000       682
    45.8200       718
    45.8400       668
    45.8600       676
    45.8800       696
    45.9000       658
    45.9200       628
    45.9400       620
    45.9600       682
    45.9800       646
    46.0000       622
    46.0200       640
    46.0400       684
    46.0600       662
    46.0800       692
    46.1000       684
    46.1200       728
    46.1400       704
    46.1600       764
    46.1800       712
    46.2000       750
    46.2200       786
    46.2400       802
    46.2600       902
    46.2800       868
    46.3000       926
    46.3200      1022
    46.3400      1016
    46.3600      1096
    46.3800      1154
    46.4000      1320
    46.4200      1404
    46.4400      1478
    46.4600      1728
    46.4800      1798
    46.5000      2062
    46.5200      2330
    46.5400      2466
    46.5600      2852
    46.5800      3276
    46.6000      3694
    46.6200      4038
    46.6400      4468
    46.6600      5078
    46.6800      5328
    46.7000      5778
    46.7200      5862
    46.7400      6062
    46.7600      5668
    46.7800      5548
    46.8000      5382
    46.8200      4970
    46.8400      4428
    46.8600      4110
    46.8800      3834
    46.9000      3344
    46.9200      2844
    46.9400      2572
    46.9600      2210
    46.9800      2030
    47.0000      1650
    47.0200      1508
    47.0400      1354
    47.0600      1120
    47.0800      1098
    47.1000       916
    47.1200       870
    47.1400       826
    47.1600       840
    47.1800       750
    47.2000       762
    47.2200       670
    47.2400       658
    47.2600       650
    47.2800       576
    47.3000       586
    47.3200       552
    47.3400       574
    47.3600       544
    47.3800       494
    47.4000       510
    47.4200       538
    47.4400       522
    47.4600       470
    47.4800       480
    47.5000       474
    47.5200       460
    47.5400       426
    47.5600       478
    47.5800       466
    47.6000       512
    47.6200       532
    47.6400       456
    47.6600       478
    47.6800       490
    47.7000       528
    47.7200       536
    47.7400       588
    47.7600       568
    47.7800       594
    47.8000       614
    47.8200       628
    47.8400       698
    47.8600       690
    47.8800       686
    47.9000       652
    47.9200       704
    47.9400       640
    47.9600       606
    47.9800       680
    48.0000       624
    48.0200       668
    48.0400       636
    48.0600       612
    48.0800       654
    48.1000       656
    48.1200       680
    48.1400       682
    48.1600       700
    48.1800       686
    48.2000       756
    48.2200       748
    48.2400       828
    48.2600       798
    48.2800       824
    48.3000       792
    48.3200       796
    48.3400       826
    48.3600       822
    48.3800       912
    48.4000       872
    48.4200       950
    48.4400       962
    48.4600      1008
    48.4800      1066
    48.5000      1068
    48.5200      1122
    48.5400      1250
    48.5600      1194
    48.5800      1272
    48.6000      1312
    48.6200      1284
    48.6400      1344
    48.6600      1302
    48.6800      1174
    48.7000      1186
    48.7200      1108
    48.7400      1106
    48.7600      1050
    48.7800       988
    48.8000       900
    48.8200       892
    48.8400       838
    48.8600       746
    48.8800       716
    48.9000       642
    48.9200       628
    48.9400       548
    48.9600       598
    48.9800       530
    49.0000       500
    49.0200       454
    49.0400       504
    49.0600       454
    49.0800       414
    49.1000       442
    49.1200       416
    49.1400       378
    49.1600       344
    49.1800       346
    49.2000       366
    49.2200       304
    49.2400       326
    49.2600       296
    49.2800       340
    49.3000       364
    49.3200       330
    49.3400       326
    49.3600       324
    49.3800       326
    49.4000       350
    49.4200       314
    49.4400       320
    49.4600       320
    49.4800       358
    49.5000       324
    49.5200       330
    49.5400       314
    49.5600       302
    49.5800       340
    49.6000       326
    49.6200       318
    49.6400       336
    49.6600       324
    49.6800       306
    49.7000       338
    49.7200       346
    49.7400       348
    49.7600       368
    49.7800       342
    49.8000       388
    49.8200       376
    49.8400       386
    49.8600       380
    49.8800       380
    49.9000       406
    49.9200       462
    49.9400       424
    49.9600       456
    49.9800       464
    50.0000       532
    50.0200       568
    50.0400       574
    50.0600       582
    50.0800       656
    50.1000       734
    50.1200       748
    50.1400       818
    50.1600       828
    50.1800       926
    50.2000      1056
    50.2200      1120
    50.2400      1196
    50.2600      1324
    50.2800      1266
    50.3000      1372
    50.3200      1368
    50.3400      1452
    50.3600      1486
    50.3800      1428
    50.4000      1428
    50.4200      1342
    50.4400      1386
    50.4600      1252
    50.4800      1234
    50.5000      1236
    50.5200      1262
    50.5400      1148
    50.5600      1194
    50.5800      1148
    50.6000      1152
    50.6200      1112
    50.6400      1122
    50.6600      1180
    50.6800      1246
    50.7000      1232
    50.7200      1334
    50.7400      1310
    50.7600      1392
    50.7800      1452
    50.8000      1398
    50.8200      1366
    50.8400      1368
    50.8600      1308
    50.8800      1292
    50.9000      1296
    50.9200      1208
    50.9400      1252
    50.9600      1228
    50.9800      1148
    51.0000      1102
    51.0200      1020
    51.0400       932
    51.0600       936
    51.0800       904
    51.1000       914
    51.1200       776
    51.1400       798
    51.1600       768
    51.1800       794
    51.2000       770
    51.2200       776
    51.2400       792
    51.2600       810
    51.2800       862
    51.3000       796
    51.3200       814
    51.3400       856
    51.3600       878
    51.3800       784
    51.4000       824
    51.4200       880
    51.4400       886
    51.4600       864
    51.4800       876
    51.5000       818
    51.5200       860
    51.5400       894
    51.5600       862
    51.5800       888
    51.6000       864
    51.6200       852
    51.6400       930
    51.6600       900
    51.6800      1000
    51.7000      1030
    51.7200      1074
    51.7400      1080
    51.7600      1078
    51.7800      1224
    51.8000      1240
    51.8200      1400
    51.8400      1380
    51.8600      1490
    51.8800      1476
    51.9000      1550
    51.9200      1496
    51.9400      1530
    51.9600      1426
    51.9800      1454
    52.0000      1312
    52.0200      1272
    52.0400      1270
    52.0600      1182
    52.0800      1150
    52.1000      1072
    52.1200       952
    52.1400       872
    52.1600       848
    52.1800       738
    52.2000       738
    52.2200       706
    52.2400       672
    52.2600       626
    52.2800       654
    52.3000       636
    52.3200       620
    52.3400       654
    52.3600       610
    52.3800       656
    52.4000       654
    52.4200       738
    52.4400       740
    52.4600       802
    52.4800       812
    52.5000       864
    52.5200       968
    52.5400       990
    52.5600      1064
    52.5800      1092
    52.6000      1100
    52.6200      1156
    52.6400      1176
    52.6600      1128
    52.6800      1162
    52.7000      1174
    52.7200      1138
    52.7400      1086
    52.7600      1034
    52.7800      1064
    52.8000      1044
    52.8200       960
    52.8400       906
    52.8600       860
    52.8800       874
    52.9000       806
    52.9200       756
    52.9400       780
    52.9600       756
    52.9800       746
    53.0000       698
    53.0200       694
    53.0400       804
    53.0600       776
    53.0800       726
    53.1000       764
    53.1200       792
    53.1400       842
    53.1600       956
    53.1800      1004
    53.2000      1040
    53.2200      1136
    53.2400      1228
    53.2600      1240
    53.2800      1322
    53.3000      1278
    53.3200      1382
    53.3400      1388
    53.3600      1324
    53.3800      1262
    53.4000      1216
    53.4200      1226
    53.4400      1088
    53.4600      1036
    53.4800      1068
    53.5000       986
    53.5200       876
    53.5400       852
    53.5600       752
    53.5800       790
    53.6000       708
    53.6200       652
    53.6400       626
    53.6600       604
    53.6800       596
    53.7000       584
    53.7200       536
    53.7400       544
    53.7600       524
    53.7800       492
    53.8000       554
    53.8200       492
    53.8400       476
    53.8600       490
    53.8800       472
    53.9000       470
    53.9200       420
    53.9400       442
    53.9600       430
    53.9800       412
    54.0000       458
    54.0200       428
    54.0400       434
    54.0600       456
    54.0800       480
    54.1000       486
    54.1200       446
    54.1400       452
    54.1600       466
    54.1800       506
    54.2000       488
    54.2200       482
    54.2400       522
    54.2600       582
    54.2800       480
    54.3000       542
    54.3200       536
    54.3400       540
    54.3600       570
    54.3800       562
    54.4000       622
    54.4200       568
    54.4400       586
    54.4600       602
    54.4800       564
    54.5000       574
    54.5200       608
    54.5400       638
    54.5600       622
    54.5800       624
    54.6000       626
    54.6200       656
    54.6400       634
    54.6600       662
    54.6800       740
    54.7000       694
    54.7200       758
    54.7400       740
    54.7600       728
    54.7800       794
    54.8000       820
    54.8200       784
    54.8400       782
    54.8600       790
    54.8800       756
    54.9000       816
    54.9200       782
    54.9400       812
    54.9600       800
    54.9800       798
    55.0000       884
    55.0200       862
    55.0400       900
    55.0600       904
    55.0800       926
    55.1000       988
    55.1200      1010
    55.1400      1060
    55.1600      1074
    55.1800      1080
    55.2000      1098
    55.2200      1132
    55.2400      1110
    55.2600      1078
    55.2800      1088
    55.3000      1028
    55.3200      1050
    55.3400      1034
    55.3600      1002
    55.3800       948
    55.4000       928
    55.4200       926
    55.4400       876
    55.4600       866
    55.4800       832
    55.5000       760
    55.5200       744
    55.5400       802
    55.5600       714
    55.5800       674
    55.6000       624
    55.6200       696
    55.6400       656
    55.6600       536
    55.6800       498
    55.7000       548
    55.7200       496
    55.7400       474
    55.7600       482
    55.7800       464
    55.8000       396
    55.8200       438
    55.8400       382
    55.8600       424
    55.8800       372
    55.9000       396
    55.9200       366
    55.9400       372
    55.9600       352
    55.9800       334
    56.0000       342
    56.0200       298
    56.0400       336
    56.0600       320
    56.0800       296
    56.1000       294
    56.1200       340
    56.1400       324
    56.1600       324
    56.1800       330
    56.2000       320
    56.2200       310
    56.2400       308
    56.2600       316
    56.2800       332
    56.3000       320
    56.3200       374
    56.3400       368
    56.3600       312
    56.3800       362
    56.4000       392
    56.4200       376
    56.4400       382
    56.4600       412
    56.4800       414
    56.5000       404
    56.5200       390
    56.5400       408
    56.5600       430
    56.5800       414
    56.6000       420
    56.6200       458
    56.6400       452
    56.6600       476
    56.6800       466
    56.7000       522
    56.7200       504
    56.7400       496
    56.7600       456
    56.7800       460
    56.8000       450
    56.8200       456
    56.8400       464
    56.8600       456
    56.8800       412
    56.9000       436
    56.9200       426
    56.9400       414
    56.9600       402
    56.9800       424
    57.0000       472
    57.0200       436
    57.0400       438
    57.0600       444
    57.0800       458
    57.1000       492
    57.1200       516
    57.1400       548
    57.1600       574
    57.1800       598
    57.2000       648
    57.2200       642
    57.2400       706
    57.2600       746
    57.2800       836
    57.3000       896
    57.3200       970
    57.3400      1076
    57.3600      1082
    57.3800      1124
    57.4000      1202
    57.4200      1218
    57.4400      1234
    57.4600      1268
    57.4800      1216
    57.5000      1184
    57.5200      1178
    57.5400      1206
    57.5600      1230
    57.5800      1156
    57.6000      1178
    57.6200      1182
    57.6400      1230
    57.6600      1160
    57.6800      1202
    57.7000      1190
    57.7200      1228
    57.7400      1318
    57.7600      1328
    57.7800      1272
    57.8000      1268
    57.8200      1238
    57.8400      1220
    57.8600      1160
    57.8800      1088
    57.9000      1020
    57.9200      1002
    57.9400       958
    57.9600       882
    57.9800       976
    58.0000       892
    58.0200       788
    58.0400       736
    58.0600       786
    58.0800       788
    58.1000       726
    58.1200       696
    58.1400       740
    58.1600       690
    58.1800       746
    58.2000       802
    58.2200       838
    58.2400       834
    58.2600       862
    58.2800       896
    58.3000       988
    58.3200      1004
    58.3400      1064
    58.3600      1084
    58.3800      1172
    58.4000      1210
    58.4200      1326
    58.4400      1354
    58.4600      1442
    58.4800      1494
    58.5000      1522
    58.5200      1584
    58.5400      1654
    58.5600      1776
    58.5800      1828
    58.6000      1918
    58.6200      1958
    58.6400      2042
    58.6600      2136
    58.6800      2092
    58.7000      2134
    58.7200      2216
    58.7400      2248
    58.7600      2260
    58.7800      2338
    58.8000      2270
    58.8200      2170
    58.8400      2156
    58.8600      2058
    58.8800      2008
    58.9000      1882
    58.9200      1808
    58.9400      1722
    58.9600      1572
    58.9800      1432
    59.0000      1426
    59.0200      1292
    59.0400      1208
    59.0600      1204
    59.0800      1178
    59.1000      1054
    59.1200      1008
    59.1400       956
    59.1600       920
    59.1800       952
    59.2000       906
    59.2200       870
    59.2400       866
    59.2600       868
    59.2800       852
    59.3000       904
    59.3200       930
    59.3400       898
    59.3600       962
    59.3800      1016
    59.4000       992
    59.4200      1068
    59.4400      1046
    59.4600      1128
    59.4800      1068
    59.5000      1102
    59.5200      1066
    59.5400      1080
    59.5600      1044
    59.5800      1136
    59.6000      1096
    59.6200      1082
    59.6400      1076
    59.6600      1008
    59.6800      1000
    59.7000      1062
    59.7200       990
    59.7400       940
    59.7600      1020
    59.7800      1030
    59.8000       988
    59.8200       986
    59.8400       908
    59.8600       948
    59.8800       904
    59.9000       912
    59.9200       834
    59.9400       852
    59.9600       802
    59.9800       774
    60.0000       738
    60.0200       680
    60.0400       642
    60.0600       640
    60.0800       590
    60.1000       554
    60.1200       516
    60.1400       574
    60.1600       564
    60.1800       516
    60.2000       518
    60.2200       484
    60.2400       472
    60.2600       460
    60.2800       424
    60.3000       448
    60.3200       444
    60.3400       396
    60.3600       388
    60.3800       394
    60.4000       374
    60.4200       372
    60.4400       410
    60.4600       374
    60.4800       364
    60.5000       394
    60.5200       430
    60.5400       388
    60.5600       358
    60.5800       354
    60.6000       384
    60.6200       388
    60.6400       356
    60.6600       364
    60.6800       376
    60.7000       404
    60.7200       410
    60.7400       414
    60.7600       408
    60.7800       402
    60.8000       436
    60.8200       434
    60.8400       436
    60.8600       500
    60.8800       446
    60.9000       494
    60.9200       510
    60.9400       528
    60.9600       550
    60.9800       592
    61.0000       572
    61.0200       574
    61.0400       646
    61.0600       680
    61.0800       662
    61.1000       718
    61.1200       676
    61.1400       796
    61.1600       792
    61.1800       806
    61.2000       790
    61.2200       836
    61.2400       826
    61.2600       896
    61.2800       896
    61.3000       894
    61.3200       880
    61.3400       898
    61.3600       934
    61.3800      1006
    61.4000       960
    61.4200       948
    61.4400       992
    61.4600       982
    61.4800      1060
    61.5000      1034
    61.5200      1046
    61.5400       998
    61.5600       986
    61.5800       932
    61.6000       892
    61.6200       868
    61.6400       850
    61.6600       850
    61.6800       750
    61.7000       654
    61.7200       656
    61.7400       678
    61.7600       628
    61.7800       606
    61.8000       596
    61.8200       564
    61.8400       568
    61.8600       584
    61.8800       534
    61.9000       504
    61.9200       534
    61.9400       504
    61.9600       548
    61.9800       500
    62.0000       480
    62.0200       494
    62.0400       512
    62.0600       484
    62.0800       526
    62.1000       490
    62.1200       480
    62.1400       466
    62.1600       448
    62.1800       464
    62.2000       498
    62.2200       432
    62.2400       444
    62.2600       424
    62.2800       420
    62.3000       408
    62.3200       434
    62.3400       422
    62.3600       440
    62.3800       420
    62.4000       448
    62.4200       364
    62.4400       376
    62.4600       380
    62.4800       384
    62.5000       392
    62.5200       380
    62.5400       370
    62.5600       420
    62.5800       404
    62.6000       408
    62.6200       386
    62.6400       434
    62.6600       374
    62.6800       400
    62.7000       364
    62.7200       386
    62.7400       350
    62.7600       376
    62.7800       386
    62.8000       366
    62.8200       406
    62.8400       360
    62.8600       382
    62.8800       344
    62.9000       344
    62.9200       360
    62.9400       348
    62.9600       334
    62.9800       334
    63.0000       298
    63.0200       302
    63.0400       332
    63.0600       274
    63.0800       278
    63.1000       302
    63.1200       292
    63.1400       278
    63.1600       282
    63.1800       276
    63.2000       254
    63.2200       256
    63.2400       258
    63.2600       288
    63.2800       244
    63.3000       250
    63.3200       278
    63.3400       270
    63.3600       284
    63.3800       286
    63.4000       300
    63.4200       292
    63.4400       302
    63.4600       300
    63.4800       278
    63.5000       294
    63.5200       276
    63.5400       284
    63.5600       342
    63.5800       334
    63.6000       334
    63.6200       378
    63.6400       402
    63.6600       440
    63.6800       412
    63.7000       448
    63.7200       412
    63.7400       480
    63.7600       482
    63.7800       534
    63.8000       572
    63.8200       582
    63.8400       570
    63.8600       580
    63.8800       580
    63.9000       614
    63.9200       568
    63.9400       542
    63.9600       540
    63.9800       604
    64.0000       514
    64.0200       522
    64.0400       510
    64.0600       530
    64.0800       446
    64.1000       502
    64.1200       438
    64.1400       416
    64.1600       420
    64.1800       426
    64.2000       400
    64.2200       398
    64.2400       374
    64.2600       354
    64.2800       356
    64.3000       368
    64.3200       336
    64.3400       350
    64.3600       306
    64.3800       320
    64.4000       300
    64.4200       298
    64.4400       296
    64.4600       298
    64.4800       316
    64.5000       270
    64.5200       288
    64.5400       316
    64.5600       318
    64.5800       294
    64.6000       288
    64.6200       312
    64.6400       332
    64.6600       340
    64.6800       316
    64.7000       348
    64.7200       332
    64.7400       360
    64.7600       378
    64.7800       386
    64.8000       384
    64.8200       380
    64.8400       388
    64.8600       434
    64.8800       434
    64.9000       502
    64.9200       456
    64.9400       492
    64.9600       500
    64.9800       524
    65.0000       510
    65.0200       586
    65.0400       506
    65.0600       572
    65.0800       584
    65.1000       576
    65.1200       628
    65.1400       626
    65.1600       604
    65.1800       598
    65.2000       618
    65.2200       596
    65.2400       588
    65.2600       630
    65.2800       606
    65.3000       552
    65.3200       590
    65.3400       548
    65.3600       588
    65.3800       544
    65.4000       526
    65.4200       504
    65.4400       524
    65.4600       488
    65.4800       470
    65.5000       484
    65.5200       496
    65.5400       460
    65.5600       416
    65.5800       456
    65.6000       434
    65.6200       418
    65.6400       424
    65.6600       382
    65.6800       412
    65.7000       390
    65.7200       336
    65.7400       384
    65.7600       336
    65.7800       370
    65.8000       368
    65.8200       366
    65.8400       324
    65.8600       308
    65.8800       328
    65.9000       310
    65.9200       302
    65.9400       280
    65.9600       308
    65.9800       300
    66.0000       276
    66.0200       296
    66.0400       294
    66.0600       324
    66.0800       262
    66.1000       278
    66.1200       290
    66.1400       254
    66.1600       248
    66.1800       272
    66.2000       272
    66.2200       236
    66.2400       250
    66.2600       304
    66.2800       234
    66.3000       264
    66.3200       306
    66.3400       282
    66.3600       262
    66.3800       320
    66.4000       294
    66.4200       304
    66.4400       316
    66.4600       302
    66.4800       286
    66.5000       324
    66.5200       330
    66.5400       368
    66.5600       344
    66.5800       344
    66.6000       382
    66.6200       390
    66.6400       388
    66.6600       396
    66.6800       464
    66.7000       426
    66.7200       498
    66.7400       494
    66.7600       478
    66.7800       588
    66.8000       546
    66.8200       578
    66.8400       574
    66.8600       588
    66.8800       662
    66.9000       690
    66.9200       620
    66.9400       614
    66.9600       680
    66.9800       664
    67.0000       676
    67.0200       626
    67.0400       648
    67.0600       652
    67.0800       572
    67.1000       626
    67.1200       572
    67.1400       504
    67.1600       544
    67.1800       544
    67.2000       512
    67.2200       460
    67.2400       456
    67.2600       450
    67.2800       428
    67.3000       394
    67.3200       366
    67.3400       432
    67.3600       350
    67.3800       344
    67.4000       366
    67.4200       354
    67.4400       342
    67.4600       294
    67.4800       310
    67.5000       290
    67.5200       284
    67.5400       302
    67.5600       292
    67.5800       296
    67.6000       310
    67.6200       332
    67.6400       318
    67.6600       302
    67.6800       308
    67.7000       312
    67.7200       322
    67.7400       340
    67.7600       330
    67.7800       354
    67.8000       346
    67.8200       346
    67.8400       372
    67.8600       378
    67.8800       390
    67.9000       452
    67.9200       450
    67.9400       468
    67.9600       468
    67.9800       532
    68.0000       610
    68.0200       538
    68.0400       636
    68.0600       686
    68.0800       734
    68.1000       746
    68.1200       744
    68.1400       806
    68.1600       878
    68.1800       914
    68.2000       906
    68.2200       938
    68.2400       952
    68.2600       934
    68.2800       856
    68.3000       896
    68.3200       900
    68.3400       892
    68.3600       884
    68.3800       810
    68.4000       796
    68.4200       730
    68.4400       782
    68.4600       738
    68.4800       706
    68.5000       624
    68.5200       608
    68.5400       592
    68.5600       564
    68.5800       532
    68.6000       516
    68.6200       504
    68.6400       454
    68.6600       452
    68.6800       476
    68.7000       436
    68.7200       398
    68.7400       394
    68.7600       324
    68.7800       366
    68.8000       390
    68.8200       340
    68.8400       404
    68.8600       358
    68.8800       322
    68.9000       322
    68.9200       342
    68.9400       358
    68.9600       312
    68.9800       348
    69.0000       348
    69.0200       322
    69.0400       320
    69.0600       314
    69.0800       308
    69.1000       340
    69.1200       330
    69.1400       322
    69.1600       342
    69.1800       286
    69.2000       334
    69.2200       322
    69.2400       374
    69.2600       350
    69.2800       332
    69.3000       380
    69.3200       394
    69.3400       368
    69.3600       402
    69.3800       450
    69.4000       438
    69.4200       448
    69.4400       438
    69.4600       458
    69.4800       446
    69.5000       436
    69.5200       420
    69.5400       408
    69.5600       462
    69.5800       420
    69.6000       440
    69.6200       428
    69.6400       432
    69.6600       408
    69.6800       406
    69.7000       382
    69.7200       412
    69.7400       386
    69.7600       392
    69.7800       382
    69.8000       400
    69.8200       354
    69.8400       366
    69.8600       354
    69.8800       338
    69.9000       320
    69.9200       318
    69.9400       308
    69.9600       312
    69.9800       344
    70.0000       314
    70.0200       302
    70.0400       286
    70.0600       326
    70.0800       266
    70.1000       266
    70.1200       260
    70.1400       284
    70.1600       282
    70.1800       232
    70.2000       230
    70.2200       236
    70.2400       254
    70.2600       248
    70.2800       234
    70.3000       254
    70.3200       256
    70.3400       210
    70.3600       250
    70.3800       226
    70.4000       190
    70.4200       226
    70.4400       216
    70.4600       212
    70.4800       238
    70.5000       222
    70.5200       236
    70.5400       258
    70.5600       222
    70.5800       230
    70.6000       232
    70.6200       246
    70.6400       224
    70.6600       238
    70.6800       244
    70.7000       210
    70.7200       246
    70.7400       262
    70.7600       240
    70.7800       216
    70.8000       230
    70.8200       222
    70.8400       226
    70.8600       234
    70.8800       244
    70.9000       218
    70.9200       220
    70.9400       224
    70.9600       228
    70.9800       212
    71.0000       238
    71.0200       230
    71.0400       234
    71.0600       252
    71.0800       242
    71.1000       208
    71.1200       226
    71.1400       256
    71.1600       238
    71.1800       264
    71.2000       280
    71.2200       278
    71.2400       290
    71.2600       268
    71.2800       304
    71.3000       312
    71.3200       322
    71.3400       380
    71.3600       378
    71.3800       368
    71.4000       410
    71.4200       400
    71.4400       428
    71.4600       448
    71.4800       446
    71.5000       522
    71.5200       444
    71.5400       460
    71.5600       536
    71.5800       486
    71.6000       464
    71.6200       478
    71.6400       466
    71.6600       472
    71.6800       492
    71.7000       512
    71.7200       496
    71.7400       484
    71.7600       486
    71.7800       482
    71.8000       480
    71.8200       502
    71.8400       440
    71.8600       414
    71.8800       436
    71.9000       426
    71.9200       430
    71.9400       452
    71.9600       408
    71.9800       400
    72.0000       434
    72.0200       422
    72.0400       358
    72.0600       418
    72.0800       392
    72.1000       384
    72.1200       362
    72.1400       416
    72.1600       392
    72.1800       374
    72.2000       388
    72.2200       422
    72.2400       450
    72.2600       436
    72.2800       468
    72.3000       404
    72.3200       422
    72.3400       460
    72.3600       438
    72.3800       478
    72.4000       474
    72.4200       452
    72.4400       464
    72.4600       492
    72.4800       482
    72.5000       482
    72.5200       476
    72.5400       482
    72.5600       502
    72.5800       462
    72.6000       500
    72.6200       446
    72.6400       486
    72.6600       480
    72.6800       488
    72.7000       496
    72.7200       492
    72.7400       468
    72.7600       460
    72.7800       482
    72.8000       468
    72.8200       488
    72.8400       446
    72.8600       430
    72.8800       438
    72.9000       472
    72.9200       410
    72.9400       434
    72.9600       440
    72.9800       424
    73.0000       388
    73.0200       396
    73.0400       366
    73.0600       364
    73.0800       380
    73.1000       314
    73.1200       378
    73.1400       366
    73.1600       346
    73.1800       328
    73.2000       296
    73.2200       300
    73.2400       274
    73.2600       300
    73.2800       258
    73.3000       284
    73.3200       244
    73.3400       258
    73.3600       256
    73.3800       264
    73.4000       258
    73.4200       256
    73.4400       256
    73.4600       280
    73.4800       266
    73.5000       280
    73.5200       276
    73.5400       270
    73.5600       280
    73.5800       252
    73.6000       278
    73.6200       282
    73.6400       286
    73.6600       316
    73.6800       252
    73.7000       298
    73.7200       290
    73.7400       276
    73.7600       304
    73.7800       284
    73.8000       342
    73.8200       332
    73.8400       370
    73.8600       314
    73.8800       336
    73.9000       364
    73.9200       368
    73.9400       324
    73.9600       340
    73.9800       336
    74.0000       368
    74.0200       346
    74.0400       382
    74.0600       316
    74.0800       342
    74.1000       360
    74.1200       404
    74.1400       354
    74.1600       342
    74.1800       338
    74.2000       370
    74.2200       330
    74.2400       306
    74.2600       294
    74.2800       292
    74.3000       282
    74.3200       272
    74.3400       286
    74.3600       290
    74.3800       264
    74.4000       260
    74.4200       252
    74.4400       236
    74.4600       224
    74.4800       238
    74.5000       250
    74.5200       202
    74.5400       240
    74.5600       212
    74.5800       226
    74.6000       210
    74.6200       232
    74.6400       214
    74.6600       210
    74.6800       196
    74.7000       216
    74.7200       212
    74.7400       218
    74.7600       214
    74.7800       210
    74.8000       236
    74.8200       196
    74.8400       198
    74.8600       204
    74.8800       194
    74.9000       208
    74.9200       214
    74.9400       200
    74.9600       210
    74.9800       200
    75.0000       220
    75.0200       206
    75.0400       218
    75.0600       210
    75.0800       228
    75.1000       232
    75.1200       204
    75.1400       212
    75.1600       262
    75.1800       238
    75.2000       204
    75.2200       236
    75.2400       230
    75.2600       208
    75.2800       244
    75.3000       256
    75.3200       234
    75.3400       230
    75.3600       254
    75.3800       252
    75.4000       226
    75.4200       210
    75.4400       254
    75.4600       232
    75.4800       252
    75.5000       266
    75.5200       232
    75.5400       206
    75.5600       244
    75.5800       242
    75.6000       252
    75.6200       242
    75.6400       240
    75.6600       220
    75.6800       246
    75.7000       240
    75.7200       242
    75.7400       258
    75.7600       240
    75.7800       234
    75.8000       226
    75.8200       256
    75.8400       278
    75.8600       210
    75.8800       236
    75.9000       214
    75.9200       230
    75.9400       248
    75.9600       248
    75.9800       264
    76.0000       236
    76.0200       240
    76.0400       248
    76.0600       246
    76.0800       224
    76.1000       234
    76.1200       240
    76.1400       276
    76.1600       254
    76.1800       252
    76.2000       288
    76.2200       268
    76.2400       294
    76.2600       294
    76.2800       282
    76.3000       302
    76.3200       294
    76.3400       328
    76.3600       312
    76.3800       316
    76.4000       332
    76.4200       326
    76.4400       330
    76.4600       332
    76.4800       352
    76.5000       354
    76.5200       340
    76.5400       332
    76.5600       366
    76.5800       352
    76.6000       350
    76.6200       370
    76.6400       324
    76.6600       382
    76.6800       340
    76.7000       374
    76.7200       366
    76.7400       344
    76.7600       392
    76.7800       358
    76.8000       344
    76.8200       328
    76.8400       328
    76.8600       344
    76.8800       318
    76.9000       334
    76.9200       346
    76.9400       338
    76.9600       330
    76.9800       318
    77.0000       350
    77.0200       320
    77.0400       336
    77.0600       312
    77.0800       316
    77.1000       336
    77.1200       302
    77.1400       308
    77.1600       310
    77.1800       346
    77.2000       324
    77.2200       288
    77.2400       324
    77.2600       362
    77.2800       328
    77.3000       360
    77.3200       396
    77.3400       366
    77.3600       394
    77.3800       370
    77.4000       412
    77.4200       428
    77.4400       446
    77.4600       494
    77.4800       464
    77.5000       490
    77.5200       538
    77.5400       562
    77.5600       574
    77.5800       608
    77.6000       610
    77.6200       618
    77.6400       610
    77.6600       640
    77.6800       650
    77.7000       598
    77.7200       672
    77.7400       644
    77.7600       622
    77.7800       668
    77.8000       662
    77.8200       640
    77.8400       652
    77.8600       626
    77.8800       610
    77.9000       626
    77.9200       620
    77.9400       624
    77.9600       564
    77.9800       540
    78.0000       574
    78.0200       518
    78.0400       474
    78.0600       482
    78.0800       472
    78.1000       486
    78.1200       454
    78.1400       448
    78.1600       452
    78.1800       410
    78.2000       420
    78.2200       402
    78.2400       384
    78.2600       396
    78.2800       428
    78.3000       400
    78.3200       374
    78.3400       396
    78.3600       384
    78.3800       376
    78.4000       364
    78.4200       362
    78.4400       394
    78.4600       360
    78.4800       398
    78.5000       396
    78.5200       354
    78.5400       404
    78.5600       410
    78.5800       358
    78.6000       374
    78.6200       354
    78.6400       418
    78.6600       382
    78.6800       370
    78.7000       372
    78.7200       386
    78.7400       370
    78.7600       362
    78.7800       328
    78.8000       392
    78.8200       358
    78.8400       370
    78.8600       358
    78.8800       380
    78.9000       330
    78.9200       322
    78.9400       338
    78.9600       274
    78.9800       354
    79.0000       316
    79.0200       320
    79.0400       302
    79.0600       310
    79.0800       248
    79.1000       314
    79.1200       274
    79.1400       296
    79.1600       306
    79.1800       270
    79.2000       304
    79.2200       252
    79.2400       254
    79.2600       262
    79.2800       254
    79.3000       264
    79.3200       262
    79.3400       266
    79.3600       248
    79.3800       234
    79.4000       260
    79.4200       272
    79.4400       236
    79.4600       270
    79.4800       250
    79.5000       268
    79.5200       228
    79.5400       202
    79.5600       258
    79.5800       252
    79.6000       252
    79.6200       262
    79.6400       246
    79.6600       248
    79.6800       246
    79.7000       256
    79.7200       226
    79.7400       258
    79.7600       248
    79.7800       238
    79.8000       228
    79.8200       230
    79.8400       264
    79.8600       240
    79.8800       252
    79.9000       256
    79.9200       224
    79.9400       240
    79.9600       248
    79.9800       242
    80.0000       244
    80.0200       262
    80.0400       254
    80.0600       258
    80.0800       238
    80.1000       228
    80.1200       260
    80.1400       254
    80.1600       242
    80.1800       194
    80.2000       248
    80.2200       248
    80.2400       278
    80.2600       222
    80.2800       234
    80.3000       248
    80.3200       254
    80.3400       224
    80.3600       266
    80.3800       280
    80.4000       288
    80.4200       264
    80.4400       246
    80.4600       278
    80.4800       274
    80.5000       270
    80.5200       280
    80.5400       296
    80.5600       270
    80.5800       272
    80.6000       280
    80.6200       268
    80.6400       286
    80.6600       306
    80.6800       272
    80.7000       282
    80.7200       272
    80.7400       282
    80.7600       262
    80.7800       266
    80.8000       268
    80.8200       262
    80.8400       250
    80.8600       240
    80.8800       222
    80.9000       244
    80.9200       234
    80.9400       228
    80.9600       242
    80.9800       220
    81.0000       212
    81.0200       214
    81.0400       214
    81.0600       242
    81.0800       248
    81.1000       254
    81.1200       212
    81.1400       218
    81.1600       248
    81.1800       206
    81.2000       238
    81.2200       222
    81.2400       252
    81.2600       228
    81.2800       244
    81.3000       238
    81.3200       254
    81.3400       270
    81.3600       256
    81.3800       240
    81.4000       244
    81.4200       246
    81.4400       236
    81.4600       256
    81.4800       250
    81.5000       268
    81.5200       252
    81.5400       284
    81.5600       282
    81.5800       260
    81.6000       266
    81.6200       262
    81.6400       284
    81.6600       264
    81.6800       292
    81.7000       280
    81.7200       290
    81.7400       282
    81.7600       282
    81.7800       304
    81.8000       286
    81.8200       334
    81.8400       270
    81.8600       326
    81.8800       310
    81.9000       334
    81.9200       286
    81.9400       304
    81.9600       302
    81.9800       328
    82.0000       310
    82.0200       314
    82.0400       346
    82.0600       342
    82.0800       354
    82.1000       332
    82.1200       382
    82.1400       352
    82.1600       366
    82.1800       366
    82.2000       366
    82.2200       386
    82.2400       362
    82.2600       382
    82.2800       358
    82.3000       384
    82.3200       388
    82.3400       390
    82.3600       416
    82.3800       376
    82.4000       386
    82.4200       420
    82.4400       376
    82.4600       378
    82.4800       430
    82.5000       424
    82.5200       430
    82.5400       420
    82.5600       478
    82.5800       452
    82.6000       426
    82.6200       470
    82.6400       494
    82.6600       510
    82.6800       548
    82.7000       508
    82.7200       508
    82.7400       572
    82.7600       552
    82.7800       560
    82.8000       566
    82.8200       584
    82.8400       566
    82.8600       586
    82.8800       558
    82.9000       540
    82.9200       540
    82.9400       544
    82.9600       552
    82.9800       488
    83.0000       552
    83.0200       518
    83.0400       502
    83.0600       500
    83.0800       516
    83.1000       490
    83.1200       504
    83.1400       478
    83.1600       460
    83.1800       472
    83.2000       480
    83.2200       450
    83.2400       460
    83.2600       416
    83.2800       422
    83.3000       390
    83.3200       382
    83.3400       388
    83.3600       380
    83.3800       404
    83.4000       390
    83.4200       392
    83.4400       396
    83.4600       356
    83.4800       346
    83.5000       334
    83.5200       344
    83.5400       364
    83.5600       340
    83.5800       348
    83.6000       336
    83.6200       306
    83.6400       286
    83.6600       276
    83.6800       304
    83.7000       270
    83.7200       308
    83.7400       294
    83.7600       266
    83.7800       296
    83.8000       304
    83.8200       328
    83.8400       314
    83.8600       294
    83.8800       292
    83.9000       314
    83.9200       300
    83.9400       290
    83.9600       266
    83.9800       266
    84.0000       304
    84.0200       328
    84.0400       338
    84.0600       316
    84.0800       312
    84.1000       322
    84.1200       300
    84.1400       334
    84.1600       302
    84.1800       312
    84.2000       330
    84.2200       322
    84.2400       332
    84.2600       302
    84.2800       330
    84.3000       336
    84.3200       290
    84.3400       294
    84.3600       302
    84.3800       316
    84.4000       340
    84.4200       314
    84.4400       296
    84.4600       292
    84.4800       316
    84.5000       322
    84.5200       310
    84.5400       320
    84.5600       326
    84.5800       300
    84.6000       272
    84.6200       292
    84.6400       296
    84.6600       292
    84.6800       300
    84.7000       290
    84.7200       322
    84.7400       276
    84.7600       284
    84.7800       286
    84.8000       288
    84.8200       258
    84.8400       256
    84.8600       280
    84.8800       264
    84.9000       264
    84.9200       268
    84.9400       220
    84.9600       226
    84.9800       228
    85.0000       252
    85.0200       256
    85.0400       272
    85.0600       240
    85.0800       224
    85.1000       236
    85.1200       228
    85.1400       244
    85.1600       238
    85.1800       204
    85.2000       226
    85.2200       214
    85.2400       212
    85.2600       216
    85.2800       238
    85.3000       234
    85.3200       248
    85.3400       232
    85.3600       262
    85.3800       222
    85.4000       242
    85.4200       256
    85.4400       244
    85.4600       268
    85.4800       286
    85.5000       254
    85.5200       242
    85.5400       270
    85.5600       292
    85.5800       302
    85.6000       292
    85.6200       298
    85.6400       326
    85.6600       268
    85.6800       278
    85.7000       284
    85.7200       278
    85.7400       318
    85.7600       304
    85.7800       282
    85.8000       264
    85.8200       260
    85.8400       282
    85.8600       282
    85.8800       260
    85.9000       252
    85.9200       276
    85.9400       270
    85.9600       308
    85.9800       244
    86.0000       262
    86.0200       268
    86.0400       254
    86.0600       266
    86.0800       230
    86.1000       242
    86.1200       238
    86.1400       254
    86.1600       254
    86.1800       252
    86.2000       208
    86.2200       220
    86.2400       224
    86.2600       248
    86.2800       222
    86.3000       228
    86.3200       242
    86.3400       214
    86.3600       206
    86.3800       234
    86.4000       200
    86.4200       260
    86.4400       240
    86.4600       226
    86.4800       214
    86.5000       260
    86.5200       258
    86.5400       254
    86.5600       244
    86.5800       276
    86.6000       222
    86.6200       256
    86.6400       290
    86.6600       316
    86.6800       244
    86.7000       246
    86.7200       264
    86.7400       258
    86.7600       294
    86.7800       294
    86.8000       308
    86.8200       300
    86.8400       300
    86.8600       294
    86.8800       290
    86.9000       308
    86.9200       310
    86.9400       340
    86.9600       312
    86.9800       318
    87.0000       286
    87.0200       326
    87.0400       330
    87.0600       320
    87.0800       340
    87.1000       292
    87.1200       302
    87.1400       328
    87.1600       320
    87.1800       332
    87.2000       318
    87.2200       332
    87.2400       290
    87.2600       286
    87.2800       308
    87.3000       322
    87.3200       298
    87.3400       296
    87.3600       290
    87.3800       330
    87.4000       350
    87.4200       340
    87.4400       300
    87.4600       302
    87.4800       342
    87.5000       298
    87.5200       356
    87.5400       310
    87.5600       320
    87.5800       316
    87.6000       306
    87.6200       316
    87.6400       322
    87.6600       284
    87.6800       314
    87.7000       322
    87.7200       340
    87.7400       288
    87.7600       284
    87.7800       324
    87.8000       338
    87.8200       296
    87.8400       344
    87.8600       306
    87.8800       322
    87.9000       342
    87.9200       334
    87.9400       366
    87.9600       298
    87.9800       366
    88.0000       370
    88.0200       354
    88.0400       362
    88.0600       352
    88.0800       346
    88.1000       378
    88.1200       354
    88.1400       384
    88.1600       398
    88.1800       356
    88.2000       390
    88.2200       386
    88.2400       416
    88.2600       422
    88.2800       384
    88.3000       390
    88.3200       388
    88.3400       392
    88.3600       402
    88.3800       402
    88.4000       374
    88.4200       380
    88.4400       384
    88.4600       392
    88.4800       382
    88.5000       366
    88.5200       330
    88.5400       386
    88.5600       394
    88.5800       380
    88.6000       368
    88.6200       400
    88.6400       342
    88.6600       344
    88.6800       354
    88.7000       352
    88.7200       346
    88.7400       298
    88.7600       342
    88.7800       314
    88.8000       338
    88.8200       292
    88.8400       294
    88.8600       300
    88.8800       286
    88.9000       310
    88.9200       310
    88.9400       268
    88.9600       276
    88.9800       254
    89.0000       274
    89.0200       298
    89.0400       254
    89.0600       260
    89.0800       264
    89.1000       248
    89.1200       198
    89.1400       244
    89.1600       218
    89.1800       250
    89.2000       252
    89.2200       236
    89.2400       236
    89.2600       232
    89.2800       244
    89.3000       224
    89.3200       216
    89.3400       240
    89.3600       222
    89.3800       232
    89.4000       212
    89.4200       216
    89.4400       232
    89.4600       272
    89.4800       214
    89.5000       248
    89.5200       264
    89.5400       242
    89.5600       292
    89.5800       268
    89.6000       274
    89.6200       220
    89.6400       278
    89.6600       276
    89.6800       288
    89.7000       290
    89.7200       268
    89.7400       270
    89.7600       260
    89.7800       266
    89.8000       292
    89.8200       278
    89.8400       262
    89.8600       264
    89.8800       284
    89.9000       294
    89.9200       274
    89.9400       286
    89.9600       292
    89.9800       280
    90.0000       284
