    10.0000       368
    10.0200       380
    10.0400       368
    10.0600       372
    10.0800       388
    10.1000       424
    10.1200       430
    10.1400       368
    10.1600       386
    10.1800       376
    10.2000       362
    10.2200       374
    10.2400       372
    10.2600       336
    10.2800       332
    10.3000       376
    10.3200       340
    10.3400       356
    10.3600       330
    10.3800       316
    10.4000       354
    10.4200       368
    10.4400       358
    10.4600       344
    10.4800       310
    10.5000       348
    10.5200       338
    10.5400       340
    10.5600       316
    10.5800       346
    10.6000       336
    10.6200       322
    10.6400       324
    10.6600       324
    10.6800       334
    10.7000       348
    10.7200       310
    10.7400       348
    10.7600       358
    10.7800       382
    10.8000       332
    10.8200       312
    10.8400       340
    10.8600       328
    10.8800       370
    10.9000       318
    10.9200       342
    10.9400       332
    10.9600       330
    10.9800       342
    11.0000       304
    11.0200       304
    11.0400       320
    11.0600       334
    11.0800       376
    11.1000       346
    11.1200       336
    11.1400       342
    11.1600       314
    11.1800       330
    11.2000       344
    11.2200       302
    11.2400       318
    11.2600       336
    11.2800       304
    11.3000       334
    11.3200       328
    11.3400       314
    11.3600       274
    11.3800       336
    11.4000       322
    11.4200       322
    11.4400       328
    11.4600       328
    11.4800       316
    11.5000       312
    11.5200       318
    11.5400       316
    11.5600       304
    11.5800       340
    11.6000       298
    11.6200       296
    11.6400       338
    11.6600       298
    11.6800       318
    11.7000       318
    11.7200       308
    11.7400       324
    11.7600       310
    11.7800       270
    11.8000       304
    11.8200       310
    11.8400       286
    11.8600       308
    11.8800       288
    11.9000       286
    11.9200       328
    11.9400       302
    11.9600       304
    11.9800       344
    12.0000       302
    12.0200       296
    12.0400       312
    12.0600       318
    12.0800       310
    12.1000       288
    12.1200       308
    12.1400       298
    12.1600       278
    12.1800       292
    12.2000       328
    12.2200       302
    12.2400       334
    12.2600       304
    12.2800       286
    12.3000       328
    12.3200       296
    12.3400       302
    12.3600       308
    12.3800       304
    12.4000       292
    12.4200       300
    12.4400       316
    12.4600       310
    12.4800       288
    12.5000       266
    12.5200       284
    12.5400       294
    12.5600       262
    12.5800       260
    12.6000       250
    12.6200       262
    12.6400       278
    12.6600       288
    12.6800       284
    12.7000       284
    12.7200       330
    12.7400       252
    12.7600       262
    12.7800       284
    12.8000       278
    12.8200       290
    12.8400       270
    12.8600       334
    12.8800       282
    12.9000       268
    12.9200       314
    12.9400       296
    12.9600       260
    12.9800       296
    13.0000       266
    13.0200       260
    13.0400       268
    13.0600       252
    13.0800       294
    13.1000       272
    13.1200       272
    13.1400       278
    13.1600       274
    13.1800       250
    13.2000       284
    13.2200       262
    13.2400       248
    13.2600       262
    13.2800       242
    13.3000       266
    13.3200       256
    13.3400       250
    13.3600       234
    13.3800       246
    13.4000       260
    13.4200       282
    13.4400       266
    13.4600       288
    13.4800       242
    13.5000       256
    13.5200       262
    13.5400       238
    13.5600       274
    13.5800       248
    13.6000       256
    13.6200       274
    13.6400       260
    13.6600       226
    13.6800       278
    13.7000       230
    13.7200       268
    13.7400       262
    13.7600       256
    13.7800       256
    13.8000       282
    13.8200       260
    13.8400       260
    13.8600       236
    13.8800       224
    13.9000       242
    13.9200       236
    13.9400       224
    13.9600       242
    13.9800       234
    14.0000       236
    14.0200       246
    14.0400       240
    14.0600       236
    14.0800       252
    14.1000       190
    14.1200       252
    14.1400       242
    14.1600       226
    14.1800       238
    14.2000       234
    14.2200       232
    14.2400       254
    14.2600       230
    14.2800       226
    14.3000       254
    14.3200       238
    14.3400       242
    14.3600       256
    14.3800       232
    14.4000       248
    14.4200       246
    14.4400       236
    14.4600       202
    14.4800       228
    14.5000       226
    14.5200       214
    14.5400       254
    14.5600       232
    14.5800       256
    14.6000       252
    14.6200       246
    14.6400       266
    14.6600       222
    14.6800       248
    14.7000       232
    14.7200       198
    14.7400       224
    14.7600       222
    14.7800       254
    14.8000       238
    14.8200       218
    14.8400       258
    14.8600       220
    14.8800       250
    14.9000       228
    14.9200       232
    14.9400       230
    14.9600       242
    14.9800       250
    15.0000       238
    15.0200       264
    15.0400       234
    15.0600       246
    15.0800       258
    15.1000       238
    15.1200       230
    15.1400       274
    15.1600       266
    15.1800       236
    15.2000       262
    15.2200       238
    15.2400       276
    15.2600       236
    15.2800       240
    15.3000       220
    15.3200       212
    15.3400       240
    15.3600       232
    15.3800       214
    15.4000       234
    15.4200       218
    15.4400       232
    15.4600       232
    15.4800       214
    15.5000       208
    15.5200       224
    15.5400       250
    15.5600       204
    15.5800       214
    15.6000       212
    15.6200       214
    15.6400       214
    15.6600       206
    15.6800       200
    15.7000       232
    15.7200       224
    15.7400       224
    15.7600       218
    15.7800       214
    15.8000       236
    15.8200       248
    15.8400       198
    15.8600       236
    15.8800       202
    15.9000       224
    15.9200       222
    15.9400       184
    15.9600       242
    15.9800       218
    16.0000       210
    16.0200       206
    16.0400       214
    16.0600       220
    16.0800       228
    16.1000       208
    16.1200       222
    16.1400       186
    16.1600       230
    16.1800       228
    16.2000       212
    16.2200       210
    16.2400       214
    16.2600       248
    16.2800       214
    16.3000       228
    16.3200       200
    16.3400       230
    16.3600       244
    16.3800       226
    16.4000       198
    16.4200       248
    16.4400       208
    16.4600       194
    16.4800       202
    16.5000       204
    16.5200       188
    16.5400       224
    16.5600       200
    16.5800       204
    16.6000       228
    16.6200       216
    16.6400       178
    16.6600       232
    16.6800       200
    16.7000       188
    16.7200       200
    16.7400       212
    16.7600       192
    16.7800       216
    16.8000       234
    16.8200       228
    16.8400       194
    16.8600       214
    16.8800       212
    16.9000       240
    16.9200       214
    16.9400       202
    16.9600       242
    16.9800       222
    17.0000       226
    17.0200       246
    17.0400       254
    17.0600       238
    17.0800       220
    17.1000       276
    17.1200       266
    17.1400       240
    17.1600       252
    17.1800       260
    17.2000       242
    17.2200       256
    17.2400       260
    17.2600       234
    17.2800       248
    17.3000       254
    17.3200       270
    17.3400       278
    17.3600       232
    17.3800       232
    17.4000       258
    17.4200       244
    17.4400       272
    17.4600       266
    17.4800       244
    17.5000       256
    17.5200       228
    17.5400       230
    17.5600       228
    17.5800       206
    17.6000       212
    17.6200       234
    17.6400       226
    17.6600       214
    17.6800       216
    17.7000       234
    17.7200       216
    17.7400       234
    17.7600       216
    17.7800       234
    17.8000       208
    17.8200       216
    17.8400       208
    17.8600       220
    17.8800       224
    17.9000       192
    17.9200       194
    17.9400       196
    17.9600       208
    17.9800       190
    18.0000       200
    18.0200       228
    18.0400       206
    18.0600       202
    18.0800       232
    18.1000       204
    18.1200       212
    18.1400       194
    18.1600       216
    18.1800       210
    18.2000       240
    18.2200       214
    18.2400       218
    18.2600       226
    18.2800       218
    18.3000       184
    18.3200       206
    18.3400       214
    18.3600       222
    18.3800       228
    18.4000       196
    18.4200       234
    18.4400       238
    18.4600       188
    18.4800       230
    18.5000       250
    18.5200       238
    18.5400       240
    18.5600       232
    18.5800       254
    18.6000       256
    18.6200       276
    18.6400       270
    18.6600       274
    18.6800       314
    18.7000       290
    18.7200       300
    18.7400       308
    18.7600       368
    18.7800       390
    18.8000       420
    18.8200       410
    18.8400       482
    18.8600       526
    18.8800       582
    18.9000       546
    18.9200       628
    18.9400       610
    18.9600       576
    18.9800       580
    19.0000       590
    19.0200       496
    19.0400       510
    19.0600       496
    19.0800       482
    19.1000       428
    19.1200       412
    19.1400       452
    19.1600       498
    19.1800       530
    19.2000       564
    19.2200       580
    19.2400       640
    19.2600       646
    19.2800       738
    19.3000       780
    19.3200       868
    19.3400       926
    19.3600      1128
    19.3800      1292
    19.4000      1416
    19.4200      1616
    19.4400      1832
    19.4600      2194
    19.4800      2504
    19.5000      3004
    19.5200      3192
    19.5400      3410
    19.5600      3400
    19.5800      3258
    19.6000      2838
    19.6200      2464
    19.6400      1916
    19.6600      1704
    19.6800      1352
    19.7000      1234
    19.7200      1068
    19.7400      1112
    19.7600      1096
    19.7800      1146
    19.8000      1262
    19.8200      1320
    19.8400      1400
    19.8600      1624
    19.8800      1892
    19.9000      2128
    19.9200      2270
    19.9400      2476
    19.9600      2684
    19.9800      2774
    20.0000      2704
    20.0200      2544
    20.0400      2188
    20.0600      1838
    20.0800      1588
    20.1000      1200
    20.1200      1062
    20.1400       866
    20.1600       722
    20.1800       646
    20.2000       624
    20.2200       550
    20.2400       520
    20.2600       514
    20.2800       528
    20.3000       514
    20.3200       494
    20.3400       470
    20.3600       470
    20.3800       408
    20.4000       458
    20.4200       428
    20.4400       366
    20.4600       376
    20.4800       358
    20.5000       338
    20.5200       304
    20.5400       292
    20.5600       304
    20.5800       250
    20.6000       280
    20.6200       274
    20.6400       262
    20.6600       264
    20.6800       260
    20.7000       242
    20.7200       256
    20.7400       234
    20.7600       248
    20.7800       262
    20.8000       226
    20.8200       266
    20.8400       228
    20.8600       248
    20.8800       234
    20.9000       252
    20.9200       252
    20.9400       262
    20.9600       264
    20.9800       246
    21.0000       240
    21.0200       272
    21.0400       256
    21.0600       272
    21.0800       288
    21.1000       282
    21.1200       276
    21.1400       272
    21.1600       292
    21.1800       258
    21.2000       276
    21.2200       328
    21.2400       314
    21.2600       306
    21.2800       304
    21.3000       282
    21.3200       240
    21.3400       242
    21.3600       246
    21.3800       256
    21.4000       222
    21.4200       224
    21.4400       182
    21.4600       236
    21.4800       222
    21.5000       214
    21.5200       242
    21.5400       222
    21.5600       256
    21.5800       238
    21.6000       216
    21.6200       214
    21.6400       230
    21.6600       226
    21.6800       216
    21.7000       212
    21.7200       236
    21.7400       234
    21.7600       224
    21.7800       258
    21.8000       228
    21.8200       222
    21.8400       282
    21.8600       276
    21.8800       296
    21.9000       266
    21.9200       292
    21.9400       278
    21.9600       254
    21.9800       282
    22.0000       246
    22.0200       240
    22.0400       274
    22.0600       242
    22.0800       270
    22.1000       226
    22.1200       232
    22.1400       252
    22.1600       240
    22.1800       248
    22.2000       254
    22.2200       240
    22.2400       252
    22.2600       258
    22.2800       266
    22.3000       324
    22.3200       262
    22.3400       300
    22.3600       314
    22.3800       334
    22.4000       356
    22.4200       374
    22.4400       398
    22.4600       418
    22.4800       456
    22.5000       486
    22.5200       544
    22.5400       552
    22.5600       712
    22.5800       774
    22.6000       846
    22.6200       998
    22.6400      1128
    22.6600      1284
    22.6800      1530
    22.7000      1728
    22.7200      2030
    22.7400      2368
    22.7600      2688
    22.7800      3228
    22.8000      3718
    22.8200      4076
    22.8400      4542
    22.8600      4712
    22.8800      4466
    22.9000      4284
    22.9200      3956
    22.9400      3340
    22.9600      2736
    22.9800      2230
    23.0000      1820
    23.0200      1544
    23.0400      1380
    23.0600      1264
    23.0800      1098
    23.1000      1036
    23.1200       924
    23.1400       890
    23.1600       850
    23.1800       776
    23.2000       744
    23.2200       710
    23.2400       698
    23.2600       624
    23.2800       612
    23.3000       554
    23.3200       558
    23.3400       534
    23.3600       456
    23.3800       462
    23.4000       452
    23.4200       424
    23.4400       370
    23.4600       300
    23.4800       316
    23.5000       348
    23.5200       358
    23.5400       318
    23.5600       308
    23.5800       312
    23.6000       326
    23.6200       298
    23.6400       284
    23.6600       298
    23.6800       284
    23.7000       320
    23.7200       286
    23.7400       312
    23.7600       316
    23.7800       314
    23.8000       332
    23.8200       320
    23.8400       292
    23.8600       276
    23.8800       334
    23.9000       318
    23.9200       334
    23.9400       352
    23.9600       350
    23.9800       368
    24.0000       440
    24.0200       388
    24.0400       376
    24.0600       384
    24.0800       400
    24.1000       408
    24.1200       380
    24.1400       400
    24.1600       438
    24.1800       416
    24.2000       428
    24.2200       410
    24.2400       428
    24.2600       464
    24.2800       482
    24.3000       520
    24.3200       540
    24.3400       592
    24.3600       560
    24.3800       626
    24.4000       610
    24.4200       640
    24.4400       686
    24.4600       658
    24.4800       658
    24.5000       634
    24.5200       568
    24.5400       544
    24.5600       510
    24.5800       436
    24.6000       410
    24.6200       384
    24.6400       362
    24.6600       338
    24.6800       312
    24.7000       288
    24.7200       288
    24.7400       268
    24.7600       262
    24.7800       260
    24.8000       256
    24.8200       242
    24.8400       252
    24.8600       246
    24.8800       246
    24.9000       244
    24.9200       246
    24.9400       246
    24.9600       248
    24.9800       254
    25.0000       226
    25.0200       218
    25.0400       256
    25.0600       232
    25.0800       234
    25.1000       256
    25.1200       232
    25.1400       252
    25.1600       212
    25.1800       262
    25.2000       268
    25.2200       292
    25.2400       298
    25.2600       290
    25.2800       314
    25.3000       326
    25.3200       340
    25.3400       336
    25.3600       406
    25.3800       402
    25.4000       440
    25.4200       444
    25.4400       548
    25.4600       586
    25.4800       638
    25.5000       742
    25.5200       796
    25.5400       924
    25.5600      1014
    25.5800      1076
    25.6000      1080
    25.6200       944
    25.6400      1092
    25.6600       920
    25.6800       810
    25.7000       728
    25.7200       628
    25.7400       528
    25.7600       442
    25.7800       430
    25.8000       382
    25.8200       376
    25.8400       326
    25.8600       336
    25.8800       308
    25.9000       302
    25.9200       280
    25.9400       302
    25.9600       288
    25.9800       286
    26.0000       290
    26.0200       310
    26.0400       304
    26.0600       272
    26.0800       290
    26.1000       342
    26.1200       346
    26.1400       356
    26.1600       362
    26.1800       394
    26.2000       422
    26.2200       424
    26.2400       450
    26.2600       488
    26.2800       474
    26.3000       586
    26.3200       546
    26.3400       560
    26.3600       562
    26.3800       658
    26.4000       678
    26.4200       670
    26.4400       652
    26.4600       656
    26.4800       664
    26.5000       688
    26.5200       674
    26.5400       664
    26.5600       680
    26.5800       710
    26.6000       716
    26.6200       640
    26.6400       700
    26.6600       662
    26.6800       674
    26.7000       634
    26.7200       600
    26.7400       618
    26.7600       574
    26.7800       542
    26.8000       518
    26.8200       446
    26.8400       448
    26.8600       380
    26.8800       414
    26.9000       396
    26.9200       372
    26.9400       368
    26.9600       384
    26.9800       364
    27.0000       350
    27.0200       360
    27.0400       342
    27.0600       344
    27.0800       354
    27.1000       330
    27.1200       338
    27.1400       316
    27.1600       318
    27.1800       358
    27.2000       344
    27.2200       332
    27.2400       280
    27.2600       278
    27.2800       276
    27.3000       290
    27.3200       266
    27.3400       276
    27.3600       284
    27.3800       260
    27.4000       268
    27.4200       248
    27.4400       276
    27.4600       286
    27.4800       262
    27.5000       266
    27.5200       290
    27.5400       270
    27.5600       268
    27.5800       272
    27.6000       288
    27.6200       266
    27.6400       272
    27.6600       282
    27.6800       246
    27.7000       236
    27.7200       240
    27.7400       272
    27.7600       260
    27.7800       278
    27.8000       310
    27.8200       300
    27.8400       326
    27.8600       334
    27.8800       394
    27.9000       400
    27.9200       430
    27.9400       438
    27.9600       528
    27.9800       538
    28.0000       594
    28.0200       632
    28.0400       724
    28.0600       768
    28.0800       892
    28.1000      1012
    28.1200      1234
    28.1400      1320
    28.1600      1568
    28.1800      1820
    28.2000      2090
    28.2200      2498
    28.2400      2740
    28.2600      2778
    28.2800      2934
    28.3000      2836
    28.3200      2466
    28.3400      2310
    28.3600      1980
    28.3800      1620
    28.4000      1290
    28.4200      1126
    28.4400       898
    28.4600       774
    28.4800       648
    28.5000       554
    28.5200       508
    28.5400       460
    28.5600       414
    28.5800       376
    28.6000       370
    28.6200       310
    28.6400       316
    28.6600       280
    28.6800       264
    28.7000       242
    28.7200       228
    28.7400       250
    28.7600       218
    28.7800       252
    28.8000       238
    28.8200       246
    28.8400       220
    28.8600       248
    28.8800       244
    28.9000       204
    28.9200       206
    28.9400       232
    28.9600       224
    28.9800       200
    29.0000       232
    29.0200       214
    29.0400       224
    29.0600       214
    29.0800       220
    29.1000       200
    29.1200       212
    29.1400       206
    29.1600       232
    29.1800       194
    29.2000       226
    29.2200       218
    29.2400       234
    29.2600       194
    29.2800       218
    29.3000       204
    29.3200       236
    29.3400       238
    29.3600       228
    29.3800       232
    29.4000       222
    29.4200       214
    29.4400       238
    29.4600       256
    29.4800       246
    29.5000       228
    29.5200       258
    29.5400       246
    29.5600       254
    29.5800       226
    29.6000       262
    29.6200       270
    29.6400       238
    29.6600       228
    29.6800       252
    29.7000       226
    29.7200       228
    29.7400       246
    29.7600       270
    29.7800       224
    29.8000       230
    29.8200       260
    29.8400       244
    29.8600       218
    29.8800       250
    29.9000       234
    29.9200       228
    29.9400       234
    29.9600       240
    29.9800       246
    30.0000       266
    30.0200       266
    30.0400       252
    30.0600       256
    30.0800       314
    30.1000       288
    30.1200       266
    30.1400       310
    30.1600       338
    30.1800       364
    30.2000       398
    30.2200       362
    30.2400       384
    30.2600       416
    30.2800       424
    30.3000       414
    30.3200       368
    30.3400       414
    30.3600       400
    30.3800       420
    30.4000       376
    30.4200       386
    30.4400       356
    30.4600       396
    30.4800       362
    30.5000       398
    30.5200       380
    30.5400       374
    30.5600       430
    30.5800       370
    30.6000       388
    30.6200       416
    30.6400       426
    30.6600       430
    30.6800       442
    30.7000       452
    30.7200       420
    30.7400       496
    30.7600       512
    30.7800       532
    30.8000       542
    30.8200       534
    30.8400       528
    30.8600       622
    30.8800       624
    30.9000       716
    30.9200       766
    30.9400       786
    30.9600       874
    30.9800       886
    31.0000      1030
    31.0200      1076
    31.0400      1344
    31.0600      1414
    31.0800      1468
    31.1000      1534
    31.1200      1770
    31.1400      1816
    31.1600      1920
    31.1800      1958
    31.2000      1970
    31.2200      1984
    31.2400      1790
    31.2600      1798
    31.2800      1686
    31.3000      1434
    31.3200      1348
    31.3400      1258
    31.3600      1134
    31.3800      1018
    31.4000       922
    31.4200       838
    31.4400       856
    31.4600       768
    31.4800       672
    31.5000       632
    31.5200       674
    31.5400       624
    31.5600       596
    31.5800       660
    31.6000       670
    31.6200       628
    31.6400       688
    31.6600       696
    31.6800       712
    31.7000       774
    31.7200       808
    31.7400       898
    31.7600       908
    31.7800       994
    31.8000      1076
    31.8200      1094
    31.8400      1240
    31.8600      1394
    31.8800      1502
    31.9000      1670
    31.9200      1954
    31.9400      2100
    31.9600      2338
    31.9800      2538
    32.0000      2608
    32.0200      2634
    32.0400      2616
    32.0600      2384
    32.0800      2378
    32.1000      2110
    32.1200      2016
    32.1400      1912
    32.1600      1714
    32.1800      1606
    32.2000      1554
    32.2200      1570
    32.2400      1596
    32.2600      1686
    32.2800      1858
    32.3000      1988
    32.3200      2090
    32.3400      2356
    32.3600      2714
    32.3800      3116
    32.4000      3400
    32.4200      4080
    32.4400      4762
    32.4600      5374
    32.4800      6148
    32.5000      6808
    32.5200      7386
    32.5400      7760
    32.5600      7862
    32.5800      7658
    32.6000      7468
    32.6200      6862
    32.6400      6302
    32.6600      5592
    32.6800      4706
    32.7000      4134
    32.7200      3460
    32.7400      2884
    32.7600      2458
    32.7800      2178
    32.8000      1898
    32.8200      1658
    32.8400      1530
    32.8600      1458
    32.8800      1388
    32.9000      1392
    32.9200      1340
    32.9400      1316
    32.9600      1328
    32.9800      1400
    33.0000      1496
    33.0200      1566
    33.0400      1658
    33.0600      1684
    33.0800      1692
    33.1000      1726
    33.1200      1678
    33.1400      1550
    33.1600      1450
    33.1800      1228
    33.2000      1116
    33.2200      1028
    33.2400       886
    33.2600       778
    33.2800       668
    33.3000       592
    33.3200       516
    33.3400       540
    33.3600       482
    33.3800       390
    33.4000       422
    33.4200       360
    33.4400       336
    33.4600       352
    33.4800       342
    33.5000       308
    33.5200       292
    33.5400       290
    33.5600       298
    33.5800       292
    33.6000       280
    33.6200       288
    33.6400       270
    33.6600       242
    33.6800       244
    33.7000       242
    33.7200       208
    33.7400       234
    33.7600       246
    33.7800       212
    33.8000       234
    33.8200       236
    33.8400       250
    33.8600       256
    33.8800       220
    33.9000       220
    33.9200       224
    33.9400       236
    33.9600       226
    33.9800       228
    34.0000       196
    34.0200       236
    34.0400       250
    34.0600       260
    34.0800       218
    34.1000       258
    34.1200       236
    34.1400       236
    34.1600       240
    34.1800       226
    34.2000       208
    34.2200       226
    34.2400       222
    34.2600       220
    34.2800       210
    34.3000       238
    34.3200       210
    34.3400       212
    34.3600       234
    34.3800       204
    34.4000       210
    34.4200       220
    34.4400       204
    34.4600       206
    34.4800       220
    34.5000       214
    34.5200       196
    34.5400       232
    34.5600       246
    34.5800       246
    34.6000       234
    34.6200       212
    34.6400       208
    34.6600       220
    34.6800       224
    34.7000       232
    34.7200       240
    34.7400       232
    34.7600       234
    34.7800       238
    34.8000       202
    34.8200       212
    34.8400       248
    34.8600       214
    34.8800       244
    34.9000       228
    34.9200       230
    34.9400       224
    34.9600       180
    34.9800       184
    35.0000       270
    35.0200       254
    35.0400       250
    35.0600       248
    35.0800       220
    35.1000       248
    35.1200       246
    35.1400       240
    35.1600       212
    35.1800       228
    35.2000       238
    35.2200       230
    35.2400       226
    35.2600       214
    35.2800       230
    35.3000       256
    35.3200       250
    35.3400       234
    35.3600       238
    35.3800       240
    35.4000       268
    35.4200       242
    35.4400       224
    35.4600       248
    35.4800       258
    35.5000       254
    35.5200       242
    35.5400       246
    35.5600       244
    35.5800       262
    35.6000       242
    35.6200       296
    35.6400       262
    35.6600       274
    35.6800       288
    35.7000       264
    35.7200       286
    35.7400       300
    35.7600       286
    35.7800       320
    35.8000       314
    35.8200       328
    35.8400       334
    35.8600       344
    35.8800       330
    35.9000       338
    35.9200       390
    35.9400       370
    35.9600       362
    35.9800       392
    36.0000       478
    36.0200       454
    36.0400       556
    36.0600       540
    36.0800       556
    36.1000       618
    36.1200       672
    36.1400       668
    36.1600       704
    36.1800       666
    36.2000       668
    36.2200       638
    36.2400       622
    36.2600       588
    36.2800       546
    36.3000       512
    36.3200       480
    36.3400       450
    36.3600       412
    36.3800       436
    36.4000       372
    36.4200       416
    36.4400       386
    36.4600       398
    36.4800       382
    36.5000       466
    36.5200       426
    36.5400       464
    36.5600       460
    36.5800       510
    36.6000       524
    36.6200       514
    36.6400       618
    36.6600       716
    36.6800       726
    36.7000       848
    36.7200       894
    36.7400       994
    36.7600      1124
    36.7800      1336
    36.8000      1490
    36.8200      1546
    36.8400      1742
    36.8600      1838
    36.8800      1922
    36.9000      1980
    36.9200      1878
    36.9400      1890
    36.9600      1694
    36.9800      1568
    37.0000      1398
    37.0200      1316
    37.0400      1180
    37.0600      1168
    37.0800       920
    37.1000       850
    37.1200       780
    37.1400       676
    37.1600       688
    37.1800       602
    37.2000       592
    37.2200       588
    37.2400       558
    37.2600       572
    37.2800       508
    37.3000       502
    37.3200       516
    37.3400       518
    37.3600       534
    37.3800       488
    37.4000       494
    37.4200       468
    37.4400       508
    37.4600       482
    37.4800       514
    37.5000       520
    37.5200       546
    37.5400       502
    37.5600       498
    37.5800       548
    37.6000       558
    37.6200       542
    37.6400       574
    37.6600       594
    37.6800       604
    37.7000       584
    37.7200       678
    37.7400       732
    37.7600       746
    37.7800       800
    37.8000       866
    37.8200       910
    37.8400      1002
    37.8600      1064
    37.8800      1168
    37.9000      1330
    37.9200      1472
    37.9400      1564
    37.9600      1764
    37.9800      1968
    38.0000      2134
    38.0200      2224
    38.0400      2242
    38.0600      2310
    38.0800      2216
    38.1000      2138
    38.1200      2106
    38.1400      1994
    38.1600      2052
    38.1800      1998
    38.2000      2016
    38.2200      1978
    38.2400      1948
    38.2600      2018
    38.2800      2196
    38.3000      2478
    38.3200      2562
    38.3400      2880
    38.3600      3108
    38.3800      3526
    38.4000      3786
    38.4200      4218
    38.4400      4500
    38.4600      4674
    38.4800      4934
    38.5000      5084
    38.5200      4954
    38.5400      4808
    38.5600      4658
    38.5800      4706
    38.6000      4550
    38.6200      4252
    38.6400      4152
    38.6600      4160
    38.6800      3946
    38.7000      3982
    38.7200      3728
    38.7400      3676
    38.7600      3506
    38.7800      3214
    38.8000      2946
    38.8200      2798
    38.8400      2576
    38.8600      2248
    38.8800      1972
    38.9000      1928
    38.9200      1612
    38.9400      1382
    38.9600      1282
    38.9800      1176
    39.0000      1072
    39.0200      1002
    39.0400       930
    39.0600       918
    39.0800       838
    39.1000       816
    39.1200       768
    39.1400       746
    39.1600       694
    39.1800       662
    39.2000       680
    39.2200       664
    39.2400       666
    39.2600       650
    39.2800       672
    39.3000       636
    39.3200       680
    39.3400       668
    39.3600       652
    39.3800       698
    39.4000       720
    39.4200       696
    39.4400       724
    39.4600       796
    39.4800       822
    39.5000       914
    39.5200      1026
    39.5400      1156
    39.5600      1240
    39.5800      1382
    39.6000      1512
    39.6200      1730
    39.6400      1932
    39.6600      1990
    39.6800      2154
    39.7000      2182
    39.7200      2314
    39.7400      2234
    39.7600      2092
    39.7800      1964
    39.8000      1768
    39.8200      1662
    39.8400      1508
    39.8600      1336
    39.8800      1192
    39.9000      1070
    39.9200       910
    39.9400       776
    39.9600       798
    39.9800       740
    40.0000       614
    40.0200       590
    40.0400       582
    40.0600       630
    40.0800       564
    40.1000       560
    40.1200       550
    40.1400       544
    40.1600       532
    40.1800       564
    40.2000       514
    40.2200       602
    40.2400       510
    40.2600       548
    40.2800       546
    40.3000       604
    40.3200       624
    40.3400       638
    40.3600       616
    40.3800       710
    40.4000       730
    40.4200       850
    40.4400       960
    40.4600      1036
    40.4800      1050
    40.5000      1086
    40.5200      1170
    40.5400      1318
    40.5600      1290
    40.5800      1322
    40.6000      1328
    40.6200      1326
    40.6400      1394
    40.6600      1258
    40.6800      1212
    40.7000      1162
    40.7200      1114
    40.7400      1052
    40.7600       984
    40.7800       836
    40.8000       820
    40.8200       700
    40.8400       682
    40.8600       620
    40.8800       592
    40.9000       550
    40.9200       540
    40.9400       554
    40.9600       520
    40.9800       498
    41.0000       482
    41.0200       476
    41.0400       446
    41.0600       450
    41.0800       454
    41.1000       434
    41.1200       436
    41.1400       442
    41.1600       496
    41.1800       458
    41.2000       458
    41.2200       462
    41.2400       478
    41.2600       454
    41.2800       456
    41.3000       466
    41.3200       490
    41.3400       450
    41.3600       448
    41.3800       512
    41.4000       450
    41.4200       536
    41.4400       450
    41.4600       490
    41.4800       504
    41.5000       518
    41.5200       550
    41.5400       588
    41.5600       560
    41.5800       598
    41.6000       614
    41.6200       652
    41.6400       658
    41.6600       716
    41.6800       774
    41.7000       804
    41.7200       878
    41.7400       990
    41.7600      1076
    41.7800      1252
    41.8000      1252
    41.8200      1444
    41.8400      1584
    41.8600      1646
    41.8800      1642
    41.9000      1824
    41.9200      1698
    41.9400      1716
    41.9600      1662
    41.9800      1516
    42.0000      1498
    42.0200      1350
    42.0400      1180
    42.0600      1178
    42.0800      1070
    42.1000       932
    42.1200       890
    42.1400       818
    42.1600       772
    42.1800       688
    42.2000       630
    42.2200       654
    42.2400       556
    42.2600       602
    42.2800       500
    42.3000       494
    42.3200       498
    42.3400       496
    42.3600       468
    42.3800       446
    42.4000       446
    42.4200       446
    42.4400       394
    42.4600       462
    42.4800       436
    42.5000       418
    42.5200       414
    42.5400       430
    42.5600       392
    42.5800       418
    42.6000       392
    42.6200       398
    42.6400       428
    42.6600       400
    42.6800       416
    42.7000       386
    42.7200       418
    42.7400       460
    42.7600       444
    42.7800       454
    42.8000       468
    42.8200       454
    42.8400       466
    42.8600       506
    42.8800       570
    42.9000       614
    42.9200       650
    42.9400       616
    42.9600       684
    42.9800       716
    43.0000       744
    43.0200       832
    43.0400       960
    43.0600      1042
    43.0800      1154
    43.1000      1258
    43.1200      1400
    43.1400      1472
    43.1600      1626
    43.1800      1626
    43.2000      1748
    43.2200      1680
    43.2400      1660
    43.2600      1716
    43.2800      1568
    43.3000      1530
    43.3200      1372
    43.3400      1312
    43.3600      1140
    43.3800      1038
    43.4000      1050
    43.4200       882
    43.4400       818
    43.4600       740
    43.4800       738
    43.5000       686
    43.5200       646
    43.5400       590
    43.5600       550
    43.5800       566
    43.6000       570
    43.6200       576
    43.6400       584
    43.6600       618
    43.6800       588
    43.7000       654
    43.7200       668
    43.7400       670
    43.7600       676
    43.7800       734
    43.8000       740
    43.8200       716
    43.8400       808
    43.8600       766
    43.8800       740
    43.9000       802
    43.9200       742
    43.9400       714
    43.9600       656
    43.9800       622
    44.0000       636
    44.0200       610
    44.0400       614
    44.0600       630
    44.0800       552
    44.1000       576
    44.1200       576
    44.1400       558
    44.1600       566
    44.1800       588
    44.2000       574
    44.2200       600
    44.2400       630
    44.2600       614
    44.2800       656
    44.3000       662
    44.3200       724
    44.3400       758
    44.3600       786
    44.3800       802
    44.4000       812
    44.4200       882
    44.4400       910
    44.4600       934
    44.4800      1004
    44.5000      1094
    44.5200      1208
    44.5400      1214
    44.5600      1320
    44.5800      1328
    44.6000      1444
    44.6200      1568
    44.6400      1480
    44.6600      1634
    44.6800      1732
    44.7000      1636
    44.7200      1664
    44.7400      1680
    44.7600      1572
    44.7800      1556
    44.8000      1524
    44.8200      1480
    44.8400      1392
    44.8600      1298
    44.8800      1268
    44.9000      1148
    44.9200      1116
    44.9400      1024
    44.9600      1006
    44.9800       908
    45.0000       850
    45.0200       786
    45.0400       732
    45.0600       754
    45.0800       708
    45.1000       686
    45.1200       684
    45.1400       608
    45.1600       618
    45.1800       614
    45.2000       562
    45.2200       528
    45.2400       580
    45.2600       566
    45.2800       554
    45.3000       534
    45.3200       568
    45.3400       556
    45.3600       502
    45.3800       498
    45.4000       528
    45.4200       496
    45.4400       516
    45.4600       438
    45.4800       478
    45.5000       474
    45.5200       492
    45.5400       468
    45.5600       482
    45.5800       516
    45.6000       466
    45.6200       490
    45.6400       448
    45.6600       474
    45.6800       510
    45.7000       518
    45.7200       532
    45.7400       470
    45.7600       542
    45.7800       468
    45.8000       556
    45.8200       524
    45.8400       492
    45.8600       506
    45.8800       586
    45.9000       566
    45.9200       526
    45.9400       592
    45.9600       510
    45.9800       566
    46.0000       586
    46.0200       582
    46.0400       584
    46.0600       674
    46.0800       630
    46.1000       672
    46.1200       704
    46.1400       700
    46.1600       770
    46.1800       780
    46.2000       786
    46.2200       838
    46.2400       918
    46.2600       980
    46.2800      1002
    46.3000      1056
    46.3200      1158
    46.3400      1298
    46.3600      1426
    46.3800      1526
    46.4000      1552
    46.4200      1742
    46.4400      1962
    46.4600      2284
    46.4800      2410
    46.5000      2856
    46.5200      3158
    46.5400      3602
    46.5600      4124
    46.5800      4494
    46.6000      5126
    46.6200      5772
    46.6400      6300
    46.6600      6838
    46.6800      7494
    46.7000      7680
    46.7200      7942
    46.7400      7780
    46.7600      7758
    46.7800      7422
    46.8000      7044
    46.8200      6842
    46.8400      6634
    46.8600      6066
    46.8800      5602
    46.9000      5270
    46.9200      5066
    46.9400      4880
    46.9600      4660
    46.9800      4452
    47.0000      4226
    47.0200      4100
    47.0400      3906
    47.0600      3640
    47.0800      3336
    47.1000      3236
    47.1200      3038
    47.1400      2652
    47.1600      2410
    47.1800      2306
    47.2000      2044
    47.2200      1764
    47.2400      1636
    47.2600      1520
    47.2800      1390
    47.3000      1320
    47.3200      1244
    47.3400      1198
    47.3600      1070
    47.3800       992
    47.4000      1000
    47.4200       952
    47.4400       894
    47.4600       878
    47.4800       820
    47.5000       838
    47.5200       832
    47.5400       752
    47.5600       800
    47.5800       796
    47.6000       736
    47.6200       756
    47.6400       728
    47.6600       744
    47.6800       798
    47.7000       858
    47.7200       834
    47.7400       846
    47.7600       896
    47.7800       876
    47.8000       946
    47.8200       922
    47.8400       942
    47.8600      1002
    47.8800       978
    47.9000       988
    47.9200       908
    47.9400       914
    47.9600       896
    47.9800       860
    48.0000       834
    48.0200       840
    48.0400       836
    48.0600       772
    48.0800       810
    48.1000       778
    48.1200       830
    48.1400       904
    48.1600       840
    48.1800       878
    48.2000       922
    48.2200       858
    48.2400       902
    48.2600       876
    48.2800       844
    48.3000       844
    48.3200       848
    48.3400       786
    48.3600       720
    48.3800       662
    48.4000       662
    48.4200       628
    48.4400       608
    48.4600       558
    48.4800       570
    48.5000       506
    48.5200       512
    48.5400       500
    48.5600       464
    48.5800       458
    48.6000       456
    48.6200       436
    48.6400       410
    48.6600       454
    48.6800       394
    48.7000       390
    48.7200       398
    48.7400       380
    48.7600       376
    48.7800       390
    48.8000       372
    48.8200       390
    48.8400       394
    48.8600       378
    48.8800       376
    48.9000       382
    48.9200       390
    48.9400       398
    48.9600       370
    48.9800       408
    49.0000       350
    49.0200       358
    49.0400       384
    49.0600       384
    49.0800       376
    49.1000       380
    49.1200       346
    49.1400       364
    49.1600       370
    49.1800       320
    49.2000       420
    49.2200       368
    49.2400       346
    49.2600       376
    49.2800       360
    49.3000       310
    49.3200       326
    49.3400       336
    49.3600       300
    49.3800       324
    49.4000       340
    49.4200       362
    49.4400       330
    49.4600       356
    49.4800       330
    49.5000       330
    49.5200       342
    49.5400       326
    49.5600       362
    49.5800       332
    49.6000       316
    49.6200       386
    49.6400       350
    49.6600       344
    49.6800       326
    49.7000       354
    49.7200       358
    49.7400       342
    49.7600       330
    49.7800       334
    49.8000       358
    49.8200       374
    49.8400       364
    49.8600       380
    49.8800       380
    49.9000       404
    49.9200       412
    49.9400       392
    49.9600       450
    49.9800       374
    50.0000       446
    50.0200       458
    50.0400       450
    50.0600       472
    50.0800       466
    50.1000       460
    50.1200       504
    50.1400       492
    50.1600       502
    50.1800       516
    50.2000       482
    50.2200       498
    50.2400       492
    50.2600       552
    50.2800       538
    50.3000       498
    50.3200       484
    50.3400       492
    50.3600       468
    50.3800       468
    50.4000       496
    50.4200       452
    50.4400       484
    50.4600       434
    50.4800       464
    50.5000       460
    50.5200       460
    50.5400       464
    50.5600       440
    50.5800       442
    50.6000       470
    50.6200       466
    50.6400       460
    50.6600       456
    50.6800       444
    50.7000       500
    50.7200       504
    50.7400       502
    50.7600       514
    50.7800       540
    50.8000       598
    50.8200       572
    50.8400       636
    50.8600       668
    50.8800       710
    50.9000       730
    50.9200       754
    50.9400       760
    50.9600       724
    50.9800       754
    51.0000       710
    51.0200       634
    51.0400       656
    51.0600       638
    51.0800       650
    51.1000       668
    51.1200       632
    51.1400       572
    51.1600       590
    51.1800       568
    51.2000       570
    51.2200       540
    51.2400       566
    51.2600       574
    51.2800       628
    51.3000       566
    51.3200       658
    51.3400       640
    51.3600       634
    51.3800       664
    51.4000       702
    51.4200       634
    51.4400       688
    51.4600       648
    51.4800       662
    51.5000       644
    51.5200       664
    51.5400       652
    51.5600       700
    51.5800       668
    51.6000       624
    51.6200       616
    51.6400       616
    51.6600       652
    51.6800       666
    51.7000       676
    51.7200       686
    51.7400       702
    51.7600       716
    51.7800       758
    51.8000       862
    51.8200       852
    51.8400       876
    51.8600       918
    51.8800       896
    51.9000       974
    51.9200       952
    51.9400       956
    51.9600       944
    51.9800       894
    52.0000       892
    52.0200       926
    52.0400       832
    52.0600       840
    52.0800       774
    52.1000       718
    52.1200       786
    52.1400       738
    52.1600       720
    52.1800       676
    52.2000       616
    52.2200       668
    52.2400       664
    52.2600       594
    52.2800       608
    52.3000       672
    52.3200       662
    52.3400       652
    52.3600       670
    52.3800       738
    52.4000       796
    52.4200       834
    52.4400       888
    52.4600       900
    52.4800       994
    52.5000      1062
    52.5200      1154
    52.5400      1216
    52.5600      1260
    52.5800      1316
    52.6000      1330
    52.6200      1340
    52.6400      1298
    52.6600      1354
    52.6800      1334
    52.7000      1258
    52.7200      1276
    52.7400      1242
    52.7600      1200
    52.7800      1058
    52.8000      1046
    52.8200       976
    52.8400       870
    52.8600       940
    52.8800       854
    52.9000       804
    52.9200       758
    52.9400       746
    52.9600       754
    52.9800       734
    53.0000       762
    53.0200       734
    53.0400       816
    53.0600       838
    53.0800       872
    53.1000       920
    53.1200       956
    53.1400      1070
    53.1600      1096
    53.1800      1242
    53.2000      1332
    53.2200      1446
    53.2400      1492
    53.2600      1502
    53.2800      1608
    53.3000      1570
    53.3200      1542
    53.3400      1534
    53.3600      1514
    53.3800      1454
    53.4000      1434
    53.4200      1302
    53.4400      1228
    53.4600      1130
    53.4800      1074
    53.5000       930
    53.5200       884
    53.5400       812
    53.5600       716
    53.5800       664
    53.6000       616
    53.6200       558
    53.6400       516
    53.6600       512
    53.6800       482
    53.7000       452
    53.7200       478
    53.7400       376
    53.7600       418
    53.7800       410
    53.8000       422
    53.8200       408
    53.8400       334
    53.8600       346
    53.8800       382
    53.9000       386
    53.9200       362
    53.9400       332
    53.9600       364
    53.9800       328
    54.0000       352
    54.0200       340
    54.0400       366
    54.0600       338
    54.0800       304
    54.1000       318
    54.1200       328
    54.1400       290
    54.1600       352
    54.1800       336
    54.2000       348
    54.2200       344
    54.2400       332
    54.2600       346
    54.2800       330
    54.3000       344
    54.3200       348
    54.3400       394
    54.3600       374
    54.3800       404
    54.4000       396
    54.4200       406
    54.4400       392
    54.4600       498
    54.4800       462
    54.5000       492
    54.5200       494
    54.5400       528
    54.5600       578
    54.5800       594
    54.6000       622
    54.6200       600
    54.6400       690
    54.6600       722
    54.6800       712
    54.7000       692
    54.7200       776
    54.7400       784
    54.7600       774
    54.7800       808
    54.8000       738
    54.8200       742
    54.8400       730
    54.8600       770
    54.8800       672
    54.9000       686
    54.9200       672
    54.9400       626
    54.9600       596
    54.9800       564
    55.0000       524
    55.0200       490
    55.0400       550
    55.0600       542
    55.0800       506
    55.1000       510
    55.1200       544
    55.1400       498
    55.1600       504
    55.1800       458
    55.2000       532
    55.2200       502
    55.2400       530
    55.2600       540
    55.2800       566
    55.3000       590
    55.3200       598
    55.3400       560
    55.3600       600
    55.3800       624
    55.4000       666
    55.4200       682
    55.4400       694
    55.4600       762
    55.4800       698
    55.5000       772
    55.5200       778
    55.5400       804
    55.5600       842
    55.5800       840
    55.6000       876
    55.6200       890
    55.6400       982
    55.6600       920
    55.6800       982
    55.7000      1048
    55.7200      1052
    55.7400      1100
    55.7600      1090
    55.7800      1112
    55.8000      1024
    55.8200      1032
    55.8400       968
    55.8600       940
    55.8800       908
    55.9000       898
    55.9200       822
    55.9400       774
    55.9600       706
    55.9800       684
    56.0000       668
    56.0200       596
    56.0400       580
    56.0600       484
    56.0800       518
    56.1000       456
    56.1200       484
    56.1400       434
    56.1600       454
    56.1800       406
    56.2000       400
    56.2200       374
    56.2400       416
    56.2600       382
    56.2800       374
    56.3000       340
    56.3200       340
    56.3400       340
    56.3600       372
    56.3800       316
    56.4000       370
    56.4200       336
    56.4400       336
    56.4600       322
    56.4800       324
    56.5000       320
    56.5200       342
    56.5400       360
    56.5600       344
    56.5800       326
    56.6000       314
    56.6200       314
    56.6400       336
    56.6600       380
    56.6800       338
    56.7000       340
    56.7200       334
    56.7400       342
    56.7600       330
    56.7800       344
    56.8000       346
    56.8200       380
    56.8400       366
    56.8600       374
    56.8800       382
    56.9000       408
    56.9200       424
    56.9400       430
    56.9600       460
    56.9800       442
    57.0000       478
    57.0200       516
    57.0400       534
    57.0600       568
    57.0800       560
    57.1000       612
    57.1200       686
    57.1400       664
    57.1600       728
    57.1800       798
    57.2000       908
    57.2200       872
    57.2400       976
    57.2600      1064
    57.2800      1164
    57.3000      1282
    57.3200      1268
    57.3400      1452
    57.3600      1552
    57.3800      1528
    57.4000      1610
    57.4200      1586
    57.4400      1550
    57.4600      1568
    57.4800      1582
    57.5000      1582
    57.5200      1564
    57.5400      1546
    57.5600      1612
    57.5800      1530
    57.6000      1524
    57.6200      1578
    57.6400      1448
    57.6600      1580
    57.6800      1580
    57.7000      1648
    57.7200      1618
    57.7400      1662
    57.7600      1586
    57.7800      1660
    57.8000      1608
    57.8200      1456
    57.8400      1480
    57.8600      1394
    57.8800      1334
    57.9000      1318
    57.9200      1216
    57.9400      1202
    57.9600      1068
    57.9800      1030
    58.0000      1020
    58.0200      1020
    58.0400       994
    58.0600       886
    58.0800       914
    58.1000       862
    58.1200       818
    58.1400       850
    58.1600       912
    58.1800       866
    58.2000       878
    58.2200       962
    58.2400       988
    58.2600       952
    58.2800      1014
    58.3000      1118
    58.3200      1112
    58.3400      1242
    58.3600      1346
    58.3800      1374
    58.4000      1450
    58.4200      1674
    58.4400      1640
    58.4600      1784
    58.4800      1934
    58.5000      1998
    58.5200      2088
    58.5400      2218
    58.5600      2228
    58.5800      2386
    58.6000      2438
    58.6200      2590
    58.6400      2622
    58.6600      2720
    58.6800      2816
    58.7000      2862
    58.7200      2840
    58.7400      2806
    58.7600      2886
    58.7800      2946
    58.8000      2812
    58.8200      2686
    58.8400      2682
    58.8600      2564
    58.8800      2404
    58.9000      2278
    58.9200      2106
    58.9400      2010
    58.9600      1866
    58.9800      1690
    59.0000      1634
    59.0200      1450
    59.0400      1354
    59.0600      1296
    59.0800      1120
    59.1000      1084
    59.1200      1052
    59.1400       992
    59.1600       900
    59.1800       866
    59.2000       834
    59.2200       722
    59.2400       708
    59.2600       690
    59.2800       672
    59.3000       634
    59.3200       612
    59.3400       590
    59.3600       580
    59.3800       600
    59.4000       500
    59.4200       454
    59.4400       466
    59.4600       478
    59.4800       486
    59.5000       474
    59.5200       440
    59.5400       398
    59.5600       440
    59.5800       400
    59.6000       438
    59.6200       384
    59.6400       406
    59.6600       382
    59.6800       394
    59.7000       406
    59.7200       408
    59.7400       362
    59.7600       346
    59.7800       376
    59.8000       374
    59.8200       300
    59.8400       370
    59.8600       342
    59.8800       330
    59.9000       324
    59.9200       344
    59.9400       340
    59.9600       378
    59.9800       358
    60.0000       368
    60.0200       366
    60.0400       344
    60.0600       326
    60.0800       310
    60.1000       354
    60.1200       338
    60.1400       338
    60.1600       316
    60.1800       358
    60.2000       348
    60.2200       346
    60.2400       324
    60.2600       332
    60.2800       366
    60.3000       376
    60.3200       362
    60.3400       354
    60.3600       362
    60.3800       352
    60.4000       350
    60.4200       328
    60.4400       342
    60.4600       368
    60.4800       310
    60.5000       374
    60.5200       350
    60.5400       342
    60.5600       372
    60.5800       336
    60.6000       340
    60.6200       374
    60.6400       312
    60.6600       346
    60.6800       354
    60.7000       338
    60.7200       342
    60.7400       352
    60.7600       346
    60.7800       336
    60.8000       324
    60.8200       448
    60.8400       342
    60.8600       378
    60.8800       414
    60.9000       376
    60.9200       400
    60.9400       402
    60.9600       420
    60.9800       410
    61.0000       442
    61.0200       446
    61.0400       482
    61.0600       458
    61.0800       440
    61.1000       468
    61.1200       476
    61.1400       508
    61.1600       492
    61.1800       484
    61.2000       510
    61.2200       482
    61.2400       462
    61.2600       516
    61.2800       498
    61.3000       490
    61.3200       476
    61.3400       446
    61.3600       480
    61.3800       488
    61.4000       450
    61.4200       470
    61.4400       514
    61.4600       522
    61.4800       466
    61.5000       520
    61.5200       478
    61.5400       496
    61.5600       518
    61.5800       514
    61.6000       480
    61.6200       468
    61.6400       534
    61.6600       498
    61.6800       518
    61.7000       472
    61.7200       446
    61.7400       490
    61.7600       440
    61.7800       484
    61.8000       478
    61.8200       482
    61.8400       506
    61.8600       516
    61.8800       524
    61.9000       534
    61.9200       516
    61.9400       470
    61.9600       510
    61.9800       482
    62.0000       526
    62.0200       554
    62.0400       514
    62.0600       522
    62.0800       514
    62.1000       532
    62.1200       510
    62.1400       518
    62.1600       488
    62.1800       540
    62.2000       558
    62.2200       486
    62.2400       492
    62.2600       506
    62.2800       452
    62.3000       494
    62.3200       464
    62.3400       452
    62.3600       516
    62.3800       462
    62.4000       466
    62.4200       428
    62.4400       426
    62.4600       398
    62.4800       410
    62.5000       372
    62.5200       384
    62.5400       398
    62.5600       410
    62.5800       346
    62.6000       354
    62.6200       318
    62.6400       366
    62.6600       310
    62.6800       302
    62.7000       340
    62.7200       328
    62.7400       316
    62.7600       286
    62.7800       296
    62.8000       286
    62.8200       262
    62.8400       260
    62.8600       254
    62.8800       284
    62.9000       272
    62.9200       248
    62.9400       254
    62.9600       280
    62.9800       236
    63.0000       260
    63.0200       228
    63.0400       244
    63.0600       222
    63.0800       252
    63.1000       236
    63.1200       258
    63.1400       238
    63.1600       226
    63.1800       224
    63.2000       212
    63.2200       220
    63.2400       236
    63.2600       224
    63.2800       214
    63.3000       224
    63.3200       226
    63.3400       246
    63.3600       254
    63.3800       246
    63.4000       240
    63.4200       220
    63.4400       250
    63.4600       210
    63.4800       238
    63.5000       238
    63.5200       244
    63.5400       238
    63.5600       256
    63.5800       274
    63.6000       256
    63.6200       276
    63.6400       274
    63.6600       282
    63.6800       300
    63.7000       290
    63.7200       314
    63.7400       338
    63.7600       372
    63.7800       368
    63.8000       402
    63.8200       404
    63.8400       436
    63.8600       402
    63.8800       398
    63.9000       424
    63.9200       430
    63.9400       448
    63.9600       442
    63.9800       386
    64.0000       416
    64.0200       366
    64.0400       406
    64.0600       374
    64.0800       352
    64.1000       376
    64.1200       324
    64.1400       356
    64.1600       316
    64.1800       314
    64.2000       278
    64.2200       310
    64.2400       266
    64.2600       272
    64.2800       258
    64.3000       274
    64.3200       296
    64.3400       260
    64.3600       280
    64.3800       276
    64.4000       248
    64.4200       236
    64.4400       274
    64.4600       290
    64.4800       284
    64.5000       300
    64.5200       258
    64.5400       298
    64.5600       318
    64.5800       348
    64.6000       286
    64.6200       320
    64.6400       310
    64.6600       326
    64.6800       344
    64.7000       378
    64.7200       360
    64.7400       370
    64.7600       422
    64.7800       422
    64.8000       458
    64.8200       446
    64.8400       458
    64.8600       504
    64.8800       560
    64.9000       546
    64.9200       510
    64.9400       560
    64.9600       590
    64.9800       632
    65.0000       588
    65.0200       626
    65.0400       616
    65.0600       648
    65.0800       688
    65.1000       652
    65.1200       688
    65.1400       706
    65.1600       736
    65.1800       688
    65.2000       702
    65.2200       690
    65.2400       700
    65.2600       652
    65.2800       674
    65.3000       696
    65.3200       604
    65.3400       602
    65.3600       596
    65.3800       606
    65.4000       598
    65.4200       562
    65.4400       540
    65.4600       498
    65.4800       512
    65.5000       446
    65.5200       456
    65.5400       474
    65.5600       406
    65.5800       414
    65.6000       402
    65.6200       404
    65.6400       318
    65.6600       376
    65.6800       318
    65.7000       320
    65.7200       322
    65.7400       304
    65.7600       310
    65.7800       292
    65.8000       298
    65.8200       286
    65.8400       248
    65.8600       286
    65.8800       284
    65.9000       254
    65.9200       246
    65.9400       238
    65.9600       256
    65.9800       278
    66.0000       290
    66.0200       268
    66.0400       286
    66.0600       248
    66.0800       244
    66.1000       260
    66.1200       232
    66.1400       264
    66.1600       266
    66.1800       248
    66.2000       256
    66.2200       264
    66.2400       272
    66.2600       294
    66.2800       260
    66.3000       256
    66.3200       278
    66.3400       276
    66.3600       280
    66.3800       308
    66.4000       306
    66.4200       332
    66.4400       336
    66.4600       300
    66.4800       324
    66.5000       336
    66.5200       368
    66.5400       384
    66.5600       326
    66.5800       378
    66.6000       390
    66.6200       408
    66.6400       390
    66.6600       390
    66.6800       434
    66.7000       436
    66.7200       484
    66.7400       422
    66.7600       442
    66.7800       458
    66.8000       452
    66.8200       514
    66.8400       548
    66.8600       488
    66.8800       516
    66.9000       562
    66.9200       538
    66.9400       526
    66.9600       528
    66.9800       516
    67.0000       514
    67.0200       496
    67.0400       434
    67.0600       474
    67.0800       426
    67.1000       444
    67.1200       432
    67.1400       438
    67.1600       390
    67.1800       402
    67.2000       390
    67.2200       360
    67.2400       340
    67.2600       356
    67.2800       350
    67.3000       332
    67.3200       324
    67.3400       324
    67.3600       300
    67.3800       288
    67.4000       344
    67.4200       302
    67.4400       316
    67.4600       278
    67.4800       310
    67.5000       294
    67.5200       298
    67.5400       274
    67.5600       328
    67.5800       318
    67.6000       320
    67.6200       334
    67.6400       334
    67.6600       358
    67.6800       318
    67.7000       372
    67.7200       332
    67.7400       386
    67.7600       372
    67.7800       404
    67.8000       406
    67.8200       440
    67.8400       414
    67.8600       476
    67.8800       486
    67.9000       516
    67.9200       534
    67.9400       534
    67.9600       648
    67.9800       696
    68.0000       740
    68.0200       764
    68.0400       820
    68.0600       906
    68.0800       892
    68.1000       938
    68.1200       984
    68.1400      1038
    68.1600      1098
    68.1800      1176
    68.2000      1126
    68.2200      1132
    68.2400      1154
    68.2600      1130
    68.2800      1092
    68.3000      1064
    68.3200      1098
    68.3400      1062
    68.3600       962
    68.3800       930
    68.4000       894
    68.4200       884
    68.4400       798
    68.4600       782
    68.4800       824
    68.5000       690
    68.5200       750
    68.5400       740
    68.5600       708
    68.5800       696
    68.6000       622
    68.6200       622
    68.6400       610
    68.6600       658
    68.6800       632
    68.7000       596
    68.7200       596
    68.7400       558
    68.7600       528
    68.7800       544
    68.8000       494
    68.8200       488
    68.8400       494
    68.8600       472
    68.8800       442
    68.9000       476
    68.9200       440
    68.9400       400
    68.9600       408
    68.9800       376
    69.0000       348
    69.0200       360
    69.0400       390
    69.0600       360
    69.0800       358
    69.1000       360
    69.1200       434
    69.1400       396
    69.1600       398
    69.1800       392
    69.2000       392
    69.2200       402
    69.2400       434
    69.2600       416
    69.2800       418
    69.3000       480
    69.3200       462
    69.3400       484
    69.3600       468
    69.3800       540
    69.4000       522
    69.4200       494
    69.4400       506
    69.4600       536
    69.4800       536
    69.5000       500
    69.5200       456
    69.5400       480
    69.5600       474
    69.5800       436
    69.6000       432
    69.6200       452
    69.6400       462
    69.6600       406
    69.6800       398
    69.7000       364
    69.7200       352
    69.7400       382
    69.7600       340
    69.7800       308
    69.8000       290
    69.8200       318
    69.8400       292
    69.8600       276
    69.8800       254
    69.9000       250
    69.9200       264
    69.9400       238
    69.9600       230
    69.9800       262
    70.0000       244
    70.0200       234
    70.0400       232
    70.0600       234
    70.0800       228
    70.1000       226
    70.1200       230
    70.1400       208
    70.1600       224
    70.1800       220
    70.2000       216
    70.2200       198
    70.2400       196
    70.2600       222
    70.2800       212
    70.3000       224
    70.3200       208
    70.3400       228
    70.3600       228
    70.3800       214
    70.4000       218
    70.4200       210
    70.4400       210
    70.4600       218
    70.4800       242
    70.5000       244
    70.5200       242
    70.5400       222
    70.5600       262
    70.5800       228
    70.6000       240
    70.6200       238
    70.6400       276
    70.6600       230
    70.6800       220
    70.7000       240
    70.7200       230
    70.7400       232
    70.7600       228
    70.7800       228
    70.8000       244
    70.8200       210
    70.8400       234
    70.8600       234
    70.8800       226
    70.9000       252
    70.9200       256
    70.9400       228
    70.9600       222
    70.9800       244
    71.0000       254
    71.0200       232
    71.0400       266
    71.0600       258
    71.0800       240
    71.1000       256
    71.1200       262
    71.1400       278
    71.1600       298
    71.1800       308
    71.2000       318
    71.2200       306
    71.2400       338
    71.2600       322
    71.2800       346
    71.3000       390
    71.3200       386
    71.3400       436
    71.3600       448
    71.3800       476
    71.4000       458
    71.4200       486
    71.4400       508
    71.4600       532
    71.4800       556
    71.5000       536
    71.5200       536
    71.5400       584
    71.5600       568
    71.5800       608
    71.6000       582
    71.6200       558
    71.6400       578
    71.6600       584
    71.6800       616
    71.7000       592
    71.7200       572
    71.7400       572
    71.7600       546
    71.7800       504
    71.8000       534
    71.8200       508
    71.8400       516
    71.8600       512
    71.8800       502
    71.9000       506
    71.9200       488
    71.9400       462
    71.9600       454
    71.9800       436
    72.0000       478
    72.0200       446
    72.0400       460
    72.0600       444
    72.0800       456
    72.1000       450
    72.1200       444
    72.1400       410
    72.1600       430
    72.1800       410
    72.2000       428
    72.2200       412
    72.2400       474
    72.2600       464
    72.2800       442
    72.3000       450
    72.3200       442
    72.3400       458
    72.3600       430
    72.3800       434
    72.4000       430
    72.4200       386
    72.4400       432
    72.4600       396
    72.4800       388
    72.5000       386
    72.5200       396
    72.5400       358
    72.5600       354
    72.5800       346
    72.6000       300
    72.6200       334
    72.6400       332
    72.6600       324
    72.6800       330
    72.7000       348
    72.7200       310
    72.7400       310
    72.7600       308
    72.7800       296
    72.8000       330
    72.8200       292
    72.8400       286
    72.8600       334
    72.8800       302
    72.9000       300
    72.9200       280
    72.9400       300
    72.9600       244
    72.9800       316
    73.0000       280
    73.0200       300
    73.0400       270
    73.0600       280
    73.0800       292
    73.1000       266
    73.1200       288
    73.1400       262
    73.1600       248
    73.1800       234
    73.2000       234
    73.2200       264
    73.2400       264
    73.2600       240
    73.2800       244
    73.3000       236
    73.3200       234
    73.3400       214
    73.3600       226
    73.3800       208
    73.4000       248
    73.4200       250
    73.4400       252
    73.4600       244
    73.4800       264
    73.5000       252
    73.5200       282
    73.5400       246
    73.5600       248
    73.5800       264
    73.6000       260
    73.6200       288
    73.6400       288
    73.6600       308
    73.6800       284
    73.7000       276
    73.7200       282
    73.7400       322
    73.7600       316
    73.7800       326
    73.8000       324
    73.8200       332
    73.8400       324
    73.8600       342
    73.8800       370
    73.9000       368
    73.9200       338
    73.9400       402
    73.9600       392
    73.9800       376
    74.0000       372
    74.0200       336
    74.0400       400
    74.0600       356
    74.0800       328
    74.1000       362
    74.1200       384
    74.1400       384
    74.1600       390
    74.1800       378
    74.2000       344
    74.2200       332
    74.2400       320
    74.2600       320
    74.2800       326
    74.3000       350
    74.3200       310
    74.3400       290
    74.3600       316
    74.3800       310
    74.4000       274
    74.4200       292
    74.4400       284
    74.4600       260
    74.4800       266
    74.5000       264
    74.5200       224
    74.5400       246
    74.5600       234
    74.5800       226
    74.6000       234
    74.6200       224
    74.6400       190
    74.6600       228
    74.6800       228
    74.7000       210
    74.7200       222
    74.7400       210
    74.7600       216
    74.7800       184
    74.8000       208
    74.8200       186
    74.8400       200
    74.8600       218
    74.8800       246
    74.9000       182
    74.9200       198
    74.9400       196
    74.9600       198
    74.9800       210
    75.0000       208
    75.0200       208
    75.0400       200
    75.0600       208
    75.0800       178
    75.1000       206
    75.1200       206
    75.1400       204
    75.1600       176
    75.1800       174
    75.2000       188
    75.2200       202
    75.2400       192
    75.2600       208
    75.2800       180
    75.3000       212
    75.3200       222
    75.3400       194
    75.3600       204
    75.3800       200
    75.4000       198
    75.4200       236
    75.4400       230
    75.4600       228
    75.4800       196
    75.5000       198
    75.5200       218
    75.5400       250
    75.5600       210
    75.5800       254
    75.6000       230
    75.6200       242
    75.6400       268
    75.6600       244
    75.6800       266
    75.7000       278
    75.7200       288
    75.7400       302
    75.7600       328
    75.7800       310
    75.8000       320
    75.8200       322
    75.8400       298
    75.8600       324
    75.8800       362
    75.9000       334
    75.9200       342
    75.9400       328
    75.9600       336
    75.9800       316
    76.0000       372
    76.0200       344
    76.0400       312
    76.0600       310
    76.0800       294
    76.1000       322
    76.1200       288
    76.1400       284
    76.1600       326
    76.1800       314
    76.2000       308
    76.2200       308
    76.2400       286
    76.2600       266
    76.2800       270
    76.3000       296
    76.3200       300
    76.3400       294
    76.3600       278
    76.3800       338
    76.4000       302
    76.4200       316
    76.4400       324
    76.4600       294
    76.4800       310
    76.5000       314
    76.5200       314
    76.5400       318
    76.5600       334
    76.5800       344
    76.6000       354
    76.6200       332
    76.6400       334
    76.6600       306
    76.6800       326
    76.7000       326
    76.7200       354
    76.7400       320
    76.7600       322
    76.7800       316
    76.8000       336
    76.8200       344
    76.8400       350
    76.8600       338
    76.8800       342
    76.9000       314
    76.9200       288
    76.9400       294
    76.9600       324
    76.9800       316
    77.0000       322
    77.0200       312
    77.0400       330
    77.0600       324
    77.0800       284
    77.1000       336
    77.1200       346
    77.1400       288
    77.1600       316
    77.1800       342
    77.2000       348
    77.2200       344
    77.2400       306
    77.2600       346
    77.2800       374
    77.3000       420
    77.3200       400
    77.3400       428
    77.3600       394
    77.3800       486
    77.4000       436
    77.4200       482
    77.4400       556
    77.4600       572
    77.4800       568
    77.5000       596
    77.5200       636
    77.5400       680
    77.5600       658
    77.5800       734
    77.6000       704
    77.6200       742
    77.6400       768
    77.6600       722
    77.6800       778
    77.7000       810
    77.7200       774
    77.7400       694
    77.7600       762
    77.7800       678
    77.8000       672
    77.8200       698
    77.8400       668
    77.8600       658
    77.8800       646
    77.9000       674
    77.9200       656
    77.9400       592
    77.9600       558
    77.9800       488
    78.0000       546
    78.0200       520
    78.0400       492
    78.0600       488
    78.0800       480
    78.1000       444
    78.1200       416
    78.1400       428
    78.1600       448
    78.1800       406
    78.2000       422
    78.2200       428
    78.2400       420
    78.2600       446
    78.2800       416
    78.3000       388
    78.3200       392
    78.3400       388
    78.3600       382
    78.3800       388
    78.4000       470
    78.4200       408
    78.4400       406
    78.4600       420
    78.4800       416
    78.5000       424
    78.5200       432
    78.5400       416
    78.5600       432
    78.5800       432
    78.6000       454
    78.6200       436
    78.6400       416
    78.6600       366
    78.6800       440
    78.7000       410
    78.7200       392
    78.7400       412
    78.7600       394
    78.7800       374
    78.8000       394
    78.8200       370
    78.8400       334
    78.8600       362
    78.8800       356
    78.9000       362
    78.9200       342
    78.9400       318
    78.9600       296
    78.9800       296
    79.0000       312
    79.0200       302
    79.0400       262
    79.0600       264
    79.0800       270
    79.1000       282
    79.1200       270
    79.1400       232
    79.1600       244
    79.1800       214
    79.2000       246
    79.2200       268
    79.2400       252
    79.2600       258
    79.2800       250
    79.3000       242
    79.3200       246
    79.3400       256
    79.3600       232
    79.3800       252
    79.4000       248
    79.4200       234
    79.4400       214
    79.4600       240
    79.4800       226
    79.5000       240
    79.5200       232
    79.5400       254
    79.5600       262
    79.5800       230
    79.6000       226
    79.6200       272
    79.6400       222
    79.6600       296
    79.6800       224
    79.7000       250
    79.7200       218
    79.7400       248
    79.7600       226
    79.7800       216
    79.8000       232
    79.8200       222
    79.8400       274
    79.8600       260
    79.8800       260
    79.9000       242
    79.9200       224
    79.9400       256
    79.9600       258
    79.9800       242
    80.0000       250
    80.0200       240
    80.0400       234
    80.0600       224
    80.0800       228
    80.1000       240
    80.1200       234
    80.1400       232
    80.1600       246
    80.1800       202
    80.2000       206
    80.2200       234
    80.2400       202
    80.2600       196
    80.2800       202
    80.3000       230
    80.3200       222
    80.3400       212
    80.3600       210
    80.3800       226
    80.4000       208
    80.4200       226
    80.4400       226
    80.4600       220
    80.4800       224
    80.5000       188
    80.5200       208
    80.5400       218
    80.5600       208
    80.5800       206
    80.6000       174
    80.6200       204
    80.6400       188
    80.6600       178
    80.6800       204
    80.7000       196
    80.7200       194
    80.7400       218
    80.7600       172
    80.7800       192
    80.8000       174
    80.8200       170
    80.8400       190
    80.8600       160
    80.8800       208
    80.9000       198
    80.9200       192
    80.9400       170
    80.9600       182
    80.9800       202
    81.0000       216
    81.0200       208
    81.0400       178
    81.0600       232
    81.0800       214
    81.1000       194
    81.1200       204
    81.1400       198
    81.1600       196
    81.1800       224
    81.2000       218
    81.2200       232
    81.2400       232
    81.2600       216
    81.2800       250
    81.3000       258
    81.3200       270
    81.3400       230
    81.3600       262
    81.3800       254
    81.4000       250
    81.4200       280
    81.4400       230
    81.4600       244
    81.4800       210
    81.5000       258
    81.5200       256
    81.5400       244
    81.5600       272
    81.5800       260
    81.6000       274
    81.6200       256
    81.6400       230
    81.6600       254
    81.6800       246
    81.7000       222
    81.7200       280
    81.7400       248
    81.7600       260
    81.7800       268
    81.8000       278
    81.8200       270
    81.8400       244
    81.8600       254
    81.8800       252
    81.9000       258
    81.9200       268
    81.9400       268
    81.9600       262
    81.9800       266
    82.0000       270
    82.0200       286
    82.0400       284
    82.0600       296
    82.0800       290
    82.1000       282
    82.1200       338
    82.1400       318
    82.1600       316
    82.1800       350
    82.2000       316
    82.2200       332
    82.2400       344
    82.2600       358
    82.2800       310
    82.3000       348
    82.3200       344
    82.3400       358
    82.3600       350
    82.3800       356
    82.4000       370
    82.4200       358
    82.4400       358
    82.4600       384
    82.4800       374
    82.5000       370
    82.5200       400
    82.5400       408
    82.5600       404
    82.5800       426
    82.6000       402
    82.6200       446
    82.6400       394
    82.6600       356
    82.6800       384
    82.7000       418
    82.7200       408
    82.7400       394
    82.7600       398
    82.7800       374
    82.8000       402
    82.8200       370
    82.8400       406
    82.8600       378
    82.8800       396
    82.9000       364
    82.9200       386
    82.9400       374
    82.9600       346
    82.9800       416
    83.0000       420
    83.0200       368
    83.0400       378
    83.0600       402
    83.0800       354
    83.1000       412
    83.1200       390
    83.1400       370
    83.1600       328
    83.1800       400
    83.2000       360
    83.2200       362
    83.2400       386
    83.2600       382
    83.2800       322
    83.3000       356
    83.3200       342
    83.3400       342
    83.3600       342
    83.3800       338
    83.4000       344
    83.4200       334
    83.4400       356
    83.4600       306
    83.4800       352
    83.5000       336
    83.5200       274
    83.5400       330
    83.5600       306
    83.5800       284
    83.6000       304
    83.6200       342
    83.6400       290
    83.6600       298
    83.6800       292
    83.7000       286
    83.7200       288
    83.7400       274
    83.7600       274
    83.7800       264
    83.8000       322
    83.8200       258
    83.8400       276
    83.8600       294
    83.8800       276
    83.9000       248
    83.9200       284
    83.9400       304
    83.9600       282
    83.9800       272
    84.0000       268
    84.0200       278
    84.0400       264
    84.0600       242
    84.0800       274
    84.1000       258
    84.1200       256
    84.1400       280
    84.1600       262
    84.1800       254
    84.2000       272
    84.2200       254
    84.2400       232
    84.2600       244
    84.2800       210
    84.3000       238
    84.3200       216
    84.3400       202
    84.3600       250
    84.3800       246
    84.4000       230
    84.4200       208
    84.4400       200
    84.4600       228
    84.4800       200
    84.5000       220
    84.5200       204
    84.5400       218
    84.5600       212
    84.5800       214
    84.6000       192
    84.6200       232
    84.6400       202
    84.6600       220
    84.6800       210
    84.7000       216
    84.7200       214
    84.7400       214
    84.7600       226
    84.7800       174
    84.8000       230
    84.8200       168
    84.8400       210
    84.8600       184
    84.8800       204
    84.9000       226
    84.9200       230
    84.9400       202
    84.9600       210
    84.9800       190
    85.0000       214
    85.0200       212
    85.0400       210
    85.0600       208
    85.0800       182
    85.1000       208
    85.1200       226
    85.1400       178
    85.1600       194
    85.1800       222
    85.2000       204
    85.2200       220
    85.2400       184
    85.2600       196
    85.2800       206
    85.3000       212
    85.3200       242
    85.3400       226
    85.3600       222
    85.3800       236
    85.4000       246
    85.4200       218
    85.4400       218
    85.4600       252
    85.4800       248
    85.5000       280
    85.5200       262
    85.5400       258
    85.5600       266
    85.5800       242
    85.6000       246
    85.6200       278
    85.6400       236
    85.6600       248
    85.6800       286
    85.7000       242
    85.7200       230
    85.7400       260
    85.7600       226
    85.7800       234
    85.8000       226
    85.8200       222
    85.8400       196
    85.8600       222
    85.8800       232
    85.9000       228
    85.9200       236
    85.9400       198
    85.9600       168
    85.9800       224
    86.0000       208
    86.0200       198
    86.0400       198
    86.0600       192
    86.0800       206
    86.1000       186
    86.1200       210
    86.1400       196
    86.1600       164
    86.1800       210
    86.2000       182
    86.2200       196
    86.2400       202
    86.2600       172
    86.2800       196
    86.3000       192
    86.3200       192
    86.3400       162
    86.3600       170
    86.3800       180
    86.4000       198
    86.4200       210
    86.4400       214
    86.4600       206
    86.4800       210
    86.5000       192
    86.5200       188
    86.5400       206
    86.5600       222
    86.5800       210
    86.6000       198
    86.6200       234
    86.6400       218
    86.6600       246
    86.6800       236
    86.7000       234
    86.7200       218
    86.7400       228
    86.7600       234
    86.7800       268
    86.8000       266
    86.8200       272
    86.8400       258
    86.8600       286
    86.8800       288
    86.9000       312
    86.9200       318
    86.9400       312
    86.9600       320
    86.9800       318
    87.0000       324
    87.0200       336
    87.0400       322
    87.0600       392
    87.0800       354
    87.1000       340
    87.1200       382
    87.1400       376
    87.1600       402
    87.1800       388
    87.2000       420
    87.2200       430
    87.2400       438
    87.2600       464
    87.2800       452
    87.3000       492
    87.3200       458
    87.3400       476
    87.3600       486
    87.3800       472
    87.4000       438
    87.4200       450
    87.4400       482
    87.4600       426
    87.4800       438
    87.5000       454
    87.5200       456
    87.5400       450
    87.5600       416
    87.5800       414
    87.6000       406
    87.6200       460
    87.6400       462
    87.6600       386
    87.6800       392
    87.7000       434
    87.7200       400
    87.7400       432
    87.7600       416
    87.7800       408
    87.8000       372
    87.8200       388
    87.8400       350
    87.8600       420
    87.8800       370
    87.9000       362
    87.9200       382
    87.9400       330
    87.9600       362
    87.9800       362
    88.0000       354
    88.0200       314
    88.0400       322
    88.0600       308
    88.0800       334
    88.1000       314
    88.1200       298
    88.1400       310
    88.1600       298
    88.1800       286
    88.2000       302
    88.2200       286
    88.2400       266
    88.2600       278
    88.2800       292
    88.3000       272
    88.3200       278
    88.3400       280
    88.3600       264
    88.3800       274
    88.4000       270
    88.4200       268
    88.4400       244
    88.4600       236
    88.4800       272
    88.5000       234
    88.5200       248
    88.5400       252
    88.5600       242
    88.5800       268
    88.6000       256
    88.6200       246
    88.6400       260
    88.6600       256
    88.6800       212
    88.7000       228
    88.7200       220
    88.7400       244
    88.7600       230
    88.7800       270
    88.8000       260
    88.8200       264
    88.8400       266
    88.8600       260
    88.8800       236
    88.9000       246
    88.9200       258
    88.9400       210
    88.9600       260
    88.9800       232
    89.0000       228
    89.0200       212
    89.0400       206
    89.0600       228
    89.0800       220
    89.1000       208
    89.1200       240
    89.1400       236
    89.1600       262
    89.1800       218
    89.2000       232
    89.2200       218
    89.2400       226
    89.2600       230
    89.2800       210
    89.3000       252
    89.3200       242
    89.3400       252
    89.3600       240
    89.3800       256
    89.4000       258
    89.4200       282
    89.4400       240
    89.4600       260
    89.4800       230
    89.5000       278
    89.5200       232
    89.5400       250
    89.5600       258
    89.5800       270
    89.6000       274
    89.6200       282
    89.6400       284
    89.6600       274
    89.6800       268
    89.7000       262
    89.7200       286
    89.7400       272
    89.7600       280
    89.7800       284
    89.8000       278
    89.8200       260
    89.8400       254
    89.8600       292
    89.8800       266
    89.9000       268
    89.9200       264
    89.9400       284
    89.9600       300
    89.9800       264
    90.0000       282
