    10.0000       358
    10.0200       326
    10.0400       352
    10.0600       352
    10.0800       370
    10.1000       368
    10.1200       354
    10.1400       324
    10.1600       392
    10.1800       338
    10.2000       358
    10.2200       336
    10.2400       348
    10.2600       324
    10.2800       334
    10.3000       364
    10.3200       354
    10.3400       328
    10.3600       332
    10.3800       330
    10.4000       356
    10.4200       344
    10.4400       354
    10.4600       330
    10.4800       342
    10.5000       362
    10.5200       310
    10.5400       332
    10.5600       346
    10.5800       372
    10.6000       346
    10.6200       348
    10.6400       350
    10.6600       364
    10.6800       340
    10.7000       328
    10.7200       346
    10.7400       326
    10.7600       330
    10.7800       350
    10.8000       344
    10.8200       322
    10.8400       344
    10.8600       334
    10.8800       360
    10.9000       328
    10.9200       346
    10.9400       302
    10.9600       322
    10.9800       332
    11.0000       316
    11.0200       338
    11.0400       320
    11.0600       322
    11.0800       296
    11.1000       310
    11.1200       290
    11.1400       330
    11.1600       314
    11.1800       332
    11.2000       330
    11.2200       296
    11.2400       302
    11.2600       310
    11.2800       330
    11.3000       296
    11.3200       308
    11.3400       318
    11.3600       302
    11.3800       320
    11.4000       308
    11.4200       334
    11.4400       298
    11.4600       288
    11.4800       350
    11.5000       292
    11.5200       310
    11.5400       344
    11.5600       282
    11.5800       318
    11.6000       314
    11.6200       302
    11.6400       286
    11.6600       336
    11.6800       298
    11.7000       316
    11.7200       310
    11.7400       286
    11.7600       310
    11.7800       314
    11.8000       288
    11.8200       302
    11.8400       282
    11.8600       266
    11.8800       312
    11.9000       274
    11.9200       286
    11.9400       310
    11.9600       266
    11.9800       310
    12.0000       302
    12.0200       284
    12.0400       312
    12.0600       300
    12.0800       302
    12.1000       306
    12.1200       298
    12.1400       292
    12.1600       282
    12.1800       282
    12.2000       294
    12.2200       280
    12.2400       300
    12.2600       286
    12.2800       276
    12.3000       284
    12.3200       292
    12.3400       284
    12.3600       294
    12.3800       278
    12.4000       274
    12.4200       280
    12.4400       298
    12.4600       340
    12.4800       296
    12.5000       252
    12.5200       286
    12.5400       298
    12.5600       300
    12.5800       268
    12.6000       280
    12.6200       300
    12.6400       288
    12.6600       256
    12.6800       256
    12.7000       264
    12.7200       310
    12.7400       266
    12.7600       286
    12.7800       270
    12.8000       280
    12.8200       298
    12.8400       262
    12.8600       278
    12.8800       292
    12.9000       306
    12.9200       288
    12.9400       268
    12.9600       282
    12.9800       272
    13.0000       282
    13.0200       272
    13.0400       288
    13.0600       238
    13.0800       262
    13.1000       286
    13.1200       264
    13.1400       276
    13.1600       272
    13.1800       244
    13.2000       256
    13.2200       274
    13.2400       252
    13.2600       290
    13.2800       240
    13.3000       244
    13.3200       254
    13.3400       250
    13.3600       264
    13.3800       268
    13.4000       244
    13.4200       236
    13.4400       266
    13.4600       272
    13.4800       270
    13.5000       254
    13.5200       250
    13.5400       260
    13.5600       264
    13.5800       282
    13.6000       252
    13.6200       250
    13.6400       276
    13.6600       252
    13.6800       266
    13.7000       248
    13.7200       230
    13.7400       258
    13.7600       262
    13.7800       248
    13.8000       254
    13.8200       270
    13.8400       232
    13.8600       262
    13.8800       252
    13.9000       252
    13.9200       280
    13.9400       216
    13.9600       256
    13.9800       230
    14.0000       258
    14.0200       254
    14.0400       254
    14.0600       248
    14.0800       242
    14.1000       252
    14.1200       264
    14.1400       270
    14.1600       250
    14.1800       240
    14.2000       242
    14.2200       264
    14.2400       234
    14.2600       258
    14.2800       254
    14.3000       258
    14.3200       234
    14.3400       272
    14.3600       246
    14.3800       232
    14.4000       238
    14.4200       256
    14.4400       250
    14.4600       248
    14.4800       256
    14.5000       268
    14.5200       274
    14.5400       254
    14.5600       248
    14.5800       230
    14.6000       260
    14.6200       252
    14.6400       250
    14.6600       254
    14.6800       222
    14.7000       232
    14.7200       232
    14.7400       262
    14.7600       256
    14.7800       226
    14.8000       270
    14.8200       250
    14.8400       224
    14.8600       240
    14.8800       230
    14.9000       250
    14.9200       280
    14.9400       230
    14.9600       278
    14.9800       258
    15.0000       284
    15.0200       232
    15.0400       254
    15.0600       252
    15.0800       292
    15.1000       260
    15.1200       254
    15.1400       278
    15.1600       236
    15.1800       286
    15.2000       254
    15.2200       268
    15.2400       284
    15.2600       304
    15.2800       276
    15.3000       318
    15.3200       288
    15.3400       298
    15.3600       348
    15.3800       340
    15.4000       338
    15.4200       338
    15.4400       342
    15.4600       344
    15.4800       402
    15.5000       386
    15.5200       440
    15.5400       466
    15.5600       442
    15.5800       458
    15.6000       464
    15.6200       462
    15.6400       452
    15.6600       424
    15.6800       440
    15.7000       376
    15.7200       360
    15.7400       340
    15.7600       312
    15.7800       320
    15.8000       304
    15.8200       284
    15.8400       288
    15.8600       288
    15.8800       254
    15.9000       274
    15.9200       286
    15.9400       242
    15.9600       238
    15.9800       290
    16.0000       262
    16.0200       272
    16.0400       238
    16.0600       228
    16.0800       256
    16.1000       278
    16.1200       256
    16.1400       254
    16.1600       242
    16.1800       234
    16.2000       274
    16.2200       242
    16.2400       258
    16.2600       260
    16.2800       286
    16.3000       246
    16.3200       252
    16.3400       240
    16.3600       274
    16.3800       232
    16.4000       252
    16.4200       242
    16.4400       230
    16.4600       230
    16.4800       224
    16.5000       248
    16.5200       250
    16.5400       248
    16.5600       236
    16.5800       198
    16.6000       260
    16.6200       240
    16.6400       228
    16.6600       244
    16.6800       236
    16.7000       242
    16.7200       198
    16.7400       218
    16.7600       238
    16.7800       204
    16.8000       220
    16.8200       218
    16.8400       238
    16.8600       248
    16.8800       222
    16.9000       204
    16.9200       218
    16.9400       218
    16.9600       190
    16.9800       206
    17.0000       222
    17.0200       244
    17.0400       214
    17.0600       226
    17.0800       224
    17.1000       218
    17.1200       208
    17.1400       226
    17.1600       218
    17.1800       216
    17.2000       230
    17.2200       226
    17.2400       204
    17.2600       206
    17.2800       236
    17.3000       234
    17.3200       218
    17.3400       220
    17.3600       184
    17.3800       208
    17.4000       218
    17.4200       222
    17.4400       216
    17.4600       232
    17.4800       198
    17.5000       222
    17.5200       186
    17.5400       220
    17.5600       208
    17.5800       218
    17.6000       224
    17.6200       218
    17.6400       214
    17.6600       202
    17.6800       228
    17.7000       238
    17.7200       192
    17.7400       218
    17.7600       194
    17.7800       236
    17.8000       194
    17.8200       206
    17.8400       208
    17.8600       238
    17.8800       218
    17.9000       190
    17.9200       206
    17.9400       212
    17.9600       182
    17.9800       186
    18.0000       196
    18.0200       204
    18.0400       188
    18.0600       200
    18.0800       214
    18.1000       188
    18.1200       232
    18.1400       182
    18.1600       214
    18.1800       188
    18.2000       210
    18.2200       220
    18.2400       204
    18.2600       212
    18.2800       194
    18.3000       218
    18.3200       196
    18.3400       232
    18.3600       206
    18.3800       216
    18.4000       184
    18.4200       214
    18.4400       182
    18.4600       208
    18.4800       220
    18.5000       226
    18.5200       216
    18.5400       236
    18.5600       220
    18.5800       224
    18.6000       234
    18.6200       208
    18.6400       242
    18.6600       210
    18.6800       232
    18.7000       232
    18.7200       222
    18.7400       250
    18.7600       266
    18.7800       236
    18.8000       250
    18.8200       292
    18.8400       260
    18.8600       276
    18.8800       298
    18.9000       298
    18.9200       318
    18.9400       310
    18.9600       348
    18.9800       364
    19.0000       356
    19.0200       360
    19.0400       406
    19.0600       374
    19.0800       390
    19.1000       462
    19.1200       474
    19.1400       532
    19.1600       560
    19.1800       598
    19.2000       704
    19.2200       710
    19.2400       734
    19.2600       884
    19.2800       994
    19.3000      1120
    19.3200      1262
    19.3400      1472
    19.3600      1706
    19.3800      1922
    19.4000      2306
    19.4200      2556
    19.4400      3032
    19.4600      3440
    19.4800      3744
    19.5000      4018
    19.5200      4170
    19.5400      4032
    19.5600      3710
    19.5800      3142
    19.6000      2646
    19.6200      2154
    19.6400      1852
    19.6600      1554
    19.6800      1460
    19.7000      1462
    19.7200      1368
    19.7400      1424
    19.7600      1454
    19.7800      1626
    19.8000      1828
    19.8200      2052
    19.8400      2276
    19.8600      2562
    19.8800      2844
    19.9000      2958
    19.9200      3136
    19.9400      3230
    19.9600      3082
    19.9800      2796
    20.0000      2540
    20.0200      2078
    20.0400      1602
    20.0600      1344
    20.0800      1088
    20.1000       868
    20.1200       758
    20.1400       636
    20.1600       556
    20.1800       474
    20.2000       508
    20.2200       408
    20.2400       376
    20.2600       342
    20.2800       372
    20.3000       344
    20.3200       308
    20.3400       296
    20.3600       298
    20.3800       282
    20.4000       242
    20.4200       256
    20.4400       256
    20.4600       236
    20.4800       250
    20.5000       234
    20.5200       246
    20.5400       228
    20.5600       254
    20.5800       246
    20.6000       234
    20.6200       214
    20.6400       238
    20.6600       236
    20.6800       246
    20.7000       220
    20.7200       220
    20.7400       244
    20.7600       232
    20.7800       246
    20.8000       222
    20.8200       226
    20.8400       210
    20.8600       260
    20.8800       256
    20.9000       252
    20.9200       252
    20.9400       246
    20.9600       228
    20.9800       260
    21.0000       260
    21.0200       240
    21.0400       248
    21.0600       252
    21.0800       260
    21.1000       240
    21.1200       228
    21.1400       252
    21.1600       210
    21.1800       258
    21.2000       224
    21.2200       238
    21.2400       228
    21.2600       218
    21.2800       202
    21.3000       228
    21.3200       224
    21.3400       208
    21.3600       196
    21.3800       206
    21.4000       208
    21.4200       200
    21.4400       176
    21.4600       190
    21.4800       192
    21.5000       220
    21.5200       216
    21.5400       202
    21.5600       216
    21.5800       226
    21.6000       230
    21.6200       184
    21.6400       208
    21.6600       218
    21.6800       196
    21.7000       202
    21.7200       212
    21.7400       204
    21.7600       214
    21.7800       236
    21.8000       206
    21.8200       224
    21.8400       214
    21.8600       196
    21.8800       192
    21.9000       204
    21.9200       196
    21.9400       220
    21.9600       210
    21.9800       242
    22.0000       200
    22.0200       196
    22.0400       208
    22.0600       218
    22.0800       202
    22.1000       234
    22.1200       232
    22.1400       248
    22.1600       240
    22.1800       228
    22.2000       266
    22.2200       274
    22.2400       258
    22.2600       276
    22.2800       304
    22.3000       322
    22.3200       340
    22.3400       376
    22.3600       352
    22.3800       404
    22.4000       462
    22.4200       474
    22.4400       512
    22.4600       588
    22.4800       670
    22.5000       680
    22.5200       788
    22.5400       904
    22.5600      1008
    22.5800      1230
    22.6000      1334
    22.6200      1488
    22.6400      1830
    22.6600      2102
    22.6800      2462
    22.7000      2842
    22.7200      3348
    22.7400      3902
    22.7600      4558
    22.7800      5098
    22.8000      5458
    22.8200      5542
    22.8400      5408
    22.8600      5108
    22.8800      4184
    22.9000      3516
    22.9200      2892
    22.9400      2292
    22.9600      1698
    22.9800      1338
    23.0000      1118
    23.0200       896
    23.0400       872
    23.0600       728
    23.0800       648
    23.1000       564
    23.1200       558
    23.1400       438
    23.1600       432
    23.1800       420
    23.2000       348
    23.2200       388
    23.2400       342
    23.2600       310
    23.2800       308
    23.3000       278
    23.3200       258
    23.3400       276
    23.3600       288
    23.3800       236
    23.4000       248
    23.4200       218
    23.4400       232
    23.4600       234
    23.4800       210
    23.5000       216
    23.5200       210
    23.5400       216
    23.5600       198
    23.5800       218
    23.6000       192
    23.6200       214
    23.6400       218
    23.6600       204
    23.6800       210
    23.7000       212
    23.7200       202
    23.7400       206
    23.7600       196
    23.7800       198
    23.8000       184
    23.8200       192
    23.8400       190
    23.8600       166
    23.8800       182
    23.9000       182
    23.9200       220
    23.9400       222
    23.9600       178
    23.9800       204
    24.0000       178
    24.0200       186
    24.0400       162
    24.0600       202
    24.0800       172
    24.1000       180
    24.1200       224
    24.1400       190
    24.1600       198
    24.1800       198
    24.2000       200
    24.2200       204
    24.2400       180
    24.2600       194
    24.2800       172
    24.3000       204
    24.3200       218
    24.3400       188
    24.3600       190
    24.3800       198
    24.4000       188
    24.4200       192
    24.4400       178
    24.4600       184
    24.4800       174
    24.5000       196
    24.5200       190
    24.5400       182
    24.5600       184
    24.5800       202
    24.6000       222
    24.6200       196
    24.6400       200
    24.6600       190
    24.6800       186
    24.7000       206
    24.7200       182
    24.7400       192
    24.7600       198
    24.7800       226
    24.8000       210
    24.8200       188
    24.8400       190
    24.8600       182
    24.8800       198
    24.9000       216
    24.9200       210
    24.9400       190
    24.9600       200
    24.9800       244
    25.0000       202
    25.0200       222
    25.0400       234
    25.0600       210
    25.0800       228
    25.1000       220
    25.1200       206
    25.1400       244
    25.1600       216
    25.1800       248
    25.2000       274
    25.2200       300
    25.2400       298
    25.2600       332
    25.2800       340
    25.3000       382
    25.3200       438
    25.3400       416
    25.3600       516
    25.3800       532
    25.4000       642
    25.4200       694
    25.4400       802
    25.4600       876
    25.4800      1002
    25.5000       998
    25.5200      1204
    25.5400      1166
    25.5600      1260
    25.5800      1184
    25.6000      1148
    25.6200       994
    25.6400       864
    25.6600       738
    25.6800       654
    25.7000       574
    25.7200       510
    25.7400       410
    25.7600       402
    25.7800       342
    25.8000       320
    25.8200       322
    25.8400       282
    25.8600       282
    25.8800       266
    25.9000       274
    25.9200       246
    25.9400       228
    25.9600       268
    25.9800       204
    26.0000       232
    26.0200       224
    26.0400       234
    26.0600       246
    26.0800       212
    26.1000       216
    26.1200       228
    26.1400       184
    26.1600       172
    26.1800       208
    26.2000       202
    26.2200       198
    26.2400       214
    26.2600       184
    26.2800       190
    26.3000       194
    26.3200       188
    26.3400       178
    26.3600       196
    26.3800       200
    26.4000       190
    26.4200       186
    26.4400       206
    26.4600       218
    26.4800       186
    26.5000       196
    26.5200       204
    26.5400       212
    26.5600       194
    26.5800       206
    26.6000       216
    26.6200       184
    26.6400       188
    26.6600       200
    26.6800       194
    26.7000       202
    26.7200       190
    26.7400       186
    26.7600       184
    26.7800       214
    26.8000       192
    26.8200       188
    26.8400       178
    26.8600       200
    26.8800       186
    26.9000       200
    26.9200       196
    26.9400       206
    26.9600       170
    26.9800       198
    27.0000       178
    27.0200       170
    27.0400       188
    27.0600       188
    27.0800       198
    27.1000       208
    27.1200       234
    27.1400       194
    27.1600       224
    27.1800       192
    27.2000       170
    27.2200       192
    27.2400       192
    27.2600       186
    27.2800       242
    27.3000       192
    27.3200       220
    27.3400       208
    27.3600       220
    27.3800       218
    27.4000       202
    27.4200       196
    27.4400       208
    27.4600       188
    27.4800       216
    27.5000       240
    27.5200       206
    27.5400       228
    27.5600       236
    27.5800       238
    27.6000       234
    27.6200       262
    27.6400       268
    27.6600       278
    27.6800       300
    27.7000       294
    27.7200       268
    27.7400       286
    27.7600       328
    27.7800       320
    27.8000       378
    27.8200       392
    27.8400       382
    27.8600       412
    27.8800       474
    27.9000       586
    27.9200       564
    27.9400       590
    27.9600       662
    27.9800       762
    28.0000       852
    28.0200       980
    28.0400      1136
    28.0600      1250
    28.0800      1466
    28.1000      1670
    28.1200      1962
    28.1400      2210
    28.1600      2500
    28.1800      2868
    28.2000      3276
    28.2200      3600
    28.2400      3884
    28.2600      3968
    28.2800      3810
    28.3000      3514
    28.3200      3266
    28.3400      2868
    28.3600      2488
    28.3800      2008
    28.4000      1682
    28.4200      1320
    28.4400      1028
    28.4600       988
    28.4800       774
    28.5000       734
    28.5200       660
    28.5400       604
    28.5600       500
    28.5800       498
    28.6000       462
    28.6200       426
    28.6400       392
    28.6600       352
    28.6800       358
    28.7000       342
    28.7200       326
    28.7400       296
    28.7600       278
    28.7800       276
    28.8000       276
    28.8200       268
    28.8400       238
    28.8600       242
    28.8800       240
    28.9000       244
    28.9200       248
    28.9400       258
    28.9600       212
    28.9800       242
    29.0000       200
    29.0200       236
    29.0400       234
    29.0600       222
    29.0800       210
    29.1000       210
    29.1200       220
    29.1400       216
    29.1600       232
    29.1800       216
    29.2000       204
    29.2200       226
    29.2400       224
    29.2600       204
    29.2800       230
    29.3000       204
    29.3200       196
    29.3400       222
    29.3600       218
    29.3800       212
    29.4000       212
    29.4200       208
    29.4400       194
    29.4600       210
    29.4800       208
    29.5000       212
    29.5200       210
    29.5400       204
    29.5600       206
    29.5800       210
    29.6000       178
    29.6200       208
    29.6400       226
    29.6600       162
    29.6800       218
    29.7000       224
    29.7200       202
    29.7400       200
    29.7600       210
    29.7800       196
    29.8000       198
    29.8200       216
    29.8400       224
    29.8600       214
    29.8800       156
    29.9000       208
    29.9200       230
    29.9400       244
    29.9600       210
    29.9800       212
    30.0000       182
    30.0200       210
    30.0400       208
    30.0600       202
    30.0800       184
    30.1000       200
    30.1200       208
    30.1400       214
    30.1600       230
    30.1800       210
    30.2000       214
    30.2200       198
    30.2400       216
    30.2600       214
    30.2800       216
    30.3000       200
    30.3200       210
    30.3400       216
    30.3600       220
    30.3800       186
    30.4000       206
    30.4200       196
    30.4400       204
    30.4600       230
    30.4800       234
    30.5000       206
    30.5200       230
    30.5400       210
    30.5600       236
    30.5800       242
    30.6000       208
    30.6200       224
    30.6400       228
    30.6600       222
    30.6800       240
    30.7000       248
    30.7200       252
    30.7400       210
    30.7600       230
    30.7800       266
    30.8000       262
    30.8200       244
    30.8400       242
    30.8600       240
    30.8800       266
    30.9000       238
    30.9200       252
    30.9400       270
    30.9600       254
    30.9800       302
    31.0000       264
    31.0200       280
    31.0400       294
    31.0600       278
    31.0800       276
    31.1000       290
    31.1200       318
    31.1400       332
    31.1600       316
    31.1800       328
    31.2000       322
    31.2200       344
    31.2400       358
    31.2600       298
    31.2800       334
    31.3000       390
    31.3200       376
    31.3400       372
    31.3600       430
    31.3800       440
    31.4000       420
    31.4200       420
    31.4400       450
    31.4600       488
    31.4800       486
    31.5000       538
    31.5200       544
    31.5400       560
    31.5600       554
    31.5800       578
    31.6000       572
    31.6200       660
    31.6400       674
    31.6600       832
    31.6800       814
    31.7000       932
    31.7200      1012
    31.7400      1084
    31.7600      1174
    31.7800      1336
    31.8000      1610
    31.8200      1786
    31.8400      1992
    31.8600      2320
    31.8800      2630
    31.9000      3096
    31.9200      3402
    31.9400      3536
    31.9600      3706
    31.9800      3602
    32.0000      3336
    32.0200      3198
    32.0400      2900
    32.0600      2722
    32.0800      2410
    32.1000      2196
    32.1200      2060
    32.1400      1926
    32.1600      2054
    32.1800      2060
    32.2000      2082
    32.2200      2336
    32.2400      2402
    32.2600      2714
    32.2800      2996
    32.3000      3358
    32.3200      3886
    32.3400      4700
    32.3600      5336
    32.3800      6128
    32.4000      7058
    32.4200      8186
    32.4400      9218
    32.4600      9810
    32.4800     10250
    32.5000     10616
    32.5200     10102
    32.5400      9584
    32.5600      8752
    32.5800      7782
    32.6000      6848
    32.6200      5852
    32.6400      4836
    32.6600      4100
    32.6800      3426
    32.7000      2940
    32.7200      2668
    32.7400      2368
    32.7600      2140
    32.7800      1928
    32.8000      1856
    32.8200      1796
    32.8400      1748
    32.8600      1808
    32.8800      1854
    32.9000      1828
    32.9200      1896
    32.9400      2090
    32.9600      2112
    32.9800      2230
    33.0000      2372
    33.0200      2202
    33.0400      2158
    33.0600      2014
    33.0800      1824
    33.1000      1712
    33.1200      1538
    33.1400      1332
    33.1600      1234
    33.1800      1090
    33.2000      1048
    33.2200       940
    33.2400       924
    33.2600       844
    33.2800       816
    33.3000       772
    33.3200       734
    33.3400       612
    33.3600       610
    33.3800       564
    33.4000       510
    33.4200       444
    33.4400       444
    33.4600       404
    33.4800       454
    33.5000       392
    33.5200       384
    33.5400       358
    33.5600       360
    33.5800       332
    33.6000       356
    33.6200       326
    33.6400       364
    33.6600       352
    33.6800       294
    33.7000       300
    33.7200       296
    33.7400       308
    33.7600       320
    33.7800       294
    33.8000       282
    33.8200       308
    33.8400       304
    33.8600       308
    33.8800       286
    33.9000       292
    33.9200       302
    33.9400       336
    33.9600       310
    33.9800       302
    34.0000       286
    34.0200       336
    34.0400       334
    34.0600       310
    34.0800       298
    34.1000       294
    34.1200       352
    34.1400       350
    34.1600       348
    34.1800       406
    34.2000       392
    34.2200       396
    34.2400       412
    34.2600       428
    34.2800       438
    34.3000       418
    34.3200       470
    34.3400       432
    34.3600       396
    34.3800       420
    34.4000       444
    34.4200       384
    34.4400       398
    34.4600       366
    34.4800       392
    34.5000       376
    34.5200       342
    34.5400       338
    34.5600       374
    34.5800       318
    34.6000       328
    34.6200       368
    34.6400       314
    34.6600       298
    34.6800       312
    34.7000       286
    34.7200       326
    34.7400       284
    34.7600       340
    34.7800       272
    34.8000       244
    34.8200       264
    34.8400       266
    34.8600       290
    34.8800       264
    34.9000       302
    34.9200       262
    34.9400       268
    34.9600       274
    34.9800       300
    35.0000       254
    35.0200       244
    35.0400       260
    35.0600       292
    35.0800       276
    35.1000       280
    35.1200       256
    35.1400       284
    35.1600       272
    35.1800       292
    35.2000       296
    35.2200       290
    35.2400       284
    35.2600       290
    35.2800       278
    35.3000       266
    35.3200       280
    35.3400       288
    35.3600       334
    35.3800       304
    35.4000       274
    35.4200       316
    35.4400       328
    35.4600       314
    35.4800       336
    35.5000       340
    35.5200       356
    35.5400       362
    35.5600       386
    35.5800       376
    35.6000       422
    35.6200       462
    35.6400       516
    35.6600       512
    35.6800       526
    35.7000       598
    35.7200       578
    35.7400       588
    35.7600       582
    35.7800       576
    35.8000       556
    35.8200       540
    35.8400       534
    35.8600       540
    35.8800       526
    35.9000       594
    35.9200       548
    35.9400       600
    35.9600       610
    35.9800       640
    36.0000       698
    36.0200       754
    36.0400       820
    36.0600       872
    36.0800       940
    36.1000       858
    36.1200       938
    36.1400       808
    36.1600       820
    36.1800       810
    36.2000       730
    36.2200       716
    36.2400       614
    36.2600       600
    36.2800       574
    36.3000       510
    36.3200       524
    36.3400       538
    36.3600       518
    36.3800       496
    36.4000       502
    36.4200       502
    36.4400       546
    36.4600       500
    36.4800       540
    36.5000       634
    36.5200       668
    36.5400       676
    36.5600       784
    36.5800       804
    36.6000       882
    36.6200       966
    36.6400      1130
    36.6600      1212
    36.6800      1412
    36.7000      1674
    36.7200      1746
    36.7400      1912
    36.7600      2168
    36.7800      2238
    36.8000      2314
    36.8200      2304
    36.8400      2260
    36.8600      2182
    36.8800      1978
    36.9000      1950
    36.9200      1740
    36.9400      1614
    36.9600      1378
    36.9800      1280
    37.0000      1154
    37.0200      1090
    37.0400       940
    37.0600       888
    37.0800       864
    37.1000       878
    37.1200       814
    37.1400       742
    37.1600       734
    37.1800       712
    37.2000       764
    37.2200       658
    37.2400       652
    37.2600       630
    37.2800       614
    37.3000       606
    37.3200       576
    37.3400       562
    37.3600       510
    37.3800       610
    37.4000       580
    37.4200       512
    37.4400       506
    37.4600       534
    37.4800       488
    37.5000       516
    37.5200       558
    37.5400       514
    37.5600       580
    37.5800       522
    37.6000       610
    37.6200       548
    37.6400       658
    37.6600       680
    37.6800       696
    37.7000       742
    37.7200       802
    37.7400       850
    37.7600      1000
    37.7800      1040
    37.8000      1188
    37.8200      1288
    37.8400      1528
    37.8600      1638
    37.8800      1850
    37.9000      2064
    37.9200      2246
    37.9400      2516
    37.9600      2548
    37.9800      2632
    38.0000      2494
    38.0200      2392
    38.0400      2316
    38.0600      2180
    38.0800      2124
    38.1000      1968
    38.1200      1984
    38.1400      1946
    38.1600      1864
    38.1800      2008
    38.2000      2102
    38.2200      2208
    38.2400      2314
    38.2600      2592
    38.2800      2766
    38.3000      3198
    38.3200      3566
    38.3400      3882
    38.3600      4474
    38.3800      4744
    38.4000      4970
    38.4200      5168
    38.4400      5262
    38.4600      5268
    38.4800      5248
    38.5000      5064
    38.5200      5068
    38.5400      4978
    38.5600      5202
    38.5800      4872
    38.6000      4784
    38.6200      4790
    38.6400      4828
    38.6600      4732
    38.6800      4618
    38.7000      4332
    38.7200      4214
    38.7400      3978
    38.7600      3802
    38.7800      3620
    38.8000      3374
    38.8200      2900
    38.8400      2844
    38.8600      2650
    38.8800      2412
    38.9000      2268
    38.9200      2016
    38.9400      1882
    38.9600      1656
    38.9800      1592
    39.0000      1452
    39.0200      1288
    39.0400      1284
    39.0600      1146
    39.0800      1074
    39.1000       986
    39.1200       938
    39.1400       928
    39.1600       882
    39.1800       844
    39.2000       868
    39.2200       788
    39.2400       804
    39.2600       758
    39.2800       784
    39.3000       824
    39.3200       830
    39.3400       932
    39.3600       968
    39.3800       976
    39.4000       998
    39.4200      1122
    39.4400      1154
    39.4600      1334
    39.4800      1486
    39.5000      1674
    39.5200      1826
    39.5400      2056
    39.5600      2272
    39.5800      2552
    39.6000      2870
    39.6200      3098
    39.6400      3156
    39.6600      3048
    39.6800      2780
    39.7000      2746
    39.7200      2448
    39.7400      2316
    39.7600      2014
    39.7800      1808
    39.8000      1650
    39.8200      1412
    39.8400      1232
    39.8600      1078
    39.8800       968
    39.9000       888
    39.9200       828
    39.9400       844
    39.9600       754
    39.9800       670
    40.0000       700
    40.0200       712
    40.0400       778
    40.0600       642
    40.0800       678
    40.1000       636
    40.1200       638
    40.1400       624
    40.1600       648
    40.1800       694
    40.2000       666
    40.2200       658
    40.2400       722
    40.2600       700
    40.2800       754
    40.3000       836
    40.3200       874
    40.3400       984
    40.3600      1130
    40.3800      1190
    40.4000      1306
    40.4200      1468
    40.4400      1572
    40.4600      1606
    40.4800      1652
    40.5000      1690
    40.5200      1760
    40.5400      1644
    40.5600      1624
    40.5800      1458
    40.6000      1492
    40.6200      1266
    40.6400      1202
    40.6600      1084
    40.6800      1016
    40.7000       870
    40.7200       766
    40.7400       722
    40.7600       688
    40.7800       592
    40.8000       584
    40.8200       520
    40.8400       524
    40.8600       508
    40.8800       514
    40.9000       450
    40.9200       470
    40.9400       474
    40.9600       430
    40.9800       440
    41.0000       424
    41.0200       434
    41.0400       402
    41.0600       374
    41.0800       350
    41.1000       384
    41.1200       370
    41.1400       398
    41.1600       396
    41.1800       348
    41.2000       366
    41.2200       366
    41.2400       360
    41.2600       426
    41.2800       412
    41.3000       446
    41.3200       424
    41.3400       430
    41.3600       450
    41.3800       418
    41.4000       486
    41.4200       462
    41.4400       520
    41.4600       522
    41.4800       586
    41.5000       560
    41.5200       634
    41.5400       676
    41.5600       744
    41.5800       780
    41.6000       830
    41.6200       888
    41.6400      1018
    41.6600      1102
    41.6800      1220
    41.7000      1436
    41.7200      1604
    41.7400      1718
    41.7600      1996
    41.7800      1986
    41.8000      2126
    41.8200      2118
    41.8400      2048
    41.8600      2064
    41.8800      1936
    41.9000      1746
    41.9200      1670
    41.9400      1518
    41.9600      1318
    41.9800      1236
    42.0000      1108
    42.0200       998
    42.0400       870
    42.0600       800
    42.0800       744
    42.1000       772
    42.1200       704
    42.1400       638
    42.1600       670
    42.1800       646
    42.2000       572
    42.2200       564
    42.2400       532
    42.2600       560
    42.2800       516
    42.3000       494
    42.3200       484
    42.3400       480
    42.3600       482
    42.3800       438
    42.4000       412
    42.4200       418
    42.4400       432
    42.4600       400
    42.4800       416
    42.5000       412
    42.5200       416
    42.5400       422
    42.5600       400
    42.5800       418
    42.6000       380
    42.6200       416
    42.6400       434
    42.6600       452
    42.6800       436
    42.7000       458
    42.7200       464
    42.7400       474
    42.7600       504
    42.7800       534
    42.8000       542
    42.8200       598
    42.8400       588
    42.8600       644
    42.8800       716
    42.9000       768
    42.9200       834
    42.9400       892
    42.9600      1004
    42.9800      1076
    43.0000      1220
    43.0200      1422
    43.0400      1634
    43.0600      1664
    43.0800      1864
    43.1000      2074
    43.1200      2064
    43.1400      2070
    43.1600      2008
    43.1800      1966
    43.2000      1886
    43.2200      1666
    43.2400      1658
    43.2600      1550
    43.2800      1416
    43.3000      1196
    43.3200      1120
    43.3400      1008
    43.3600       870
    43.3800       852
    43.4000       740
    43.4200       728
    43.4400       714
    43.4600       666
    43.4800       574
    43.5000       642
    43.5200       572
    43.5400       646
    43.5600       594
    43.5800       670
    43.6000       644
    43.6200       694
    43.6400       746
    43.6600       698
    43.6800       822
    43.7000       816
    43.7200       820
    43.7400       848
    43.7600       794
    43.7800       788
    43.8000       794
    43.8200       732
    43.8400       714
    43.8600       640
    43.8800       632
    43.9000       646
    43.9200       582
    43.9400       554
    43.9600       510
    43.9800       506
    44.0000       508
    44.0200       482
    44.0400       424
    44.0600       428
    44.0800       378
    44.1000       412
    44.1200       392
    44.1400       440
    44.1600       362
    44.1800       406
    44.2000       408
    44.2200       410
    44.2400       374
    44.2600       394
    44.2800       402
    44.3000       416
    44.3200       420
    44.3400       414
    44.3600       444
    44.3800       400
    44.4000       396
    44.4200       404
    44.4400       368
    44.4600       390
    44.4800       390
    44.5000       354
    44.5200       356
    44.5400       344
    44.5600       360
    44.5800       350
    44.6000       374
    44.6200       336
    44.6400       378
    44.6600       370
    44.6800       340
    44.7000       408
    44.7200       326
    44.7400       348
    44.7600       346
    44.7800       336
    44.8000       394
    44.8200       410
    44.8400       362
    44.8600       350
    44.8800       388
    44.9000       404
    44.9200       362
    44.9400       386
    44.9600       402
    44.9800       348
    45.0000       394
    45.0200       410
    45.0400       384
    45.0600       400
    45.0800       380
    45.1000       362
    45.1200       386
    45.1400       412
    45.1600       386
    45.1800       418
    45.2000       350
    45.2200       382
    45.2400       426
    45.2600       416
    45.2800       404
    45.3000       396
    45.3200       448
    45.3400       398
    45.3600       380
    45.3800       428
    45.4000       428
    45.4200       438
    45.4400       438
    45.4600       454
    45.4800       462
    45.5000       434
    45.5200       484
    45.5400       572
    45.5600       472
    45.5800       468
    45.6000       520
    45.6200       512
    45.6400       542
    45.6600       564
    45.6800       542
    45.7000       596
    45.7200       588
    45.7400       632
    45.7600       658
    45.7800       722
    45.8000       710
    45.8200       658
    45.8400       748
    45.8600       756
    45.8800       778
    45.9000       790
    45.9200       816
    45.9400       818
    45.9600       802
    45.9800       746
    46.0000       806
    46.0200       858
    46.0400       884
    46.0600       870
    46.0800       906
    46.1000       964
    46.1200       948
    46.1400      1046
    46.1600      1082
    46.1800      1122
    46.2000      1288
    46.2200      1310
    46.2400      1450
    46.2600      1556
    46.2800      1712
    46.3000      1868
    46.3200      2074
    46.3400      2362
    46.3600      2520
    46.3800      2928
    46.4000      3286
    46.4200      3580
    46.4400      3988
    46.4600      4872
    46.4800      5334
    46.5000      6322
    46.5200      7192
    46.5400      7792
    46.5600      8916
    46.5800      9540
    46.6000      9896
    46.6200     10210
    46.6400     10184
    46.6600      9832
    46.6800      9456
    46.7000      8930
    46.7200      8500
    46.7400      8046
    46.7600      7430
    46.7800      7022
    46.8000      6390
    46.8200      5856
    46.8400      5414
    46.8600      5192
    46.8800      4966
    46.9000      4940
    46.9200      4868
    46.9400      4882
    46.9600      4862
    46.9800      4702
    47.0000      4496
    47.0200      4522
    47.0400      4204
    47.0600      3948
    47.0800      3662
    47.1000      3418
    47.1200      3192
    47.1400      2908
    47.1600      2496
    47.1800      2348
    47.2000      2134
    47.2200      1908
    47.2400      1634
    47.2600      1502
    47.2800      1364
    47.3000      1206
    47.3200      1148
    47.3400      1052
    47.3600      1034
    47.3800       950
    47.4000       940
    47.4200       894
    47.4400       836
    47.4600       784
    47.4800       764
    47.5000       786
    47.5200       732
    47.5400       724
    47.5600       730
    47.5800       744
    47.6000       738
    47.6200       764
    47.6400       772
    47.6600       806
    47.6800       900
    47.7000       870
    47.7200       918
    47.7400       958
    47.7600       968
    47.7800       990
    47.8000       958
    47.8200       898
    47.8400       892
    47.8600       850
    47.8800       842
    47.9000       872
    47.9200       796
    47.9400       830
    47.9600       796
    47.9800       792
    48.0000       754
    48.0200       884
    48.0400       860
    48.0600       868
    48.0800       896
    48.1000       916
    48.1200       934
    48.1400       918
    48.1600       912
    48.1800       824
    48.2000       798
    48.2200       770
    48.2400       796
    48.2600       664
    48.2800       684
    48.3000       658
    48.3200       562
    48.3400       560
    48.3600       532
    48.3800       466
    48.4000       496
    48.4200       404
    48.4400       440
    48.4600       412
    48.4800       366
    48.5000       368
    48.5200       368
    48.5400       364
    48.5600       358
    48.5800       336
    48.6000       326
    48.6200       290
    48.6400       322
    48.6600       346
    48.6800       320
    48.7000       306
    48.7200       310
    48.7400       316
    48.7600       298
    48.7800       316
    48.8000       352
    48.8200       288
    48.8400       302
    48.8600       280
    48.8800       292
    48.9000       282
    48.9200       290
    48.9400       282
    48.9600       254
    48.9800       264
    49.0000       252
    49.0200       276
    49.0400       270
    49.0600       306
    49.0800       274
    49.1000       254
    49.1200       248
    49.1400       278
    49.1600       258
    49.1800       262
    49.2000       298
    49.2200       256
    49.2400       282
    49.2600       256
    49.2800       276
    49.3000       270
    49.3200       270
    49.3400       294
    49.3600       272
    49.3800       270
    49.4000       312
    49.4200       276
    49.4400       272
    49.4600       296
    49.4800       318
    49.5000       254
    49.5200       300
    49.5400       316
    49.5600       298
    49.5800       306
    49.6000       288
    49.6200       288
    49.6400       276
    49.6600       294
    49.6800       288
    49.7000       274
    49.7200       254
    49.7400       302
    49.7600       286
    49.7800       256
    49.8000       280
    49.8200       272
    49.8400       318
    49.8600       280
    49.8800       298
    49.9000       268
    49.9200       238
    49.9400       258
    49.9600       252
    49.9800       264
    50.0000       268
    50.0200       306
    50.0400       328
    50.0600       302
    50.0800       294
    50.1000       300
    50.1200       262
    50.1400       262
    50.1600       264
    50.1800       296
    50.2000       312
    50.2200       342
    50.2400       318
    50.2600       330
    50.2800       342
    50.3000       348
    50.3200       324
    50.3400       286
    50.3600       338
    50.3800       290
    50.4000       330
    50.4200       324
    50.4400       360
    50.4600       342
    50.4800       352
    50.5000       326
    50.5200       360
    50.5400       354
    50.5600       388
    50.5800       404
    50.6000       398
    50.6200       478
    50.6400       464
    50.6600       446
    50.6800       544
    50.7000       558
    50.7200       574
    50.7400       624
    50.7600       674
    50.7800       714
    50.8000       746
    50.8200       774
    50.8400       758
    50.8600       788
    50.8800       786
    50.9000       766
    50.9200       752
    50.9400       674
    50.9600       704
    50.9800       668
    51.0000       650
    51.0200       630
    51.0400       574
    51.0600       568
    51.0800       580
    51.1000       592
    51.1200       530
    51.1400       572
    51.1600       592
    51.1800       544
    51.2000       578
    51.2200       574
    51.2400       676
    51.2600       666
    51.2800       724
    51.3000       730
    51.3200       724
    51.3400       720
    51.3600       688
    51.3800       678
    51.4000       696
    51.4200       700
    51.4400       726
    51.4600       670
    51.4800       700
    51.5000       670
    51.5200       632
    51.5400       650
    51.5600       696
    51.5800       666
    51.6000       734
    51.6200       748
    51.6400       758
    51.6600       776
    51.6800       898
    51.7000       970
    51.7200       994
    51.7400      1046
    51.7600      1132
    51.7800      1142
    51.8000      1210
    51.8200      1118
    51.8400      1112
    51.8600      1084
    51.8800      1078
    51.9000      1066
    51.9200      1062
    51.9400      1048
    51.9600      1042
    51.9800       954
    52.0000       910
    52.0200       828
    52.0400       766
    52.0600       792
    52.0800       748
    52.1000       742
    52.1200       662
    52.1400       724
    52.1600       668
    52.1800       646
    52.2000       678
    52.2200       694
    52.2400       796
    52.2600       728
    52.2800       808
    52.3000       862
    52.3200       908
    52.3400      1004
    52.3600      1090
    52.3800      1174
    52.4000      1288
    52.4200      1312
    52.4400      1394
    52.4600      1500
    52.4800      1564
    52.5000      1502
    52.5200      1630
    52.5400      1588
    52.5600      1526
    52.5800      1464
    52.6000      1422
    52.6200      1404
    52.6400      1320
    52.6600      1274
    52.6800      1230
    52.7000      1108
    52.7200      1010
    52.7400       976
    52.7600       974
    52.7800       874
    52.8000       938
    52.8200       864
    52.8400       784
    52.8600       776
    52.8800       868
    52.9000       790
    52.9200       850
    52.9400       816
    52.9600       934
    52.9800       988
    53.0000      1004
    53.0200      1076
    53.0400      1146
    53.0600      1242
    53.0800      1356
    53.1000      1474
    53.1200      1662
    53.1400      1832
    53.1600      1806
    53.1800      2022
    53.2000      1912
    53.2200      1950
    53.2400      1852
    53.2600      1772
    53.2800      1688
    53.3000      1644
    53.3200      1554
    53.3400      1476
    53.3600      1400
    53.3800      1262
    53.4000      1162
    53.4200       992
    53.4400       938
    53.4600       792
    53.4800       792
    53.5000       680
    53.5200       644
    53.5400       536
    53.5600       580
    53.5800       528
    53.6000       514
    53.6200       454
    53.6400       458
    53.6600       456
    53.6800       402
    53.7000       418
    53.7200       392
    53.7400       388
    53.7600       418
    53.7800       362
    53.8000       356
    53.8200       340
    53.8400       344
    53.8600       328
    53.8800       302
    53.9000       336
    53.9200       324
    53.9400       364
    53.9600       338
    53.9800       310
    54.0000       280
    54.0200       314
    54.0400       326
    54.0600       316
    54.0800       320
    54.1000       310
    54.1200       318
    54.1400       334
    54.1600       336
    54.1800       338
    54.2000       340
    54.2200       354
    54.2400       366
    54.2600       362
    54.2800       372
    54.3000       404
    54.3200       430
    54.3400       458
    54.3600       480
    54.3800       478
    54.4000       534
    54.4200       596
    54.4400       566
    54.4600       668
    54.4800       674
    54.5000       712
    54.5200       794
    54.5400       816
    54.5600       836
    54.5800       876
    54.6000       822
    54.6200       866
    54.6400       896
    54.6600       890
    54.6800       800
    54.7000       774
    54.7200       706
    54.7400       746
    54.7600       724
    54.7800       652
    54.8000       590
    54.8200       580
    54.8400       512
    54.8600       546
    54.8800       530
    54.9000       482
    54.9200       440
    54.9400       444
    54.9600       412
    54.9800       420
    55.0000       378
    55.0200       354
    55.0400       382
    55.0600       358
    55.0800       378
    55.1000       390
    55.1200       406
    55.1400       358
    55.1600       344
    55.1800       330
    55.2000       352
    55.2200       368
    55.2400       396
    55.2600       358
    55.2800       412
    55.3000       394
    55.3200       418
    55.3400       438
    55.3600       454
    55.3800       474
    55.4000       486
    55.4200       520
    55.4400       546
    55.4600       564
    55.4800       586
    55.5000       654
    55.5200       696
    55.5400       684
    55.5600       768
    55.5800       746
    55.6000       904
    55.6200       964
    55.6400      1020
    55.6600      1016
    55.6800      1110
    55.7000      1202
    55.7200      1262
    55.7400      1320
    55.7600      1326
    55.7800      1314
    55.8000      1308
    55.8200      1190
    55.8400      1230
    55.8600      1188
    55.8800      1138
    55.9000      1140
    55.9200      1100
    55.9400      1036
    55.9600      1034
    55.9800      1012
    56.0000       918
    56.0200       970
    56.0400       932
    56.0600       896
    56.0800       814
    56.1000       866
    56.1200       804
    56.1400       812
    56.1600       742
    56.1800       762
    56.2000       720
    56.2200       722
    56.2400       670
    56.2600       580
    56.2800       570
    56.3000       554
    56.3200       538
    56.3400       502
    56.3600       508
    56.3800       480
    56.4000       480
    56.4200       458
    56.4400       454
    56.4600       450
    56.4800       452
    56.5000       422
    56.5200       430
    56.5400       406
    56.5600       418
    56.5800       404
    56.6000       406
    56.6200       482
    56.6400       438
    56.6600       440
    56.6800       458
    56.7000       444
    56.7200       454
    56.7400       464
    56.7600       496
    56.7800       462
    56.8000       496
    56.8200       498
    56.8400       522
    56.8600       570
    56.8800       584
    56.9000       598
    56.9200       584
    56.9400       656
    56.9600       644
    56.9800       738
    57.0000       774
    57.0200       774
    57.0400       854
    57.0600       862
    57.0800       884
    57.1000      1006
    57.1200      1102
    57.1400      1154
    57.1600      1364
    57.1800      1430
    57.2000      1596
    57.2200      1716
    57.2400      1856
    57.2600      1936
    57.2800      1988
    57.3000      2050
    57.3200      2034
    57.3400      2076
    57.3600      2038
    57.3800      1930
    57.4000      1982
    57.4200      1992
    57.4400      1992
    57.4600      1904
    57.4800      1894
    57.5000      1974
    57.5200      1972
    57.5400      1936
    57.5600      1926
    57.5800      1998
    57.6000      2168
    57.6200      2142
    57.6400      2058
    57.6600      2116
    57.6800      1988
    57.7000      1960
    57.7200      1826
    57.7400      1928
    57.7600      1732
    57.7800      1774
    57.8000      1648
    57.8200      1592
    57.8400      1502
    57.8600      1360
    57.8800      1308
    57.9000      1296
    57.9200      1190
    57.9400      1100
    57.9600      1150
    57.9800      1054
    58.0000      1088
    58.0200      1054
    58.0400      1106
    58.0600      1120
    58.0800      1162
    58.1000      1184
    58.1200      1206
    58.1400      1310
    58.1600      1342
    58.1800      1514
    58.2000      1558
    58.2200      1640
    58.2400      1762
    58.2600      1886
    58.2800      2020
    58.3000      2186
    58.3200      2318
    58.3400      2460
    58.3600      2570
    58.3800      2586
    58.4000      2810
    58.4200      2838
    58.4400      2956
    58.4600      2988
    58.4800      3050
    58.5000      3398
    58.5200      3582
    58.5400      3610
    58.5600      3718
    58.5800      3866
    58.6000      3780
    58.6200      3762
    58.6400      3698
    58.6600      3574
    58.6800      3486
    58.7000      3310
    58.7200      3148
    58.7400      2954
    58.7600      3002
    58.7800      2752
    58.8000      2534
    58.8200      2354
    58.8400      2338
    58.8600      2088
    58.8800      1858
    58.9000      1674
    58.9200      1540
    58.9400      1478
    58.9600      1344
    58.9800      1204
    59.0000      1114
    59.0200      1066
    59.0400      1002
    59.0600       968
    59.0800       824
    59.1000       820
    59.1200       792
    59.1400       788
    59.1600       702
    59.1800       694
    59.2000       620
    59.2200       624
    59.2400       576
    59.2600       602
    59.2800       600
    59.3000       602
    59.3200       518
    59.3400       550
    59.3600       556
    59.3800       474
    59.4000       482
    59.4200       488
    59.4400       470
    59.4600       450
    59.4800       462
    59.5000       410
    59.5200       396
    59.5400       408
    59.5600       420
    59.5800       422
    59.6000       390
    59.6200       378
    59.6400       364
    59.6600       350
    59.6800       350
    59.7000       384
    59.7200       348
    59.7400       332
    59.7600       342
    59.7800       360
    59.8000       312
    59.8200       326
    59.8400       298
    59.8600       318
    59.8800       294
    59.9000       330
    59.9200       328
    59.9400       302
    59.9600       336
    59.9800       342
    60.0000       302
    60.0200       332
    60.0400       338
    60.0600       322
    60.0800       300
    60.1000       316
    60.1200       316
    60.1400       322
    60.1600       310
    60.1800       294
    60.2000       286
    60.2200       328
    60.2400       300
    60.2600       344
    60.2800       326
    60.3000       286
    60.3200       302
    60.3400       284
    60.3600       298
    60.3800       302
    60.4000       312
    60.4200       280
    60.4400       302
    60.4600       302
    60.4800       304
    60.5000       330
    60.5200       306
    60.5400       320
    60.5600       302
    60.5800       292
    60.6000       326
    60.6200       342
    60.6400       328
    60.6600       358
    60.6800       360
    60.7000       366
    60.7200       354
    60.7400       360
    60.7600       394
    60.7800       370
    60.8000       382
    60.8200       422
    60.8400       374
    60.8600       434
    60.8800       472
    60.9000       508
    60.9200       474
    60.9400       470
    60.9600       524
    60.9800       540
    61.0000       538
    61.0200       496
    61.0400       514
    61.0600       478
    61.0800       550
    61.1000       532
    61.1200       496
    61.1400       482
    61.1600       524
    61.1800       480
    61.2000       516
    61.2200       478
    61.2400       542
    61.2600       496
    61.2800       496
    61.3000       552
    61.3200       526
    61.3400       574
    61.3600       580
    61.3800       548
    61.4000       582
    61.4200       568
    61.4400       604
    61.4600       590
    61.4800       606
    61.5000       554
    61.5200       570
    61.5400       578
    61.5600       570
    61.5800       554
    61.6000       544
    61.6200       598
    61.6400       508
    61.6600       578
    61.6800       530
    61.7000       532
    61.7200       572
    61.7400       608
    61.7600       590
    61.7800       616
    61.8000       564
    61.8200       582
    61.8400       576
    61.8600       576
    61.8800       610
    61.9000       620
    61.9200       638
    61.9400       626
    61.9600       634
    61.9800       630
    62.0000       642
    62.0200       634
    62.0400       584
    62.0600       612
    62.0800       592
    62.1000       584
    62.1200       518
    62.1400       572
    62.1600       594
    62.1800       534
    62.2000       546
    62.2200       500
    62.2400       522
    62.2600       492
    62.2800       478
    62.3000       490
    62.3200       494
    62.3400       490
    62.3600       418
    62.3800       436
    62.4000       422
    62.4200       408
    62.4400       388
    62.4600       350
    62.4800       406
    62.5000       334
    62.5200       382
    62.5400       350
    62.5600       336
    62.5800       328
    62.6000       310
    62.6200       294
    62.6400       276
    62.6600       302
    62.6800       280
    62.7000       276
    62.7200       278
    62.7400       264
    62.7600       270
    62.7800       272
    62.8000       254
    62.8200       268
    62.8400       236
    62.8600       232
    62.8800       276
    62.9000       258
    62.9200       240
    62.9400       254
    62.9600       220
    62.9800       238
    63.0000       228
    63.0200       250
    63.0400       232
    63.0600       234
    63.0800       218
    63.1000       242
    63.1200       246
    63.1400       272
    63.1600       244
    63.1800       230
    63.2000       254
    63.2200       260
    63.2400       248
    63.2600       260
    63.2800       250
    63.3000       238
    63.3200       244
    63.3400       252
    63.3600       270
    63.3800       280
    63.4000       236
    63.4200       274
    63.4400       310
    63.4600       310
    63.4800       276
    63.5000       246
    63.5200       312
    63.5400       310
    63.5600       318
    63.5800       376
    63.6000       320
    63.6200       410
    63.6400       412
    63.6600       460
    63.6800       426
    63.7000       478
    63.7200       494
    63.7400       460
    63.7600       508
    63.7800       512
    63.8000       454
    63.8200       460
    63.8400       444
    63.8600       450
    63.8800       408
    63.9000       436
    63.9200       414
    63.9400       430
    63.9600       412
    63.9800       362
    64.0000       360
    64.0200       364
    64.0400       294
    64.0600       304
    64.0800       298
    64.1000       336
    64.1200       286
    64.1400       268
    64.1600       250
    64.1800       250
    64.2000       230
    64.2200       232
    64.2400       240
    64.2600       240
    64.2800       256
    64.3000       234
    64.3200       254
    64.3400       268
    64.3600       268
    64.3800       236
    64.4000       242
    64.4200       224
    64.4400       248
    64.4600       274
    64.4800       244
    64.5000       266
    64.5200       208
    64.5400       266
    64.5600       236
    64.5800       240
    64.6000       284
    64.6200       244
    64.6400       238
    64.6600       268
    64.6800       254
    64.7000       276
    64.7200       282
    64.7400       274
    64.7600       254
    64.7800       250
    64.8000       272
    64.8200       284
    64.8400       280
    64.8600       302
    64.8800       322
    64.9000       270
    64.9200       322
    64.9400       318
    64.9600       306
    64.9800       378
    65.0000       390
    65.0200       386
    65.0400       406
    65.0600       380
    65.0800       398
    65.1000       366
    65.1200       440
    65.1400       420
    65.1600       444
    65.1800       472
    65.2000       436
    65.2200       446
    65.2400       464
    65.2600       440
    65.2800       446
    65.3000       420
    65.3200       418
    65.3400       418
    65.3600       428
    65.3800       408
    65.4000       386
    65.4200       362
    65.4400       360
    65.4600       332
    65.4800       322
    65.5000       328
    65.5200       340
    65.5400       302
    65.5600       290
    65.5800       322
    65.6000       298
    65.6200       298
    65.6400       278
    65.6600       266
    65.6800       314
    65.7000       274
    65.7200       274
    65.7400       270
    65.7600       250
    65.7800       242
    65.8000       270
    65.8200       264
    65.8400       264
    65.8600       294
    65.8800       258
    65.9000       316
    65.9200       296
    65.9400       304
    65.9600       294
    65.9800       292
    66.0000       284
    66.0200       282
    66.0400       264
    66.0600       318
    66.0800       290
    66.1000       282
    66.1200       266
    66.1400       284
    66.1600       308
    66.1800       296
    66.2000       296
    66.2200       298
    66.2400       298
    66.2600       312
    66.2800       320
    66.3000       340
    66.3200       316
    66.3400       316
    66.3600       344
    66.3800       366
    66.4000       386
    66.4200       396
    66.4400       424
    66.4600       408
    66.4800       386
    66.5000       448
    66.5200       462
    66.5400       480
    66.5600       502
    66.5800       604
    66.6000       610
    66.6200       650
    66.6400       720
    66.6600       768
    66.6800       778
    66.7000       872
    66.7200       892
    66.7400       994
    66.7600       922
    66.7800       996
    66.8000       908
    66.8200       988
    66.8400       900
    66.8600       912
    66.8800       940
    66.9000       846
    66.9200       852
    66.9400       826
    66.9600       850
    66.9800       768
    67.0000       736
    67.0200       714
    67.0400       704
    67.0600       656
    67.0800       664
    67.1000       574
    67.1200       608
    67.1400       578
    67.1600       554
    67.1800       490
    67.2000       526
    67.2200       520
    67.2400       498
    67.2600       492
    67.2800       460
    67.3000       496
    67.3200       450
    67.3400       442
    67.3600       436
    67.3800       416
    67.4000       432
    67.4200       444
    67.4400       476
    67.4600       430
    67.4800       426
    67.5000       438
    67.5200       418
    67.5400       414
    67.5600       394
    67.5800       432
    67.6000       434
    67.6200       526
    67.6400       462
    67.6600       502
    67.6800       580
    67.7000       522
    67.7200       650
    67.7400       634
    67.7600       670
    67.7800       608
    67.8000       720
    67.8200       800
    67.8400       838
    67.8600       916
    67.8800       940
    67.9000      1062
    67.9200      1100
    67.9400      1194
    67.9600      1190
    67.9800      1368
    68.0000      1286
    68.0200      1428
    68.0400      1500
    68.0600      1452
    68.0800      1406
    68.1000      1382
    68.1200      1504
    68.1400      1360
    68.1600      1338
    68.1800      1244
    68.2000      1198
    68.2200      1210
    68.2400      1148
    68.2600      1084
    68.2800      1068
    68.3000       952
    68.3200       896
    68.3400       874
    68.3600       852
    68.3800       840
    68.4000       792
    68.4200       744
    68.4400       718
    68.4600       692
    68.4800       686
    68.5000       638
    68.5200       652
    68.5400       664
    68.5600       692
    68.5800       696
    68.6000       654
    68.6200       698
    68.6400       668
    68.6600       622
    68.6800       604
    68.7000       576
    68.7200       646
    68.7400       580
    68.7600       586
    68.7800       554
    68.8000       536
    68.8200       524
    68.8400       594
    68.8600       526
    68.8800       514
    68.9000       504
    68.9200       482
    68.9400       450
    68.9600       506
    68.9800       442
    69.0000       460
    69.0200       448
    69.0400       494
    69.0600       452
    69.0800       476
    69.1000       478
    69.1200       494
    69.1400       502
    69.1600       572
    69.1800       574
    69.2000       582
    69.2200       596
    69.2400       596
    69.2600       604
    69.2800       646
    69.3000       602
    69.3200       578
    69.3400       570
    69.3600       520
    69.3800       618
    69.4000       560
    69.4200       556
    69.4400       536
    69.4600       514
    69.4800       506
    69.5000       464
    69.5200       454
    69.5400       448
    69.5600       418
    69.5800       438
    69.6000       364
    69.6200       352
    69.6400       368
    69.6600       360
    69.6800       330
    69.7000       324
    69.7200       372
    69.7400       346
    69.7600       338
    69.7800       314
    69.8000       332
    69.8200       328
    69.8400       350
    69.8600       340
    69.8800       338
    69.9000       296
    69.9200       298
    69.9400       314
    69.9600       296
    69.9800       316
    70.0000       296
    70.0200       288
    70.0400       290
    70.0600       280
    70.0800       260
    70.1000       300
    70.1200       310
    70.1400       288
    70.1600       306
    70.1800       276
    70.2000       286
    70.2200       302
    70.2400       286
    70.2600       288
    70.2800       300
    70.3000       294
    70.3200       306
    70.3400       308
    70.3600       322
    70.3800       324
    70.4000       340
    70.4200       340
    70.4400       310
    70.4600       330
    70.4800       336
    70.5000       318
    70.5200       344
    70.5400       326
    70.5600       310
    70.5800       322
    70.6000       310
    70.6200       302
    70.6400       278
    70.6600       282
    70.6800       312
    70.7000       280
    70.7200       270
    70.7400       290
    70.7600       302
    70.7800       310
    70.8000       248
    70.8200       282
    70.8400       294
    70.8600       304
    70.8800       270
    70.9000       282
    70.9200       264
    70.9400       300
    70.9600       264
    70.9800       294
    71.0000       322
    71.0200       306
    71.0400       334
    71.0600       334
    71.0800       360
    71.1000       400
    71.1200       412
    71.1400       430
    71.1600       426
    71.1800       472
    71.2000       464
    71.2200       516
    71.2400       540
    71.2600       574
    71.2800       588
    71.3000       636
    71.3200       654
    71.3400       676
    71.3600       704
    71.3800       684
    71.4000       732
    71.4200       694
    71.4400       728
    71.4600       666
    71.4800       726
    71.5000       718
    71.5200       706
    71.5400       734
    71.5600       654
    71.5800       656
    71.6000       646
    71.6200       626
    71.6400       670
    71.6600       624
    71.6800       616
    71.7000       596
    71.7200       606
    71.7400       552
    71.7600       518
    71.7800       564
    71.8000       560
    71.8200       544
    71.8400       524
    71.8600       508
    71.8800       500
    71.9000       492
    71.9200       494
    71.9400       482
    71.9600       516
    71.9800       522
    72.0000       472
    72.0200       478
    72.0400       512
    72.0600       578
    72.0800       486
    72.1000       502
    72.1200       526
    72.1400       526
    72.1600       506
    72.1800       514
    72.2000       516
    72.2200       488
    72.2400       506
    72.2600       528
    72.2800       472
    72.3000       460
    72.3200       482
    72.3400       442
    72.3600       444
    72.3800       480
    72.4000       384
    72.4200       396
    72.4400       422
    72.4600       372
    72.4800       416
    72.5000       346
    72.5200       390
    72.5400       344
    72.5600       328
    72.5800       382
    72.6000       332
    72.6200       316
    72.6400       316
    72.6600       326
    72.6800       340
    72.7000       352
    72.7200       336
    72.7400       296
    72.7600       322
    72.7800       324
    72.8000       286
    72.8200       288
    72.8400       296
    72.8600       290
    72.8800       290
    72.9000       298
    72.9200       264
    72.9400       292
    72.9600       242
    72.9800       244
    73.0000       272
    73.0200       252
    73.0400       254
    73.0600       220
    73.0800       252
    73.1000       246
    73.1200       230
    73.1400       222
    73.1600       230
    73.1800       228
    73.2000       198
    73.2200       214
    73.2400       222
    73.2600       226
    73.2800       188
    73.3000       202
    73.3200       210
    73.3400       218
    73.3600       214
    73.3800       206
    73.4000       222
    73.4200       228
    73.4400       204
    73.4600       220
    73.4800       218
    73.5000       214
    73.5200       220
    73.5400       210
    73.5600       214
    73.5800       200
    73.6000       214
    73.6200       222
    73.6400       236
    73.6600       234
    73.6800       210
    73.7000       232
    73.7200       236
    73.7400       230
    73.7600       230
    73.7800       228
    73.8000       248
    73.8200       262
    73.8400       244
    73.8600       260
    73.8800       298
    73.9000       292
    73.9200       246
    73.9400       282
    73.9600       286
    73.9800       272
    74.0000       300
    74.0200       288
    74.0400       286
    74.0600       268
    74.0800       282
    74.1000       294
    74.1200       224
    74.1400       296
    74.1600       258
    74.1800       256
    74.2000       244
    74.2200       258
    74.2400       256
    74.2600       268
    74.2800       232
    74.3000       226
    74.3200       218
    74.3400       216
    74.3600       216
    74.3800       216
    74.4000       218
    74.4200       180
    74.4400       182
    74.4600       186
    74.4800       198
    74.5000       196
    74.5200       182
    74.5400       190
    74.5600       224
    74.5800       196
    74.6000       194
    74.6200       204
    74.6400       220
    74.6600       174
    74.6800       220
    74.7000       216
    74.7200       180
    74.7400       208
    74.7600       180
    74.7800       184
    74.8000       178
    74.8200       198
    74.8400       186
    74.8600       192
    74.8800       188
    74.9000       200
    74.9200       198
    74.9400       210
    74.9600       194
    74.9800       188
    75.0000       208
    75.0200       198
    75.0400       190
    75.0600       222
    75.0800       218
    75.1000       222
    75.1200       222
    75.1400       206
    75.1600       220
    75.1800       198
    75.2000       208
    75.2200       230
    75.2400       210
    75.2600       190
    75.2800       218
    75.3000       212
    75.3200       210
    75.3400       244
    75.3600       212
    75.3800       240
    75.4000       248
    75.4200       240
    75.4400       254
    75.4600       252
    75.4800       228
    75.5000       310
    75.5200       274
    75.5400       268
    75.5600       262
    75.5800       312
    75.6000       312
    75.6200       312
    75.6400       314
    75.6600       302
    75.6800       356
    75.7000       342
    75.7200       402
    75.7400       370
    75.7600       368
    75.7800       414
    75.8000       418
    75.8200       434
    75.8400       458
    75.8600       418
    75.8800       428
    75.9000       454
    75.9200       420
    75.9400       428
    75.9600       384
    75.9800       406
    76.0000       400
    76.0200       468
    76.0400       418
    76.0600       430
    76.0800       420
    76.1000       372
    76.1200       358
    76.1400       394
    76.1600       396
    76.1800       394
    76.2000       364
    76.2200       364
    76.2400       368
    76.2600       402
    76.2800       346
    76.3000       338
    76.3200       386
    76.3400       348
    76.3600       368
    76.3800       374
    76.4000       372
    76.4200       398
    76.4400       402
    76.4600       386
    76.4800       424
    76.5000       390
    76.5200       410
    76.5400       426
    76.5600       418
    76.5800       454
    76.6000       436
    76.6200       404
    76.6400       394
    76.6600       402
    76.6800       392
    76.7000       388
    76.7200       400
    76.7400       398
    76.7600       386
    76.7800       362
    76.8000       388
    76.8200       374
    76.8400       374
    76.8600       378
    76.8800       348
    76.9000       370
    76.9200       346
    76.9400       384
    76.9600       398
    76.9800       334
    77.0000       366
    77.0200       380
    77.0400       384
    77.0600       366
    77.0800       388
    77.1000       428
    77.1200       454
    77.1400       430
    77.1600       434
    77.1800       462
    77.2000       482
    77.2200       518
    77.2400       548
    77.2600       574
    77.2800       622
    77.3000       680
    77.3200       698
    77.3400       746
    77.3600       784
    77.3800       792
    77.4000       928
    77.4200       930
    77.4400       926
    77.4600       912
    77.4800       950
    77.5000       938
    77.5200       946
    77.5400       888
    77.5600       820
    77.5800       878
    77.6000       866
    77.6200       810
    77.6400       880
    77.6600       808
    77.6800       826
    77.7000       758
    77.7200       726
    77.7400       728
    77.7600       702
    77.7800       636
    77.8000       606
    77.8200       570
    77.8400       538
    77.8600       536
    77.8800       512
    77.9000       524
    77.9200       488
    77.9400       446
    77.9600       426
    77.9800       452
    78.0000       418
    78.0200       436
    78.0400       436
    78.0600       398
    78.0800       410
    78.1000       394
    78.1200       418
    78.1400       396
    78.1600       408
    78.1800       410
    78.2000       422
    78.2200       466
    78.2400       426
    78.2600       418
    78.2800       416
    78.3000       392
    78.3200       452
    78.3400       432
    78.3600       422
    78.3800       440
    78.4000       406
    78.4200       434
    78.4400       446
    78.4600       426
    78.4800       466
    78.5000       418
    78.5200       444
    78.5400       454
    78.5600       390
    78.5800       418
    78.6000       376
    78.6200       396
    78.6400       422
    78.6600       356
    78.6800       360
    78.7000       400
    78.7200       348
    78.7400       356
    78.7600       356
    78.7800       296
    78.8000       368
    78.8200       322
    78.8400       306
    78.8600       264
    78.8800       324
    78.9000       332
    78.9200       316
    78.9400       322
    78.9600       282
    78.9800       284
    79.0000       298
    79.0200       252
    79.0400       248
    79.0600       274
    79.0800       254
    79.1000       258
    79.1200       258
    79.1400       252
    79.1600       238
    79.1800       212
    79.2000       238
    79.2200       254
    79.2400       248
    79.2600       244
    79.2800       242
    79.3000       250
    79.3200       250
    79.3400       268
    79.3600       260
    79.3800       256
    79.4000       262
    79.4200       238
    79.4400       274
    79.4600       260
    79.4800       276
    79.5000       240
    79.5200       246
    79.5400       246
    79.5600       282
    79.5800       262
    79.6000       278
    79.6200       226
    79.6400       252
    79.6600       288
    79.6800       220
    79.7000       272
    79.7200       266
    79.7400       232
    79.7600       254
    79.7800       256
    79.8000       252
    79.8200       262
    79.8400       274
    79.8600       248
    79.8800       238
    79.9000       256
    79.9200       244
    79.9400       232
    79.9600       256
    79.9800       244
    80.0000       224
    80.0200       236
    80.0400       222
    80.0600       250
    80.0800       228
    80.1000       250
    80.1200       236
    80.1400       240
    80.1600       234
    80.1800       244
    80.2000       240
    80.2200       220
    80.2400       188
    80.2600       230
    80.2800       216
    80.3000       214
    80.3200       202
    80.3400       220
    80.3600       200
    80.3800       204
    80.4000       226
    80.4200       212
    80.4400       210
    80.4600       200
    80.4800       216
    80.5000       210
    80.5200       194
    80.5400       212
    80.5600       210
    80.5800       178
    80.6000       200
    80.6200       210
    80.6400       196
    80.6600       202
    80.6800       208
    80.7000       172
    80.7200       188
    80.7400       182
    80.7600       176
    80.7800       212
    80.8000       196
    80.8200       206
    80.8400       210
    80.8600       184
    80.8800       200
    80.9000       196
    80.9200       224
    80.9400       190
    80.9600       228
    80.9800       252
    81.0000       200
    81.0200       210
    81.0400       218
    81.0600       232
    81.0800       270
    81.1000       246
    81.1200       240
    81.1400       256
    81.1600       276
    81.1800       224
    81.2000       270
    81.2200       272
    81.2400       230
    81.2600       276
    81.2800       262
    81.3000       244
    81.3200       278
    81.3400       244
    81.3600       246
    81.3800       258
    81.4000       294
    81.4200       250
    81.4400       258
    81.4600       244
    81.4800       286
    81.5000       288
    81.5200       278
    81.5400       246
    81.5600       272
    81.5800       260
    81.6000       272
    81.6200       260
    81.6400       248
    81.6600       262
    81.6800       252
    81.7000       260
    81.7200       276
    81.7400       230
    81.7600       272
    81.7800       230
    81.8000       248
    81.8200       286
    81.8400       272
    81.8600       284
    81.8800       302
    81.9000       304
    81.9200       268
    81.9400       296
    81.9600       292
    81.9800       300
    82.0000       314
    82.0200       346
    82.0400       288
    82.0600       314
    82.0800       316
    82.1000       306
    82.1200       316
    82.1400       318
    82.1600       302
    82.1800       322
    82.2000       268
    82.2200       310
    82.2400       298
    82.2600       308
    82.2800       336
    82.3000       304
    82.3200       350
    82.3400       302
    82.3600       334
    82.3800       326
    82.4000       336
    82.4200       378
    82.4400       366
    82.4600       366
    82.4800       358
    82.5000       384
    82.5200       382
    82.5400       396
    82.5600       404
    82.5800       390
    82.6000       426
    82.6200       382
    82.6400       412
    82.6600       418
    82.6800       426
    82.7000       400
    82.7200       382
    82.7400       382
    82.7600       408
    82.7800       404
    82.8000       414
    82.8200       398
    82.8400       426
    82.8600       386
    82.8800       414
    82.9000       438
    82.9200       410
    82.9400       400
    82.9600       412
    82.9800       390
    83.0000       390
    83.0200       400
    83.0400       392
    83.0600       428
    83.0800       404
    83.1000       436
    83.1200       422
    83.1400       414
    83.1600       384
    83.1800       388
    83.2000       370
    83.2200       406
    83.2400       380
    83.2600       348
    83.2800       360
    83.3000       368
    83.3200       326
    83.3400       384
    83.3600       376
    83.3800       370
    83.4000       380
    83.4200       330
    83.4400       322
    83.4600       338
    83.4800       322
    83.5000       342
    83.5200       330
    83.5400       328
    83.5600       280
    83.5800       332
    83.6000       330
    83.6200       334
    83.6400       302
    83.6600       324
    83.6800       332
    83.7000       310
    83.7200       298
    83.7400       314
    83.7600       316
    83.7800       314
    83.8000       316
    83.8200       302
    83.8400       314
    83.8600       300
    83.8800       276
    83.9000       270
    83.9200       296
    83.9400       294
    83.9600       286
    83.9800       266
    84.0000       254
    84.0200       278
    84.0400       246
    84.0600       282
    84.0800       266
    84.1000       242
    84.1200       250
    84.1400       262
    84.1600       240
    84.1800       256
    84.2000       234
    84.2200       212
    84.2400       264
    84.2600       244
    84.2800       204
    84.3000       218
    84.3200       218
    84.3400       226
    84.3600       220
    84.3800       204
    84.4000       210
    84.4200       252
    84.4400       196
    84.4600       248
    84.4800       226
    84.5000       196
    84.5200       224
    84.5400       238
    84.5600       238
    84.5800       200
    84.6000       224
    84.6200       202
    84.6400       190
    84.6600       206
    84.6800       198
    84.7000       212
    84.7200       190
    84.7400       214
    84.7600       236
    84.7800       220
    84.8000       186
    84.8200       204
    84.8400       218
    84.8600       244
    84.8800       200
    84.9000       216
    84.9200       200
    84.9400       192
    84.9600       200
    84.9800       178
    85.0000       194
    85.0200       214
    85.0400       230
    85.0600       206
    85.0800       204
    85.1000       214
    85.1200       246
    85.1400       236
    85.1600       194
    85.1800       224
    85.2000       222
    85.2200       226
    85.2400       244
    85.2600       258
    85.2800       252
    85.3000       238
    85.3200       246
    85.3400       292
    85.3600       276
    85.3800       282
    85.4000       292
    85.4200       258
    85.4400       278
    85.4600       278
    85.4800       296
    85.5000       272
    85.5200       262
    85.5400       270
    85.5600       268
    85.5800       268
    85.6000       250
    85.6200       266
    85.6400       256
    85.6600       252
    85.6800       250
    85.7000       246
    85.7200       212
    85.7400       254
    85.7600       226
    85.7800       210
    85.8000       214
    85.8200       214
    85.8400       208
    85.8600       202
    85.8800       184
    85.9000       238
    85.9200       216
    85.9400       208
    85.9600       182
    85.9800       206
    86.0000       188
    86.0200       196
    86.0400       202
    86.0600       220
    86.0800       184
    86.1000       206
    86.1200       202
    86.1400       190
    86.1600       216
    86.1800       180
    86.2000       210
    86.2200       180
    86.2400       190
    86.2600       162
    86.2800       192
    86.3000       220
    86.3200       192
    86.3400       242
    86.3600       204
    86.3800       216
    86.4000       216
    86.4200       224
    86.4400       200
    86.4600       212
    86.4800       244
    86.5000       246
    86.5200       236
    86.5400       246
    86.5600       288
    86.5800       284
    86.6000       270
    86.6200       268
    86.6400       298
    86.6600       316
    86.6800       324
    86.7000       318
    86.7200       348
    86.7400       318
    86.7600       322
    86.7800       336
    86.8000       372
    86.8200       408
    86.8400       352
    86.8600       370
    86.8800       344
    86.9000       344
    86.9200       378
    86.9400       380
    86.9600       390
    86.9800       394
    87.0000       378
    87.0200       396
    87.0400       404
    87.0600       422
    87.0800       444
    87.1000       484
    87.1200       442
    87.1400       442
    87.1600       430
    87.1800       478
    87.2000       518
    87.2200       482
    87.2400       516
    87.2600       554
    87.2800       592
    87.3000       570
    87.3200       594
    87.3400       600
    87.3600       566
    87.3800       630
    87.4000       590
    87.4200       574
    87.4400       536
    87.4600       596
    87.4800       606
    87.5000       594
    87.5200       554
    87.5400       576
    87.5600       528
    87.5800       526
    87.6000       574
    87.6200       528
    87.6400       528
    87.6600       524
    87.6800       498
    87.7000       504
    87.7200       524
    87.7400       480
    87.7600       510
    87.7800       456
    87.8000       414
    87.8200       404
    87.8400       388
    87.8600       422
    87.8800       444
    87.9000       400
    87.9200       396
    87.9400       360
    87.9600       348
    87.9800       362
    88.0000       316
    88.0200       324
    88.0400       326
    88.0600       342
    88.0800       316
    88.1000       312
    88.1200       320
    88.1400       304
    88.1600       294
    88.1800       318
    88.2000       312
    88.2200       306
    88.2400       282
    88.2600       248
    88.2800       272
    88.3000       318
    88.3200       262
    88.3400       288
    88.3600       288
    88.3800       242
    88.4000       258
    88.4200       286
    88.4400       242
    88.4600       284
    88.4800       272
    88.5000       262
    88.5200       264
    88.5400       226
    88.5600       266
    88.5800       254
    88.6000       262
    88.6200       264
    88.6400       226
    88.6600       268
    88.6800       252
    88.7000       248
    88.7200       262
    88.7400       258
    88.7600       260
    88.7800       254
    88.8000       244
    88.8200       288
    88.8400       234
    88.8600       242
    88.8800       214
    88.9000       252
    88.9200       224
    88.9400       224
    88.9600       230
    88.9800       252
    89.0000       210
    89.0200       206
    89.0400       236
    89.0600       252
    89.0800       248
    89.1000       218
    89.1200       226
    89.1400       254
    89.1600       210
    89.1800       228
    89.2000       272
    89.2200       240
    89.2400       282
    89.2600       256
    89.2800       260
    89.3000       250
    89.3200       264
    89.3400       280
    89.3600       276
    89.3800       264
    89.4000       274
    89.4200       272
    89.4400       286
    89.4600       276
    89.4800       268
    89.5000       270
    89.5200       254
    89.5400       270
    89.5600       300
    89.5800       284
    89.6000       264
    89.6200       270
    89.6400       270
    89.6600       310
    89.6800       292
    89.7000       254
    89.7200       286
    89.7400       314
    89.7600       304
    89.7800       328
    89.8000       328
    89.8200       288
    89.8400       318
    89.8600       282
    89.8800       318
    89.9000       326
    89.9200       294
    89.9400       314
    89.9600       320
    89.9800       318
    90.0000       304
