    10.0000       362
    10.0200       366
    10.0400       386
    10.0600       358
    10.0800       404
    10.1000       366
    10.1200       340
    10.1400       368
    10.1600       348
    10.1800       372
    10.2000       360
    10.2200       356
    10.2400       388
    10.2600       332
    10.2800       340
    10.3000       364
    10.3200       352
    10.3400       364
    10.3600       364
    10.3800       344
    10.4000       362
    10.4200       334
    10.4400       344
    10.4600       326
    10.4800       328
    10.5000       354
    10.5200       348
    10.5400       366
    10.5600       352
    10.5800       330
    10.6000       356
    10.6200       352
    10.6400       342
    10.6600       324
    10.6800       342
    10.7000       344
    10.7200       346
    10.7400       354
    10.7600       320
    10.7800       336
    10.8000       342
    10.8200       348
    10.8400       350
    10.8600       342
    10.8800       342
    10.9000       358
    10.9200       350
    10.9400       320
    10.9600       340
    10.9800       342
    11.0000       346
    11.0200       334
    11.0400       332
    11.0600       314
    11.0800       328
    11.1000       334
    11.1200       328
    11.1400       338
    11.1600       352
    11.1800       350
    11.2000       320
    11.2200       318
    11.2400       320
    11.2600       346
    11.2800       322
    11.3000       324
    11.3200       368
    11.3400       316
    11.3600       328
    11.3800       334
    11.4000       312
    11.4200       330
    11.4400       368
    11.4600       326
    11.4800       352
    11.5000       304
    11.5200       286
    11.5400       316
    11.5600       340
    11.5800       346
    11.6000       342
    11.6200       328
    11.6400       296
    11.6600       338
    11.6800       330
    11.7000       368
    11.7200       346
    11.7400       362
    11.7600       358
    11.7800       354
    11.8000       372
    11.8200       366
    11.8400       354
    11.8600       372
    11.8800       378
    11.9000       370
    11.9200       398
    11.9400       394
    11.9600       392
    11.9800       386
    12.0000       464
    12.0200       462
    12.0400       474
    12.0600       526
    12.0800       546
    12.1000       550
    12.1200       612
    12.1400       688
    12.1600       678
    12.1800       736
    12.2000       752
    12.2200       648
    12.2400       646
    12.2600       534
    12.2800       520
    12.3000       452
    12.3200       370
    12.3400       356
    12.3600       326
    12.3800       320
    12.4000       330
    12.4200       346
    12.4400       312
    12.4600       310
    12.4800       296
    12.5000       326
    12.5200       266
    12.5400       300
    12.5600       308
    12.5800       320
    12.6000       260
    12.6200       296
    12.6400       272
    12.6600       302
    12.6800       286
    12.7000       300
    12.7200       288
    12.7400       296
    12.7600       300
    12.7800       284
    12.8000       270
    12.8200       300
    12.8400       294
    12.8600       278
    12.8800       288
    12.9000       280
    12.9200       290
    12.9400       280
    12.9600       284
    12.9800       290
    13.0000       290
    13.0200       298
    13.0400       254
    13.0600       278
    13.0800       290
    13.1000       294
    13.1200       272
    13.1400       272
    13.1600       284
    13.1800       296
    13.2000       262
    13.2200       290
    13.2400       280
    13.2600       274
    13.2800       256
    13.3000       292
    13.3200       276
    13.3400       278
    13.3600       278
    13.3800       278
    13.4000       282
    13.4200       252
    13.4400       312
    13.4600       266
    13.4800       258
    13.5000       272
    13.5200       244
    13.5400       272
    13.5600       286
    13.5800       272
    13.6000       254
    13.6200       246
    13.6400       260
    13.6600       268
    13.6800       254
    13.7000       272
    13.7200       286
    13.7400       270
    13.7600       270
    13.7800       292
    13.8000       270
    13.8200       284
    13.8400       242
    13.8600       258
    13.8800       246
    13.9000       266
    13.9200       258
    13.9400       232
    13.9600       280
    13.9800       252
    14.0000       270
    14.0200       234
    14.0400       272
    14.0600       264
    14.0800       270
    14.1000       244
    14.1200       258
    14.1400       236
    14.1600       250
    14.1800       242
    14.2000       226
    14.2200       266
    14.2400       258
    14.2600       244
    14.2800       238
    14.3000       256
    14.3200       234
    14.3400       252
    14.3600       260
    14.3800       240
    14.4000       254
    14.4200       250
    14.4400       246
    14.4600       248
    14.4800       290
    14.5000       240
    14.5200       272
    14.5400       268
    14.5600       292
    14.5800       272
    14.6000       274
    14.6200       280
    14.6400       266
    14.6600       280
    14.6800       248
    14.7000       304
    14.7200       280
    14.7400       290
    14.7600       302
    14.7800       296
    14.8000       330
    14.8200       336
    14.8400       370
    14.8600       376
    14.8800       410
    14.9000       452
    14.9200       454
    14.9400       486
    14.9600       506
    14.9800       576
    15.0000       558
    15.0200       600
    15.0400       638
    15.0600       602
    15.0800       678
    15.1000       746
    15.1200       816
    15.1400       898
    15.1600       910
    15.1800       966
    15.2000       906
    15.2200       848
    15.2400       778
    15.2600       550
    15.2800       470
    15.3000       420
    15.3200       356
    15.3400       328
    15.3600       298
    15.3800       302
    15.4000       264
    15.4200       320
    15.4400       282
    15.4600       280
    15.4800       242
    15.5000       244
    15.5200       226
    15.5400       262
    15.5600       274
    15.5800       252
    15.6000       244
    15.6200       224
    15.6400       250
    15.6600       244
    15.6800       254
    15.7000       244
    15.7200       248
    15.7400       224
    15.7600       244
    15.7800       256
    15.8000       254
    15.8200       232
    15.8400       252
    15.8600       230
    15.8800       226
    15.9000       232
    15.9200       278
    15.9400       218
    15.9600       246
    15.9800       238
    16.0000       226
    16.0200       250
    16.0400       252
    16.0600       230
    16.0800       236
    16.1000       248
    16.1200       226
    16.1400       256
    16.1600       280
    16.1800       258
    16.2000       244
    16.2200       278
    16.2400       256
    16.2600       264
    16.2800       272
    16.3000       250
    16.3200       246
    16.3400       258
    16.3600       272
    16.3800       258
    16.4000       266
    16.4200       242
    16.4400       244
    16.4600       250
    16.4800       236
    16.5000       266
    16.5200       252
    16.5400       276
    16.5600       264
    16.5800       266
    16.6000       296
    16.6200       240
    16.6400       274
    16.6600       316
    16.6800       336
    16.7000       324
    16.7200       344
    16.7400       388
    16.7600       422
    16.7800       402
    16.8000       478
    16.8200       484
    16.8400       476
    16.8600       516
    16.8800       600
    16.9000       684
    16.9200       726
    16.9400       864
    16.9600       938
    16.9800      1034
    17.0000      1276
    17.0200      1420
    17.0400      1548
    17.0600      1570
    17.0800      1572
    17.1000      1526
    17.1200      1316
    17.1400      1154
    17.1600      1070
    17.1800       946
    17.2000       916
    17.2200       948
    17.2400       886
    17.2600       772
    17.2800       772
    17.3000       752
    17.3200       664
    17.3400       624
    17.3600       566
    17.3800       536
    17.4000       508
    17.4200       484
    17.4400       450
    17.4600       446
    17.4800       422
    17.5000       418
    17.5200       368
    17.5400       386
    17.5600       372
    17.5800       406
    17.6000       398
    17.6200       392
    17.6400       394
    17.6600       468
    17.6800       412
    17.7000       454
    17.7200       458
    17.7400       540
    17.7600       540
    17.7800       554
    17.8000       568
    17.8200       518
    17.8400       460
    17.8600       414
    17.8800       410
    17.9000       328
    17.9200       322
    17.9400       288
    17.9600       256
    17.9800       224
    18.0000       218
    18.0200       240
    18.0400       250
    18.0600       244
    18.0800       230
    18.1000       222
    18.1200       254
    18.1400       230
    18.1600       196
    18.1800       200
    18.2000       230
    18.2200       238
    18.2400       212
    18.2600       226
    18.2800       200
    18.3000       244
    18.3200       206
    18.3400       214
    18.3600       194
    18.3800       216
    18.4000       210
    18.4200       228
    18.4400       188
    18.4600       178
    18.4800       216
    18.5000       220
    18.5200       222
    18.5400       268
    18.5600       224
    18.5800       210
    18.6000       228
    18.6200       254
    18.6400       250
    18.6600       248
    18.6800       238
    18.7000       272
    18.7200       280
    18.7400       262
    18.7600       274
    18.7800       330
    18.8000       292
    18.8200       334
    18.8400       352
    18.8600       378
    18.8800       392
    18.9000       422
    18.9200       426
    18.9400       420
    18.9600       468
    18.9800       468
    19.0000       376
    19.0200       372
    19.0400       402
    19.0600       342
    19.0800       348
    19.1000       342
    19.1200       386
    19.1400       376
    19.1600       412
    19.1800       400
    19.2000       436
    19.2200       476
    19.2400       452
    19.2600       564
    19.2800       568
    19.3000       634
    19.3200       718
    19.3400       768
    19.3600       876
    19.3800      1070
    19.4000      1120
    19.4200      1320
    19.4400      1610
    19.4600      1820
    19.4800      2072
    19.5000      2354
    19.5200      2540
    19.5400      2800
    19.5600      2802
    19.5800      2510
    19.6000      2262
    19.6200      1884
    19.6400      1462
    19.6600      1232
    19.6800      1034
    19.7000       868
    19.7200       792
    19.7400       822
    19.7600       784
    19.7800       842
    19.8000       922
    19.8200       986
    19.8400      1120
    19.8600      1326
    19.8800      1368
    19.9000      1630
    19.9200      1754
    19.9400      2040
    19.9600      2072
    19.9800      2140
    20.0000      2090
    20.0200      1930
    20.0400      1656
    20.0600      1380
    20.0800      1092
    20.1000       874
    20.1200       734
    20.1400       600
    20.1600       474
    20.1800       438
    20.2000       386
    20.2200       382
    20.2400       352
    20.2600       366
    20.2800       330
    20.3000       310
    20.3200       308
    20.3400       304
    20.3600       308
    20.3800       278
    20.4000       242
    20.4200       274
    20.4400       262
    20.4600       264
    20.4800       268
    20.5000       232
    20.5200       254
    20.5400       234
    20.5600       256
    20.5800       264
    20.6000       254
    20.6200       214
    20.6400       268
    20.6600       258
    20.6800       244
    20.7000       260
    20.7200       268
    20.7400       260
    20.7600       266
    20.7800       298
    20.8000       320
    20.8200       336
    20.8400       340
    20.8600       338
    20.8800       346
    20.9000       426
    20.9200       490
    20.9400       476
    20.9600       580
    20.9800       562
    21.0000       612
    21.0200       748
    21.0400       858
    21.0600       958
    21.0800      1088
    21.1000      1330
    21.1200      1572
    21.1400      1614
    21.1600      1834
    21.1800      2014
    21.2000      2064
    21.2200      2046
    21.2400      1990
    21.2600      1818
    21.2800      1634
    21.3000      1452
    21.3200      1072
    21.3400       948
    21.3600       804
    21.3800       650
    21.4000       526
    21.4200       484
    21.4400       466
    21.4600       386
    21.4800       338
    21.5000       334
    21.5200       290
    21.5400       290
    21.5600       286
    21.5800       250
    21.6000       258
    21.6200       270
    21.6400       242
    21.6600       228
    21.6800       252
    21.7000       226
    21.7200       200
    21.7400       230
    21.7600       208
    21.7800       236
    21.8000       194
    21.8200       248
    21.8400       252
    21.8600       250
    21.8800       240
    21.9000       238
    21.9200       250
    21.9400       244
    21.9600       232
    21.9800       214
    22.0000       220
    22.0200       252
    22.0400       238
    22.0600       234
    22.0800       214
    22.1000       226
    22.1200       224
    22.1400       236
    22.1600       210
    22.1800       212
    22.2000       218
    22.2200       226
    22.2400       238
    22.2600       248
    22.2800       218
    22.3000       214
    22.3200       262
    22.3400       266
    22.3600       314
    22.3800       292
    22.4000       342
    22.4200       310
    22.4400       362
    22.4600       358
    22.4800       372
    22.5000       412
    22.5200       390
    22.5400       478
    22.5600       500
    22.5800       588
    22.6000       676
    22.6200       734
    22.6400       832
    22.6600       958
    22.6800      1048
    22.7000      1328
    22.7200      1522
    22.7400      1876
    22.7600      2096
    22.7800      2448
    22.8000      2804
    22.8200      3312
    22.8400      3624
    22.8600      3672
    22.8800      3802
    22.9000      3404
    22.9200      2896
    22.9400      2446
    22.9600      1926
    22.9800      1604
    23.0000      1214
    23.0200       938
    23.0400       824
    23.0600       702
    23.0800       620
    23.1000       584
    23.1200       522
    23.1400       492
    23.1600       440
    23.1800       426
    23.2000       450
    23.2200       390
    23.2400       368
    23.2600       364
    23.2800       346
    23.3000       314
    23.3200       322
    23.3400       284
    23.3600       254
    23.3800       286
    23.4000       276
    23.4200       272
    23.4400       292
    23.4600       254
    23.4800       276
    23.5000       280
    23.5200       264
    23.5400       254
    23.5600       220
    23.5800       222
    23.6000       254
    23.6200       220
    23.6400       228
    23.6600       246
    23.6800       232
    23.7000       226
    23.7200       258
    23.7400       240
    23.7600       256
    23.7800       212
    23.8000       252
    23.8200       270
    23.8400       252
    23.8600       246
    23.8800       232
    23.9000       206
    23.9200       236
    23.9400       256
    23.9600       236
    23.9800       256
    24.0000       254
    24.0200       242
    24.0400       230
    24.0600       246
    24.0800       224
    24.1000       280
    24.1200       290
    24.1400       260
    24.1600       266
    24.1800       314
    24.2000       328
    24.2200       338
    24.2400       374
    24.2600       380
    24.2800       398
    24.3000       388
    24.3200       514
    24.3400       536
    24.3600       560
    24.3800       688
    24.4000       690
    24.4200       812
    24.4400       904
    24.4600      1096
    24.4800      1088
    24.5000      1208
    24.5200      1196
    24.5400      1258
    24.5600      1268
    24.5800      1294
    24.6000      1210
    24.6200      1070
    24.6400      1010
    24.6600       938
    24.6800       782
    24.7000       758
    24.7200       688
    24.7400       652
    24.7600       586
    24.7800       582
    24.8000       534
    24.8200       474
    24.8400       526
    24.8600       446
    24.8800       414
    24.9000       414
    24.9200       462
    24.9400       428
    24.9600       434
    24.9800       498
    25.0000       456
    25.0200       462
    25.0400       510
    25.0600       480
    25.0800       526
    25.1000       534
    25.1200       594
    25.1400       600
    25.1600       620
    25.1800       688
    25.2000       692
    25.2200       720
    25.2400       790
    25.2600       860
    25.2800       892
    25.3000       850
    25.3200       780
    25.3400       788
    25.3600       704
    25.3800       650
    25.4000       584
    25.4200       644
    25.4400       680
    25.4600       682
    25.4800       714
    25.5000       800
    25.5200       826
    25.5400       954
    25.5600       928
    25.5800      1012
    25.6000      1062
    25.6200       996
    25.6400       960
    25.6600       862
    25.6800       782
    25.7000       618
    25.7200       530
    25.7400       442
    25.7600       422
    25.7800       384
    25.8000       358
    25.8200       344
    25.8400       316
    25.8600       328
    25.8800       292
    25.9000       252
    25.9200       280
    25.9400       266
    25.9600       256
    25.9800       286
    26.0000       244
    26.0200       244
    26.0400       234
    26.0600       230
    26.0800       228
    26.1000       234
    26.1200       256
    26.1400       244
    26.1600       286
    26.1800       256
    26.2000       246
    26.2200       264
    26.2400       264
    26.2600       246
    26.2800       246
    26.3000       260
    26.3200       254
    26.3400       304
    26.3600       282
    26.3800       280
    26.4000       294
    26.4200       282
    26.4400       282
    26.4600       268
    26.4800       248
    26.5000       308
    26.5200       314
    26.5400       276
    26.5600       294
    26.5800       342
    26.6000       308
    26.6200       312
    26.6400       300
    26.6600       306
    26.6800       298
    26.7000       330
    26.7200       326
    26.7400       280
    26.7600       300
    26.7800       278
    26.8000       250
    26.8200       254
    26.8400       268
    26.8600       258
    26.8800       258
    26.9000       248
    26.9200       268
    26.9400       250
    26.9600       258
    26.9800       248
    27.0000       264
    27.0200       266
    27.0400       246
    27.0600       284
    27.0800       304
    27.1000       292
    27.1200       328
    27.1400       302
    27.1600       292
    27.1800       358
    27.2000       350
    27.2200       396
    27.2400       444
    27.2600       482
    27.2800       530
    27.3000       582
    27.3200       640
    27.3400       740
    27.3600       834
    27.3800       862
    27.4000      1080
    27.4200      1094
    27.4400      1160
    27.4600      1228
    27.4800      1340
    27.5000      1356
    27.5200      1202
    27.5400      1224
    27.5600      1116
    27.5800      1024
    27.6000       948
    27.6200       844
    27.6400       744
    27.6600       664
    27.6800       600
    27.7000       506
    27.7200       484
    27.7400       446
    27.7600       392
    27.7800       358
    27.8000       328
    27.8200       318
    27.8400       324
    27.8600       304
    27.8800       310
    27.9000       294
    27.9200       284
    27.9400       304
    27.9600       292
    27.9800       270
    28.0000       272
    28.0200       276
    28.0400       256
    28.0600       248
    28.0800       240
    28.1000       256
    28.1200       274
    28.1400       284
    28.1600       264
    28.1800       256
    28.2000       286
    28.2200       298
    28.2400       268
    28.2600       294
    28.2800       298
    28.3000       298
    28.3200       268
    28.3400       310
    28.3600       300
    28.3800       280
    28.4000       258
    28.4200       268
    28.4400       268
    28.4600       248
    28.4800       284
    28.5000       268
    28.5200       244
    28.5400       244
    28.5600       264
    28.5800       276
    28.6000       262
    28.6200       242
    28.6400       280
    28.6600       316
    28.6800       298
    28.7000       298
    28.7200       326
    28.7400       318
    28.7600       344
    28.7800       304
    28.8000       302
    28.8200       268
    28.8400       276
    28.8600       278
    28.8800       286
    28.9000       304
    28.9200       298
    28.9400       274
    28.9600       250
    28.9800       288
    29.0000       230
    29.0200       262
    29.0400       250
    29.0600       280
    29.0800       266
    29.1000       244
    29.1200       254
    29.1400       268
    29.1600       258
    29.1800       286
    29.2000       260
    29.2200       292
    29.2400       294
    29.2600       324
    29.2800       320
    29.3000       370
    29.3200       366
    29.3400       362
    29.3600       406
    29.3800       396
    29.4000       482
    29.4200       458
    29.4400       476
    29.4600       482
    29.4800       574
    29.5000       590
    29.5200       612
    29.5400       654
    29.5600       654
    29.5800       702
    29.6000       740
    29.6200       722
    29.6400       752
    29.6600       702
    29.6800       714
    29.7000       668
    29.7200       618
    29.7400       600
    29.7600       540
    29.7800       538
    29.8000       472
    29.8200       512
    29.8400       470
    29.8600       466
    29.8800       532
    29.9000       546
    29.9200       550
    29.9400       626
    29.9600       676
    29.9800       752
    30.0000       844
    30.0200       970
    30.0400      1072
    30.0600      1234
    30.0800      1470
    30.1000      1490
    30.1200      1714
    30.1400      1990
    30.1600      2022
    30.1800      2086
    30.2000      2242
    30.2200      2252
    30.2400      2254
    30.2600      2140
    30.2800      2184
    30.3000      1974
    30.3200      1814
    30.3400      1952
    30.3600      1766
    30.3800      1662
    30.4000      1814
    30.4200      1748
    30.4400      1846
    30.4600      1982
    30.4800      2126
    30.5000      2264
    30.5200      2626
    30.5400      2682
    30.5600      2984
    30.5800      3472
    30.6000      3844
    30.6200      3986
    30.6400      4288
    30.6600      4308
    30.6800      4044
    30.7000      3912
    30.7200      3568
    30.7400      3134
    30.7600      2704
    30.7800      2288
    30.8000      1992
    30.8200      1644
    30.8400      1426
    30.8600      1258
    30.8800      1156
    30.9000      1064
    30.9200      1076
    30.9400      1070
    30.9600       998
    30.9800      1012
    31.0000      1102
    31.0200      1064
    31.0400      1094
    31.0600      1212
    31.0800      1198
    31.1000      1256
    31.1200      1306
    31.1400      1314
    31.1600      1346
    31.1800      1406
    31.2000      1338
    31.2200      1302
    31.2400      1276
    31.2600      1166
    31.2800      1038
    31.3000       986
    31.3200       894
    31.3400       824
    31.3600       758
    31.3800       630
    31.4000       550
    31.4200       576
    31.4400       558
    31.4600       492
    31.4800       482
    31.5000       516
    31.5200       472
    31.5400       430
    31.5600       464
    31.5800       416
    31.6000       408
    31.6200       426
    31.6400       436
    31.6600       500
    31.6800       486
    31.7000       464
    31.7200       506
    31.7400       540
    31.7600       584
    31.7800       588
    31.8000       672
    31.8200       750
    31.8400       806
    31.8600       984
    31.8800      1032
    31.9000      1164
    31.9200      1370
    31.9400      1600
    31.9600      1738
    31.9800      1848
    32.0000      1906
    32.0200      1910
    32.0400      1946
    32.0600      1794
    32.0800      1720
    32.1000      1568
    32.1200      1414
    32.1400      1266
    32.1600      1156
    32.1800      1084
    32.2000      1032
    32.2200      1040
    32.2400      1096
    32.2600      1108
    32.2800      1224
    32.3000      1304
    32.3200      1478
    32.3400      1678
    32.3600      1884
    32.3800      2200
    32.4000      2516
    32.4200      2908
    32.4400      3496
    32.4600      3986
    32.4800      4760
    32.5000      5384
    32.5200      5828
    32.5400      6114
    32.5600      6364
    32.5800      6460
    32.6000      6276
    32.6200      5588
    32.6400      5076
    32.6600      4370
    32.6800      3872
    32.7000      3266
    32.7200      2762
    32.7400      2410
    32.7600      2084
    32.7800      1758
    32.8000      1490
    32.8200      1318
    32.8400      1244
    32.8600      1094
    32.8800      1022
    32.9000      1004
    32.9200      1030
    32.9400       968
    32.9600      1060
    32.9800      1058
    33.0000      1136
    33.0200      1202
    33.0400      1238
    33.0600      1386
    33.0800      1334
    33.1000      1344
    33.1200      1302
    33.1400      1178
    33.1600      1070
    33.1800       992
    33.2000       834
    33.2200       748
    33.2400       694
    33.2600       556
    33.2800       530
    33.3000       460
    33.3200       456
    33.3400       398
    33.3600       376
    33.3800       354
    33.4000       342
    33.4200       338
    33.4400       300
    33.4600       288
    33.4800       256
    33.5000       252
    33.5200       288
    33.5400       252
    33.5600       246
    33.5800       286
    33.6000       260
    33.6200       246
    33.6400       262
    33.6600       232
    33.6800       250
    33.7000       224
    33.7200       240
    33.7400       224
    33.7600       232
    33.7800       228
    33.8000       236
    33.8200       234
    33.8400       238
    33.8600       210
    33.8800       218
    33.9000       216
    33.9200       236
    33.9400       220
    33.9600       230
    33.9800       216
    34.0000       230
    34.0200       244
    34.0400       206
    34.0600       236
    34.0800       242
    34.1000       230
    34.1200       232
    34.1400       212
    34.1600       270
    34.1800       250
    34.2000       248
    34.2200       236
    34.2400       234
    34.2600       270
    34.2800       248
    34.3000       270
    34.3200       288
    34.3400       258
    34.3600       274
    34.3800       308
    34.4000       338
    34.4200       330
    34.4400       356
    34.4600       410
    34.4800       454
    34.5000       446
    34.5200       476
    34.5400       516
    34.5600       442
    34.5800       462
    34.6000       432
    34.6200       394
    34.6400       404
    34.6600       394
    34.6800       380
    34.7000       344
    34.7200       340
    34.7400       330
    34.7600       314
    34.7800       336
    34.8000       342
    34.8200       338
    34.8400       322
    34.8600       288
    34.8800       368
    34.9000       362
    34.9200       358
    34.9400       374
    34.9600       338
    34.9800       380
    35.0000       412
    35.0200       422
    35.0400       464
    35.0600       450
    35.0800       482
    35.1000       480
    35.1200       446
    35.1400       444
    35.1600       424
    35.1800       392
    35.2000       392
    35.2200       358
    35.2400       324
    35.2600       296
    35.2800       286
    35.3000       282
    35.3200       284
    35.3400       254
    35.3600       252
    35.3800       268
    35.4000       260
    35.4200       266
    35.4400       238
    35.4600       278
    35.4800       258
    35.5000       268
    35.5200       258
    35.5400       266
    35.5600       270
    35.5800       286
    35.6000       266
    35.6200       300
    35.6400       266
    35.6600       290
    35.6800       278
    35.7000       306
    35.7200       346
    35.7400       324
    35.7600       334
    35.7800       314
    35.8000       320
    35.8200       336
    35.8400       408
    35.8600       418
    35.8800       442
    35.9000       450
    35.9200       454
    35.9400       490
    35.9600       522
    35.9800       556
    36.0000       568
    36.0200       634
    36.0400       692
    36.0600       684
    36.0800       712
    36.1000       802
    36.1200       778
    36.1400       792
    36.1600       788
    36.1800       758
    36.2000       680
    36.2200       674
    36.2400       622
    36.2600       568
    36.2800       472
    36.3000       472
    36.3200       476
    36.3400       392
    36.3600       382
    36.3800       380
    36.4000       410
    36.4200       346
    36.4400       348
    36.4600       352
    36.4800       372
    36.5000       398
    36.5200       356
    36.5400       404
    36.5600       410
    36.5800       424
    36.6000       460
    36.6200       468
    36.6400       542
    36.6600       528
    36.6800       540
    36.7000       680
    36.7200       744
    36.7400       808
    36.7600       866
    36.7800      1050
    36.8000      1160
    36.8200      1316
    36.8400      1484
    36.8600      1604
    36.8800      1602
    36.9000      1676
    36.9200      1668
    36.9400      1598
    36.9600      1514
    36.9800      1426
    37.0000      1394
    37.0200      1242
    37.0400      1146
    37.0600      1082
    37.0800      1064
    37.1000       922
    37.1200       986
    37.1400       944
    37.1600       958
    37.1800       902
    37.2000       914
    37.2200       870
    37.2400       824
    37.2600       834
    37.2800       782
    37.3000       706
    37.3200       730
    37.3400       668
    37.3600       642
    37.3800       618
    37.4000       580
    37.4200       580
    37.4400       522
    37.4600       506
    37.4800       526
    37.5000       546
    37.5200       522
    37.5400       582
    37.5600       586
    37.5800       588
    37.6000       590
    37.6200       620
    37.6400       634
    37.6600       662
    37.6800       660
    37.7000       742
    37.7200       730
    37.7400       764
    37.7600       752
    37.7800       778
    37.8000       776
    37.8200       808
    37.8400       820
    37.8600       862
    37.8800       968
    37.9000      1068
    37.9200      1170
    37.9400      1272
    37.9600      1392
    37.9800      1528
    38.0000      1634
    38.0200      1808
    38.0400      1828
    38.0600      1806
    38.0800      1744
    38.1000      1722
    38.1200      1636
    38.1400      1682
    38.1600      1576
    38.1800      1540
    38.2000      1418
    38.2200      1540
    38.2400      1628
    38.2600      1604
    38.2800      1722
    38.3000      1894
    38.3200      2134
    38.3400      2334
    38.3600      2576
    38.3800      2898
    38.4000      3308
    38.4200      3668
    38.4400      3964
    38.4600      4306
    38.4800      4506
    38.5000      4748
    38.5200      4688
    38.5400      4728
    38.5600      5058
    38.5800      5026
    38.6000      5124
    38.6200      5012
    38.6400      4910
    38.6600      4770
    38.6800      4648
    38.7000      4392
    38.7200      4328
    38.7400      4142
    38.7600      3752
    38.7800      3508
    38.8000      3262
    38.8200      2906
    38.8400      2560
    38.8600      2266
    38.8800      1986
    38.9000      1736
    38.9200      1544
    38.9400      1430
    38.9600      1304
    38.9800      1254
    39.0000      1144
    39.0200      1102
    39.0400      1108
    39.0600      1070
    39.0800      1084
    39.1000      1028
    39.1200      1062
    39.1400      1098
    39.1600      1080
    39.1800      1042
    39.2000      1148
    39.2200      1126
    39.2400      1062
    39.2600      1192
    39.2800      1154
    39.3000      1096
    39.3200      1156
    39.3400      1128
    39.3600      1112
    39.3800      1094
    39.4000      1088
    39.4200      1022
    39.4400      1054
    39.4600       998
    39.4800       972
    39.5000      1006
    39.5200      1046
    39.5400      1048
    39.5600      1234
    39.5800      1190
    39.6000      1356
    39.6200      1482
    39.6400      1680
    39.6600      1722
    39.6800      1884
    39.7000      1962
    39.7200      1926
    39.7400      1978
    39.7600      1840
    39.7800      1790
    39.8000      1650
    39.8200      1524
    39.8400      1320
    39.8600      1170
    39.8800      1028
    39.9000       956
    39.9200       864
    39.9400       768
    39.9600       676
    39.9800       758
    40.0000       672
    40.0200       736
    40.0400       680
    40.0600       726
    40.0800       708
    40.1000       698
    40.1200       686
    40.1400       696
    40.1600       714
    40.1800       734
    40.2000       762
    40.2200       752
    40.2400       822
    40.2600       776
    40.2800       728
    40.3000       754
    40.3200       812
    40.3400       800
    40.3600       842
    40.3800       872
    40.4000       916
    40.4200      1026
    40.4400      1038
    40.4600      1124
    40.4800      1218
    40.5000      1266
    40.5200      1258
    40.5400      1364
    40.5600      1382
    40.5800      1396
    40.6000      1374
    40.6200      1410
    40.6400      1280
    40.6600      1296
    40.6800      1154
    40.7000      1148
    40.7200      1050
    40.7400       896
    40.7600       848
    40.7800       814
    40.8000       752
    40.8200       690
    40.8400       670
    40.8600       662
    40.8800       604
    40.9000       592
    40.9200       622
    40.9400       588
    40.9600       626
    40.9800       672
    41.0000       612
    41.0200       670
    41.0400       698
    41.0600       812
    41.0800       814
    41.1000       860
    41.1200       926
    41.1400      1020
    41.1600      1176
    41.1800      1252
    41.2000      1314
    41.2200      1468
    41.2400      1534
    41.2600      1740
    41.2800      1742
    41.3000      1752
    41.3200      1854
    41.3400      1838
    41.3600      1800
    41.3800      1790
    41.4000      1768
    41.4200      1706
    41.4400      1720
    41.4600      1678
    41.4800      1624
    41.5000      1422
    41.5200      1346
    41.5400      1276
    41.5600      1126
    41.5800      1078
    41.6000       986
    41.6200       920
    41.6400       930
    41.6600       864
    41.6800       874
    41.7000       844
    41.7200       910
    41.7400       880
    41.7600      1000
    41.7800      1068
    41.8000      1122
    41.8200      1288
    41.8400      1380
    41.8600      1402
    41.8800      1504
    41.9000      1500
    41.9200      1506
    41.9400      1472
    41.9600      1410
    41.9800      1302
    42.0000      1250
    42.0200      1148
    42.0400      1046
    42.0600       866
    42.0800       798
    42.1000       818
    42.1200       716
    42.1400       622
    42.1600       556
    42.1800       516
    42.2000       460
    42.2200       452
    42.2400       444
    42.2600       404
    42.2800       422
    42.3000       376
    42.3200       392
    42.3400       394
    42.3600       386
    42.3800       414
    42.4000       364
    42.4200       380
    42.4400       340
    42.4600       356
    42.4800       370
    42.5000       344
    42.5200       358
    42.5400       344
    42.5600       318
    42.5800       316
    42.6000       354
    42.6200       352
    42.6400       318
    42.6600       340
    42.6800       344
    42.7000       336
    42.7200       338
    42.7400       364
    42.7600       368
    42.7800       354
    42.8000       358
    42.8200       400
    42.8400       396
    42.8600       420
    42.8800       388
    42.9000       460
    42.9200       484
    42.9400       486
    42.9600       556
    42.9800       562
    43.0000       638
    43.0200       682
    43.0400       746
    43.0600       842
    43.0800       892
    43.1000      1012
    43.1200      1164
    43.1400      1194
    43.1600      1378
    43.1800      1508
    43.2000      1558
    43.2200      1574
    43.2400      1672
    43.2600      1588
    43.2800      1666
    43.3000      1494
    43.3200      1510
    43.3400      1292
    43.3600      1158
    43.3800      1150
    43.4000      1072
    43.4200       968
    43.4400       802
    43.4600       694
    43.4800       722
    43.5000       636
    43.5200       586
    43.5400       528
    43.5600       524
    43.5800       476
    43.6000       468
    43.6200       476
    43.6400       462
    43.6600       512
    43.6800       494
    43.7000       518
    43.7200       554
    43.7400       556
    43.7600       588
    43.7800       614
    43.8000       554
    43.8200       590
    43.8400       662
    43.8600       664
    43.8800       570
    43.9000       556
    43.9200       582
    43.9400       592
    43.9600       536
    43.9800       486
    44.0000       524
    44.0200       510
    44.0400       486
    44.0600       448
    44.0800       482
    44.1000       474
    44.1200       480
    44.1400       440
    44.1600       440
    44.1800       442
    44.2000       432
    44.2200       454
    44.2400       460
    44.2600       480
    44.2800       494
    44.3000       498
    44.3200       514
    44.3400       546
    44.3600       530
    44.3800       578
    44.4000       598
    44.4200       594
    44.4400       614
    44.4600       656
    44.4800       706
    44.5000       732
    44.5200       820
    44.5400       826
    44.5600       918
    44.5800      1000
    44.6000      1028
    44.6200      1122
    44.6400      1138
    44.6600      1170
    44.6800      1318
    44.7000      1330
    44.7200      1308
    44.7400      1334
    44.7600      1344
    44.7800      1346
    44.8000      1302
    44.8200      1362
    44.8400      1364
    44.8600      1360
    44.8800      1404
    44.9000      1446
    44.9200      1476
    44.9400      1540
    44.9600      1498
    44.9800      1732
    45.0000      1716
    45.0200      1856
    45.0400      1798
    45.0600      1884
    45.0800      1948
    45.1000      2074
    45.1200      2014
    45.1400      1980
    45.1600      2126
    45.1800      2034
    45.2000      2112
    45.2200      1986
    45.2400      1940
    45.2600      1834
    45.2800      1862
    45.3000      1652
    45.3200      1516
    45.3400      1488
    45.3600      1410
    45.3800      1338
    45.4000      1286
    45.4200      1158
    45.4400      1126
    45.4600      1086
    45.4800      1078
    45.5000      1042
    45.5200       994
    45.5400       964
    45.5600       890
    45.5800       904
    45.6000       828
    45.6200       812
    45.6400       802
    45.6600       764
    45.6800       724
    45.7000       732
    45.7200       752
    45.7400       764
    45.7600       734
    45.7800       726
    45.8000       732
    45.8200       674
    45.8400       760
    45.8600       718
    45.8800       700
    45.9000       704
    45.9200       688
    45.9400       692
    45.9600       660
    45.9800       662
    46.0000       672
    46.0200       686
    46.0400       648
    46.0600       632
    46.0800       650
    46.1000       640
    46.1200       654
    46.1400       664
    46.1600       688
    46.1800       698
    46.2000       718
    46.2200       732
    46.2400       734
    46.2600       754
    46.2800       818
    46.3000       896
    46.3200       880
    46.3400       928
    46.3600      1080
    46.3800      1110
    46.4000      1280
    46.4200      1366
    46.4400      1468
    46.4600      1714
    46.4800      1884
    46.5000      2144
    46.5200      2328
    46.5400      2700
    46.5600      3064
    46.5800      3488
    46.6000      4018
    46.6200      4492
    46.6400      4914
    46.6600      5564
    46.6800      5956
    46.7000      6276
    46.7200      6534
    46.7400      6512
    46.7600      6220
    46.7800      5976
    46.8000      5642
    46.8200      5186
    46.8400      4674
    46.8600      4312
    46.8800      3664
    46.9000      3264
    46.9200      2964
    46.9400      2512
    46.9600      2180
    46.9800      1858
    47.0000      1678
    47.0200      1428
    47.0400      1296
    47.0600      1140
    47.0800      1050
    47.1000      1022
    47.1200       904
    47.1400       860
    47.1600       774
    47.1800       736
    47.2000       720
    47.2200       672
    47.2400       612
    47.2600       624
    47.2800       596
    47.3000       534
    47.3200       532
    47.3400       486
    47.3600       492
    47.3800       540
    47.4000       492
    47.4200       502
    47.4400       476
    47.4600       506
    47.4800       444
    47.5000       468
    47.5200       446
    47.5400       444
    47.5600       414
    47.5800       454
    47.6000       458
    47.6200       478
    47.6400       448
    47.6600       490
    47.6800       516
    47.7000       502
    47.7200       532
    47.7400       572
    47.7600       574
    47.7800       576
    47.8000       642
    47.8200       660
    47.8400       722
    47.8600       662
    47.8800       732
    47.9000       644
    47.9200       700
    47.9400       680
    47.9600       658
    47.9800       654
    48.0000       572
    48.0200       630
    48.0400       582
    48.0600       618
    48.0800       648
    48.1000       624
    48.1200       624
    48.1400       674
    48.1600       718
    48.1800       716
    48.2000       762
    48.2200       818
    48.2400       812
    48.2600       762
    48.2800       754
    48.3000       790
    48.3200       796
    48.3400       856
    48.3600       812
    48.3800       846
    48.4000       826
    48.4200       876
    48.4400       862
    48.4600       912
    48.4800       976
    48.5000       994
    48.5200      1028
    48.5400      1052
    48.5600      1096
    48.5800      1114
    48.6000      1148
    48.6200      1122
    48.6400      1050
    48.6600      1120
    48.6800      1096
    48.7000      1056
    48.7200      1040
    48.7400      1004
    48.7600       928
    48.7800       912
    48.8000       866
    48.8200       806
    48.8400       792
    48.8600       666
    48.8800       706
    48.9000       602
    48.9200       576
    48.9400       562
    48.9600       546
    48.9800       562
    49.0000       466
    49.0200       480
    49.0400       442
    49.0600       430
    49.0800       358
    49.1000       454
    49.1200       366
    49.1400       368
    49.1600       382
    49.1800       350
    49.2000       340
    49.2200       338
    49.2400       310
    49.2600       298
    49.2800       334
    49.3000       318
    49.3200       300
    49.3400       324
    49.3600       296
    49.3800       296
    49.4000       282
    49.4200       298
    49.4400       292
    49.4600       304
    49.4800       296
    49.5000       304
    49.5200       316
    49.5400       326
    49.5600       294
    49.5800       320
    49.6000       276
    49.6200       288
    49.6400       350
    49.6600       338
    49.6800       348
    49.7000       382
    49.7200       344
    49.7400       348
    49.7600       336
    49.7800       354
    49.8000       356
    49.8200       368
    49.8400       400
    49.8600       368
    49.8800       354
    49.9000       422
    49.9200       432
    49.9400       428
    49.9600       440
    49.9800       478
    50.0000       496
    50.0200       522
    50.0400       568
    50.0600       546
    50.0800       584
    50.1000       688
    50.1200       728
    50.1400       790
    50.1600       834
    50.1800       866
    50.2000       990
    50.2200      1038
    50.2400      1086
    50.2600      1188
    50.2800      1194
    50.3000      1250
    50.3200      1274
    50.3400      1296
    50.3600      1320
    50.3800      1308
    50.4000      1310
    50.4200      1376
    50.4400      1290
    50.4600      1246
    50.4800      1290
    50.5000      1228
    50.5200      1200
    50.5400      1180
    50.5600      1142
    50.5800      1116
    50.6000      1158
    50.6200      1124
    50.6400      1158
    50.6600      1188
    50.6800      1230
    50.7000      1346
    50.7200      1372
    50.7400      1432
    50.7600      1520
    50.7800      1480
    50.8000      1518
    50.8200      1522
    50.8400      1458
    50.8600      1516
    50.8800      1444
    50.9000      1430
    50.9200      1414
    50.9400      1386
    50.9600      1224
    50.9800      1222
    51.0000      1210
    51.0200      1030
    51.0400      1000
    51.0600       940
    51.0800       874
    51.1000       874
    51.1200       824
    51.1400       724
    51.1600       802
    51.1800       718
    51.2000       752
    51.2200       794
    51.2400       750
    51.2600       734
    51.2800       766
    51.3000       750
    51.3200       776
    51.3400       762
    51.3600       772
    51.3800       794
    51.4000       844
    51.4200       850
    51.4400       862
    51.4600       830
    51.4800       788
    51.5000       826
    51.5200       754
    51.5400       746
    51.5600       792
    51.5800       836
    51.6000       840
    51.6200       764
    51.6400       826
    51.6600       868
    51.6800       880
    51.7000       894
    51.7200       940
    51.7400      1030
    51.7600      1068
    51.7800      1098
    51.8000      1232
    51.8200      1328
    51.8400      1380
    51.8600      1446
    51.8800      1594
    51.9000      1592
    51.9200      1666
    51.9400      1598
    51.9600      1572
    51.9800      1542
    52.0000      1426
    52.0200      1350
    52.0400      1350
    52.0600      1220
    52.0800      1206
    52.1000      1116
    52.1200      1038
    52.1400       994
    52.1600       848
    52.1800       812
    52.2000       782
    52.2200       718
    52.2400       724
    52.2600       684
    52.2800       634
    52.3000       626
    52.3200       634
    52.3400       668
    52.3600       648
    52.3800       726
    52.4000       710
    52.4200       782
    52.4400       802
    52.4600       842
    52.4800       920
    52.5000      1036
    52.5200      1064
    52.5400      1068
    52.5600      1084
    52.5800      1210
    52.6000      1262
    52.6200      1216
    52.6400      1290
    52.6600      1234
    52.6800      1256
    52.7000      1222
    52.7200      1098
    52.7400      1228
    52.7600      1092
    52.7800      1052
    52.8000      1022
    52.8200       982
    52.8400       894
    52.8600       902
    52.8800       764
    52.9000       742
    52.9200       776
    52.9400       730
    52.9600       750
    52.9800       666
    53.0000       666
    53.0200       672
    53.0400       674
    53.0600       732
    53.0800       762
    53.1000       778
    53.1200       838
    53.1400       842
    53.1600       958
    53.1800      1020
    53.2000      1108
    53.2200      1154
    53.2400      1264
    53.2600      1314
    53.2800      1430
    53.3000      1372
    53.3200      1354
    53.3400      1422
    53.3600      1304
    53.3800      1264
    53.4000      1224
    53.4200      1242
    53.4400      1140
    53.4600      1056
    53.4800       996
    53.5000       938
    53.5200       860
    53.5400       804
    53.5600       754
    53.5800       718
    53.6000       658
    53.6200       630
    53.6400       606
    53.6600       552
    53.6800       570
    53.7000       546
    53.7200       534
    53.7400       516
    53.7600       490
    53.7800       500
    53.8000       506
    53.8200       520
    53.8400       460
    53.8600       466
    53.8800       430
    53.9000       430
    53.9200       412
    53.9400       444
    53.9600       402
    53.9800       434
    54.0000       424
    54.0200       416
    54.0400       406
    54.0600       444
    54.0800       416
    54.1000       446
    54.1200       448
    54.1400       454
    54.1600       454
    54.1800       472
    54.2000       510
    54.2200       500
    54.2400       476
    54.2600       530
    54.2800       526
    54.3000       506
    54.3200       546
    54.3400       552
    54.3600       536
    54.3800       580
    54.4000       616
    54.4200       624
    54.4400       562
    54.4600       598
    54.4800       590
    54.5000       660
    54.5200       600
    54.5400       634
    54.5600       648
    54.5800       630
    54.6000       644
    54.6200       696
    54.6400       732
    54.6600       686
    54.6800       774
    54.7000       730
    54.7200       778
    54.7400       738
    54.7600       810
    54.7800       770
    54.8000       772
    54.8200       824
    54.8400       802
    54.8600       838
    54.8800       762
    54.9000       750
    54.9200       756
    54.9400       758
    54.9600       796
    54.9800       744
    55.0000       782
    55.0200       810
    55.0400       836
    55.0600       808
    55.0800       930
    55.1000       904
    55.1200       902
    55.1400       950
    55.1600      1018
    55.1800       990
    55.2000       982
    55.2200       934
    55.2400       908
    55.2600       944
    55.2800       958
    55.3000       930
    55.3200       976
    55.3400       900
    55.3600       958
    55.3800       926
    55.4000       842
    55.4200       856
    55.4400       830
    55.4600       804
    55.4800       778
    55.5000       714
    55.5200       708
    55.5400       700
    55.5600       660
    55.5800       636
    55.6000       618
    55.6200       588
    55.6400       588
    55.6600       552
    55.6800       504
    55.7000       482
    55.7200       470
    55.7400       448
    55.7600       444
    55.7800       412
    55.8000       426
    55.8200       398
    55.8400       400
    55.8600       360
    55.8800       370
    55.9000       356
    55.9200       370
    55.9400       332
    55.9600       330
    55.9800       340
    56.0000       342
    56.0200       340
    56.0400       288
    56.0600       298
    56.0800       290
    56.1000       336
    56.1200       284
    56.1400       358
    56.1600       326
    56.1800       340
    56.2000       342
    56.2200       334
    56.2400       308
    56.2600       328
    56.2800       334
    56.3000       312
    56.3200       302
    56.3400       370
    56.3600       320
    56.3800       338
    56.4000       336
    56.4200       364
    56.4400       358
    56.4600       346
    56.4800       362
    56.5000       392
    56.5200       374
    56.5400       372
    56.5600       422
    56.5800       418
    56.6000       404
    56.6200       450
    56.6400       456
    56.6600       462
    56.6800       470
    56.7000       478
    56.7200       510
    56.7400       494
    56.7600       508
    56.7800       492
    56.8000       492
    56.8200       456
    56.8400       458
    56.8600       470
    56.8800       454
    56.9000       458
    56.9200       500
    56.9400       496
    56.9600       446
    56.9800       456
    57.0000       426
    57.0200       490
    57.0400       474
    57.0600       480
    57.0800       492
    57.1000       488
    57.1200       524
    57.1400       528
    57.1600       586
    57.1800       634
    57.2000       644
    57.2200       708
    57.2400       812
    57.2600       850
    57.2800       924
    57.3000      1078
    57.3200      1200
    57.3400      1268
    57.3600      1280
    57.3800      1350
    57.4000      1416
    57.4200      1480
    57.4400      1400
    57.4600      1436
    57.4800      1390
    57.5000      1448
    57.5200      1358
    57.5400      1312
    57.5600      1270
    57.5800      1272
    57.6000      1252
    57.6200      1320
    57.6400      1268
    57.6600      1254
    57.6800      1226
    57.7000      1290
    57.7200      1360
    57.7400      1322
    57.7600      1296
    57.7800      1354
    57.8000      1270
    57.8200      1252
    57.8400      1256
    57.8600      1216
    57.8800      1126
    57.9000      1074
    57.9200      1000
    57.9400       948
    57.9600       926
    57.9800       800
    58.0000       852
    58.0200       794
    58.0400       760
    58.0600       718
    58.0800       718
    58.1000       704
    58.1200       702
    58.1400       714
    58.1600       700
    58.1800       682
    58.2000       724
    58.2200       754
    58.2400       782
    58.2600       836
    58.2800       814
    58.3000       852
    58.3200       960
    58.3400      1072
    58.3600      1150
    58.3800      1180
    58.4000      1290
    58.4200      1220
    58.4400      1382
    58.4600      1418
    58.4800      1598
    58.5000      1664
    58.5200      1734
    58.5400      1708
    58.5600      1852
    58.5800      1840
    58.6000      1974
    58.6200      2024
    58.6400      2188
    58.6600      2214
    58.6800      2262
    58.7000      2364
    58.7200      2480
    58.7400      2450
    58.7600      2474
    58.7800      2440
    58.8000      2346
    58.8200      2292
    58.8400      2258
    58.8600      2132
    58.8800      2016
    58.9000      1906
    58.9200      1842
    58.9400      1734
    58.9600      1626
    58.9800      1522
    59.0000      1424
    59.0200      1276
    59.0400      1200
    59.0600      1156
    59.0800      1100
    59.1000      1016
    59.1200       952
    59.1400       942
    59.1600       890
    59.1800       838
    59.2000       816
    59.2200       836
    59.2400       872
    59.2600       844
    59.2800       890
    59.3000       888
    59.3200       976
    59.3400      1060
    59.3600       956
    59.3800      1022
    59.4000      1030
    59.4200      1112
    59.4400      1098
    59.4600      1136
    59.4800      1158
    59.5000      1086
    59.5200      1184
    59.5400      1080
    59.5600      1038
    59.5800      1128
    59.6000      1074
    59.6200      1100
    59.6400      1076
    59.6600      1020
    59.6800       970
    59.7000      1020
    59.7200      1000
    59.7400       964
    59.7600       972
    59.7800       950
    59.8000       918
    59.8200       906
    59.8400       870
    59.8600       836
    59.8800       814
    59.9000       820
    59.9200       802
    59.9400       832
    59.9600       748
    59.9800       740
    60.0000       680
    60.0200       664
    60.0400       618
    60.0600       632
    60.0800       544
    60.1000       594
    60.1200       562
    60.1400       530
    60.1600       488
    60.1800       522
    60.2000       454
    60.2200       484
    60.2400       414
    60.2600       432
    60.2800       410
    60.3000       448
    60.3200       422
    60.3400       394
    60.3600       410
    60.3800       386
    60.4000       434
    60.4200       406
    60.4400       392
    60.4600       402
    60.4800       426
    60.5000       410
    60.5200       406
    60.5400       382
    60.5600       410
    60.5800       364
    60.6000       404
    60.6200       366
    60.6400       386
    60.6600       398
    60.6800       426
    60.7000       380
    60.7200       402
    60.7400       394
    60.7600       446
    60.7800       458
    60.8000       416
    60.8200       452
    60.8400       516
    60.8600       430
    60.8800       506
    60.9000       470
    60.9200       558
    60.9400       484
    60.9600       560
    60.9800       530
    61.0000       542
    61.0200       622
    61.0400       612
    61.0600       690
    61.0800       644
    61.1000       682
    61.1200       714
    61.1400       722
    61.1600       716
    61.1800       754
    61.2000       812
    61.2200       796
    61.2400       772
    61.2600       806
    61.2800       858
    61.3000       836
    61.3200       852
    61.3400       830
    61.3600       868
    61.3800       892
    61.4000       966
    61.4200       920
    61.4400       998
    61.4600      1076
    61.4800      1004
    61.5000      1044
    61.5200      1076
    61.5400      1058
    61.5600      1088
    61.5800       976
    61.6000       956
    61.6200       896
    61.6400       848
    61.6600       856
    61.6800       800
    61.7000       820
    61.7200       722
    61.7400       786
    61.7600       708
    61.7800       674
    61.8000       710
    61.8200       596
    61.8400       600
    61.8600       586
    61.8800       588
    61.9000       572
    61.9200       480
    61.9400       514
    61.9600       496
    61.9800       488
    62.0000       532
    62.0200       536
    62.0400       536
    62.0600       514
    62.0800       494
    62.1000       486
    62.1200       514
    62.1400       506
    62.1600       498
    62.1800       510
    62.2000       446
    62.2200       454
    62.2400       472
    62.2600       424
    62.2800       458
    62.3000       448
    62.3200       462
    62.3400       406
    62.3600       440
    62.3800       436
    62.4000       468
    62.4200       424
    62.4400       420
    62.4600       408
    62.4800       400
    62.5000       416
    62.5200       402
    62.5400       372
    62.5600       392
    62.5800       374
    62.6000       378
    62.6200       384
    62.6400       366
    62.6600       364
    62.6800       340
    62.7000       348
    62.7200       366
    62.7400       350
    62.7600       360
    62.7800       368
    62.8000       342
    62.8200       370
    62.8400       392
    62.8600       300
    62.8800       312
    62.9000       354
    62.9200       364
    62.9400       344
    62.9600       340
    62.9800       338
    63.0000       306
    63.0200       326
    63.0400       292
    63.0600       300
    63.0800       298
    63.1000       302
    63.1200       310
    63.1400       280
    63.1600       266
    63.1800       278
    63.2000       252
    63.2200       252
    63.2400       286
    63.2600       278
    63.2800       292
    63.3000       260
    63.3200       268
    63.3400       254
    63.3600       268
    63.3800       300
    63.4000       270
    63.4200       272
    63.4400       278
    63.4600       266
    63.4800       274
    63.5000       296
    63.5200       296
    63.5400       312
    63.5600       308
    63.5800       288
    63.6000       360
    63.6200       396
    63.6400       388
    63.6600       396
    63.6800       404
    63.7000       454
    63.7200       456
    63.7400       484
    63.7600       516
    63.7800       504
    63.8000       558
    63.8200       588
    63.8400       632
    63.8600       610
    63.8800       672
    63.9000       656
    63.9200       640
    63.9400       648
    63.9600       610
    63.9800       524
    64.0000       560
    64.0200       548
    64.0400       552
    64.0600       502
    64.0800       526
    64.1000       416
    64.1200       440
    64.1400       436
    64.1600       402
    64.1800       388
    64.2000       392
    64.2200       372
    64.2400       384
    64.2600       356
    64.2800       338
    64.3000       320
    64.3200       346
    64.3400       382
    64.3600       328
    64.3800       298
    64.4000       278
    64.4200       304
    64.4400       290
    64.4600       312
    64.4800       302
    64.5000       320
    64.5200       308
    64.5400       298
    64.5600       290
    64.5800       306
    64.6000       294
    64.6200       300
    64.6400       306
    64.6600       314
    64.6800       318
    64.7000       326
    64.7200       310
    64.7400       294
    64.7600       330
    64.7800       342
    64.8000       368
    64.8200       324
    64.8400       388
    64.8600       392
    64.8800       388
    64.9000       416
    64.9200       452
    64.9400       456
    64.9600       460
    64.9800       470
    65.0000       472
    65.0200       496
    65.0400       496
    65.0600       528
    65.0800       510
    65.1000       508
    65.1200       534
    65.1400       562
    65.1600       546
    65.1800       550
    65.2000       526
    65.2200       536
    65.2400       582
    65.2600       552
    65.2800       528
    65.3000       524
    65.3200       572
    65.3400       502
    65.3600       506
    65.3800       506
    65.4000       534
    65.4200       478
    65.4400       524
    65.4600       482
    65.4800       464
    65.5000       452
    65.5200       464
    65.5400       414
    65.5600       412
    65.5800       428
    65.6000       372
    65.6200       418
    65.6400       428
    65.6600       432
    65.6800       364
    65.7000       342
    65.7200       376
    65.7400       360
    65.7600       368
    65.7800       348
    65.8000       318
    65.8200       318
    65.8400       322
    65.8600       274
    65.8800       286
    65.9000       320
    65.9200       302
    65.9400       264
    65.9600       284
    65.9800       266
    66.0000       278
    66.0200       278
    66.0400       246
    66.0600       266
    66.0800       244
    66.1000       292
    66.1200       270
    66.1400       274
    66.1600       270
    66.1800       266
    66.2000       266
    66.2200       298
    66.2400       256
    66.2600       264
    66.2800       308
    66.3000       268
    66.3200       304
    66.3400       338
    66.3600       352
    66.3800       332
    66.4000       350
    66.4200       320
    66.4400       364
    66.4600       330
    66.4800       370
    66.5000       388
    66.5200       406
    66.5400       396
    66.5600       436
    66.5800       396
    66.6000       430
    66.6200       474
    66.6400       474
    66.6600       476
    66.6800       492
    66.7000       514
    66.7200       570
    66.7400       574
    66.7600       598
    66.7800       622
    66.8000       644
    66.8200       676
    66.8400       710
    66.8600       718
    66.8800       734
    66.9000       728
    66.9200       742
    66.9400       740
    66.9600       758
    66.9800       780
    67.0000       746
    67.0200       700
    67.0400       720
    67.0600       702
    67.0800       706
    67.1000       726
    67.1200       638
    67.1400       582
    67.1600       556
    67.1800       544
    67.2000       530
    67.2200       496
    67.2400       516
    67.2600       452
    67.2800       434
    67.3000       424
    67.3200       404
    67.3400       398
    67.3600       380
    67.3800       344
    67.4000       334
    67.4200       370
    67.4400       306
    67.4600       352
    67.4800       314
    67.5000       312
    67.5200       338
    67.5400       306
    67.5600       300
    67.5800       318
    67.6000       318
    67.6200       322
    67.6400       290
    67.6600       300
    67.6800       340
    67.7000       320
    67.7200       338
    67.7400       330
    67.7600       338
    67.7800       330
    67.8000       352
    67.8200       368
    67.8400       362
    67.8600       370
    67.8800       408
    67.9000       436
    67.9200       454
    67.9400       510
    67.9600       558
    67.9800       566
    68.0000       624
    68.0200       672
    68.0400       714
    68.0600       714
    68.0800       814
    68.1000       916
    68.1200       940
    68.1400       930
    68.1600      1022
    68.1800      1042
    68.2000      1036
    68.2200       926
    68.2400      1062
    68.2600      1058
    68.2800       962
    68.3000       986
    68.3200      1000
    68.3400       982
    68.3600       960
    68.3800       920
    68.4000       774
    68.4200       794
    68.4400       772
    68.4600       786
    68.4800       668
    68.5000       644
    68.5200       640
    68.5400       618
    68.5600       598
    68.5800       504
    68.6000       548
    68.6200       534
    68.6400       498
    68.6600       478
    68.6800       402
    68.7000       420
    68.7200       386
    68.7400       418
    68.7600       408
    68.7800       344
    68.8000       346
    68.8200       362
    68.8400       338
    68.8600       332
    68.8800       290
    68.9000       334
    68.9200       330
    68.9400       352
    68.9600       288
    68.9800       296
    69.0000       304
    69.0200       328
    69.0400       322
    69.0600       318
    69.0800       314
    69.1000       350
    69.1200       356
    69.1400       342
    69.1600       354
    69.1800       348
    69.2000       332
    69.2200       346
    69.2400       360
    69.2600       378
    69.2800       356
    69.3000       366
    69.3200       384
    69.3400       430
    69.3600       452
    69.3800       444
    69.4000       434
    69.4200       508
    69.4400       442
    69.4600       460
    69.4800       516
    69.5000       442
    69.5200       460
    69.5400       420
    69.5600       456
    69.5800       426
    69.6000       438
    69.6200       430
    69.6400       412
    69.6600       410
    69.6800       412
    69.7000       402
    69.7200       380
    69.7400       376
    69.7600       404
    69.7800       378
    69.8000       388
    69.8200       386
    69.8400       394
    69.8600       348
    69.8800       328
    69.9000       344
    69.9200       320
    69.9400       324
    69.9600       324
    69.9800       324
    70.0000       296
    70.0200       324
    70.0400       300
    70.0600       274
    70.0800       308
    70.1000       260
    70.1200       258
    70.1400       244
    70.1600       256
    70.1800       250
    70.2000       234
    70.2200       218
    70.2400       210
    70.2600       236
    70.2800       212
    70.3000       218
    70.3200       246
    70.3400       238
    70.3600       236
    70.3800       234
    70.4000       234
    70.4200       260
    70.4400       218
    70.4600       212
    70.4800       214
    70.5000       228
    70.5200       224
    70.5400       204
    70.5600       206
    70.5800       244
    70.6000       212
    70.6200       242
    70.6400       212
    70.6600       234
    70.6800       218
    70.7000       230
    70.7200       226
    70.7400       220
    70.7600       226
    70.7800       226
    70.8000       230
    70.8200       206
    70.8400       246
    70.8600       216
    70.8800       210
    70.9000       200
    70.9200       214
    70.9400       222
    70.9600       202
    70.9800       214
    71.0000       214
    71.0200       194
    71.0400       228
    71.0600       208
    71.0800       226
    71.1000       252
    71.1200       224
    71.1400       232
    71.1600       236
    71.1800       254
    71.2000       250
    71.2200       276
    71.2400       270
    71.2600       274
    71.2800       284
    71.3000       274
    71.3200       298
    71.3400       360
    71.3600       346
    71.3800       372
    71.4000       352
    71.4200       392
    71.4400       440
    71.4600       484
    71.4800       434
    71.5000       480
    71.5200       460
    71.5400       504
    71.5600       480
    71.5800       558
    71.6000       510
    71.6200       492
    71.6400       490
    71.6600       514
    71.6800       498
    71.7000       520
    71.7200       498
    71.7400       476
    71.7600       442
    71.7800       468
    71.8000       476
    71.8200       458
    71.8400       440
    71.8600       418
    71.8800       448
    71.9000       414
    71.9200       426
    71.9400       432
    71.9600       428
    71.9800       414
    72.0000       422
    72.0200       402
    72.0400       382
    72.0600       366
    72.0800       356
    72.1000       370
    72.1200       398
    72.1400       386
    72.1600       386
    72.1800       394
    72.2000       468
    72.2200       388
    72.2400       448
    72.2600       482
    72.2800       416
    72.3000       438
    72.3200       504
    72.3400       472
    72.3600       448
    72.3800       476
    72.4000       498
    72.4200       446
    72.4400       494
    72.4600       482
    72.4800       462
    72.5000       434
    72.5200       482
    72.5400       446
    72.5600       524
    72.5800       482
    72.6000       436
    72.6200       458
    72.6400       466
    72.6600       442
    72.6800       512
    72.7000       444
    72.7200       496
    72.7400       484
    72.7600       452
    72.7800       496
    72.8000       498
    72.8200       494
    72.8400       482
    72.8600       448
    72.8800       470
    72.9000       454
    72.9200       394
    72.9400       460
    72.9600       410
    72.9800       428
    73.0000       454
    73.0200       398
    73.0400       426
    73.0600       388
    73.0800       398
    73.1000       308
    73.1200       386
    73.1400       354
    73.1600       330
    73.1800       318
    73.2000       302
    73.2200       278
    73.2400       314
    73.2600       274
    73.2800       282
    73.3000       258
    73.3200       232
    73.3400       266
    73.3600       292
    73.3800       200
    73.4000       244
    73.4200       250
    73.4400       228
    73.4600       234
    73.4800       234
    73.5000       256
    73.5200       242
    73.5400       270
    73.5600       268
    73.5800       240
    73.6000       282
    73.6200       220
    73.6400       260
    73.6600       278
    73.6800       260
    73.7000       278
    73.7200       304
    73.7400       284
    73.7600       282
    73.7800       304
    73.8000       326
    73.8200       336
    73.8400       336
    73.8600       278
    73.8800       298
    73.9000       304
    73.9200       314
    73.9400       332
    73.9600       330
    73.9800       324
    74.0000       368
    74.0200       336
    74.0400       338
    74.0600       312
    74.0800       316
    74.1000       352
    74.1200       348
    74.1400       314
    74.1600       348
    74.1800       340
    74.2000       322
    74.2200       302
    74.2400       294
    74.2600       310
    74.2800       266
    74.3000       308
    74.3200       302
    74.3400       298
    74.3600       276
    74.3800       276
    74.4000       250
    74.4200       256
    74.4400       240
    74.4600       228
    74.4800       230
    74.5000       226
    74.5200       250
    74.5400       204
    74.5600       210
    74.5800       228
    74.6000       220
    74.6200       204
    74.6400       178
    74.6600       210
    74.6800       188
    74.7000       192
    74.7200       190
    74.7400       188
    74.7600       188
    74.7800       180
    74.8000       200
    74.8200       206
    74.8400       192
    74.8600       174
    74.8800       186
    74.9000       204
    74.9200       196
    74.9400       222
    74.9600       196
    74.9800       202
    75.0000       206
    75.0200       210
    75.0400       214
    75.0600       250
    75.0800       198
    75.1000       196
    75.1200       238
    75.1400       222
    75.1600       248
    75.1800       240
    75.2000       218
    75.2200       212
    75.2400       252
    75.2600       220
    75.2800       234
    75.3000       232
    75.3200       228
    75.3400       254
    75.3600       230
    75.3800       218
    75.4000       234
    75.4200       244
    75.4400       214
    75.4600       240
    75.4800       240
    75.5000       234
    75.5200       236
    75.5400       230
    75.5600       216
    75.5800       260
    75.6000       236
    75.6200       244
    75.6400       212
    75.6600       252
    75.6800       280
    75.7000       232
    75.7200       236
    75.7400       246
    75.7600       246
    75.7800       226
    75.8000       250
    75.8200       236
    75.8400       256
    75.8600       238
    75.8800       218
    75.9000       220
    75.9200       250
    75.9400       232
    75.9600       230
    75.9800       246
    76.0000       208
    76.0200       236
    76.0400       254
    76.0600       262
    76.0800       226
    76.1000       252
    76.1200       244
    76.1400       276
    76.1600       274
    76.1800       234
    76.2000       284
    76.2200       266
    76.2400       268
    76.2600       276
    76.2800       278
    76.3000       298
    76.3200       320
    76.3400       300
    76.3600       326
    76.3800       358
    76.4000       344
    76.4200       300
    76.4400       332
    76.4600       350
    76.4800       348
    76.5000       354
    76.5200       360
    76.5400       346
    76.5600       386
    76.5800       402
    76.6000       374
    76.6200       416
    76.6400       368
    76.6600       382
    76.6800       350
    76.7000       396
    76.7200       366
    76.7400       412
    76.7600       360
    76.7800       414
    76.8000       362
    76.8200       398
    76.8400       366
    76.8600       400
    76.8800       338
    76.9000       364
    76.9200       356
    76.9400       364
    76.9600       344
    76.9800       300
    77.0000       334
    77.0200       318
    77.0400       362
    77.0600       326
    77.0800       332
    77.1000       346
    77.1200       320
    77.1400       318
    77.1600       336
    77.1800       344
    77.2000       332
    77.2200       314
    77.2400       342
    77.2600       374
    77.2800       372
    77.3000       364
    77.3200       352
    77.3400       368
    77.3600       366
    77.3800       380
    77.4000       394
    77.4200       448
    77.4400       468
    77.4600       496
    77.4800       508
    77.5000       514
    77.5200       570
    77.5400       548
    77.5600       572
    77.5800       644
    77.6000       620
    77.6200       658
    77.6400       654
    77.6600       694
    77.6800       684
    77.7000       684
    77.7200       694
    77.7400       668
    77.7600       718
    77.7800       662
    77.8000       624
    77.8200       628
    77.8400       656
    77.8600       636
    77.8800       614
    77.9000       608
    77.9200       568
    77.9400       534
    77.9600       544
    77.9800       506
    78.0000       530
    78.0200       534
    78.0400       474
    78.0600       440
    78.0800       484
    78.1000       418
    78.1200       438
    78.1400       378
    78.1600       384
    78.1800       382
    78.2000       418
    78.2200       366
    78.2400       374
    78.2600       400
    78.2800       384
    78.3000       382
    78.3200       370
    78.3400       318
    78.3600       370
    78.3800       364
    78.4000       348
    78.4200       392
    78.4400       308
    78.4600       382
    78.4800       358
    78.5000       398
    78.5200       378
    78.5400       416
    78.5600       372
    78.5800       376
    78.6000       400
    78.6200       418
    78.6400       398
    78.6600       400
    78.6800       412
    78.7000       374
    78.7200       412
    78.7400       376
    78.7600       352
    78.7800       382
    78.8000       378
    78.8200       384
    78.8400       370
    78.8600       330
    78.8800       318
    78.9000       338
    78.9200       332
    78.9400       314
    78.9600       328
    78.9800       360
    79.0000       294
    79.0200       318
    79.0400       294
    79.0600       306
    79.0800       292
    79.1000       286
    79.1200       294
    79.1400       256
    79.1600       254
    79.1800       270
    79.2000       270
    79.2200       288
    79.2400       260
    79.2600       262
    79.2800       234
    79.3000       246
    79.3200       258
    79.3400       264
    79.3600       248
    79.3800       238
    79.4000       236
    79.4200       244
    79.4400       252
    79.4600       244
    79.4800       250
    79.5000       244
    79.5200       242
    79.5400       244
    79.5600       242
    79.5800       260
    79.6000       236
    79.6200       274
    79.6400       266
    79.6600       248
    79.6800       246
    79.7000       228
    79.7200       264
    79.7400       212
    79.7600       216
    79.7800       248
    79.8000       274
    79.8200       264
    79.8400       218
    79.8600       246
    79.8800       220
    79.9000       256
    79.9200       248
    79.9400       252
    79.9600       232
    79.9800       220
    80.0000       258
    80.0200       256
    80.0400       236
    80.0600       248
    80.0800       264
    80.1000       244
    80.1200       234
    80.1400       248
    80.1600       246
    80.1800       224
    80.2000       232
    80.2200       226
    80.2400       246
    80.2600       242
    80.2800       234
    80.3000       228
    80.3200       252
    80.3400       232
    80.3600       260
    80.3800       256
    80.4000       262
    80.4200       258
    80.4400       276
    80.4600       278
    80.4800       248
    80.5000       302
    80.5200       256
    80.5400       270
    80.5600       276
    80.5800       278
    80.6000       278
    80.6200       258
    80.6400       246
    80.6600       226
    80.6800       268
    80.7000       276
    80.7200       222
    80.7400       254
    80.7600       268
    80.7800       226
    80.8000       254
    80.8200       254
    80.8400       230
    80.8600       226
    80.8800       248
    80.9000       236
    80.9200       232
    80.9400       206
    80.9600       210
    80.9800       244
    81.0000       214
    81.0200       216
    81.0400       220
    81.0600       214
    81.0800       244
    81.1000       210
    81.1200       202
    81.1400       246
    81.1600       206
    81.1800       222
    81.2000       238
    81.2200       240
    81.2400       216
    81.2600       230
    81.2800       228
    81.3000       240
    81.3200       230
    81.3400       268
    81.3600       264
    81.3800       262
    81.4000       258
    81.4200       244
    81.4400       266
    81.4600       250
    81.4800       270
    81.5000       270
    81.5200       274
    81.5400       244
    81.5600       254
    81.5800       276
    81.6000       242
    81.6200       274
    81.6400       280
    81.6600       278
    81.6800       280
    81.7000       306
    81.7200       264
    81.7400       284
    81.7600       300
    81.7800       274
    81.8000       292
    81.8200       290
    81.8400       274
    81.8600       288
    81.8800       282
    81.9000       310
    81.9200       326
    81.9400       312
    81.9600       302
    81.9800       316
    82.0000       320
    82.0200       312
    82.0400       358
    82.0600       348
    82.0800       310
    82.1000       334
    82.1200       330
    82.1400       362
    82.1600       342
    82.1800       360
    82.2000       342
    82.2200       360
    82.2400       376
    82.2600       344
    82.2800       426
    82.3000       388
    82.3200       376
    82.3400       414
    82.3600       374
    82.3800       420
    82.4000       378
    82.4200       424
    82.4400       418
    82.4600       438
    82.4800       408
    82.5000       412
    82.5200       464
    82.5400       440
    82.5600       442
    82.5800       460
    82.6000       448
    82.6200       454
    82.6400       458
    82.6600       490
    82.6800       490
    82.7000       534
    82.7200       508
    82.7400       520
    82.7600       530
    82.7800       510
    82.8000       582
    82.8200       566
    82.8400       610
    82.8600       594
    82.8800       636
    82.9000       584
    82.9200       532
    82.9400       548
    82.9600       520
    82.9800       522
    83.0000       522
    83.0200       542
    83.0400       510
    83.0600       544
    83.0800       538
    83.1000       490
    83.1200       524
    83.1400       444
    83.1600       474
    83.1800       434
    83.2000       450
    83.2200       442
    83.2400       436
    83.2600       446
    83.2800       388
    83.3000       436
    83.3200       374
    83.3400       382
    83.3600       420
    83.3800       386
    83.4000       350
    83.4200       354
    83.4400       400
    83.4600       360
    83.4800       370
    83.5000       332
    83.5200       342
    83.5400       306
    83.5600       364
    83.5800       282
    83.6000       336
    83.6200       304
    83.6400       352
    83.6600       262
    83.6800       314
    83.7000       308
    83.7200       286
    83.7400       266
    83.7600       288
    83.7800       292
    83.8000       308
    83.8200       276
    83.8400       268
    83.8600       284
    83.8800       290
    83.9000       272
    83.9200       272
    83.9400       282
    83.9600       314
    83.9800       314
    84.0000       302
    84.0200       344
    84.0400       290
    84.0600       290
    84.0800       286
    84.1000       310
    84.1200       322
    84.1400       316
    84.1600       300
    84.1800       318
    84.2000       308
    84.2200       300
    84.2400       280
    84.2600       280
    84.2800       286
    84.3000       296
    84.3200       340
    84.3400       290
    84.3600       306
    84.3800       318
    84.4000       290
    84.4200       316
    84.4400       306
    84.4600       292
    84.4800       268
    84.5000       318
    84.5200       304
    84.5400       284
    84.5600       310
    84.5800       272
    84.6000       318
    84.6200       302
    84.6400       286
    84.6600       306
    84.6800       282
    84.7000       294
    84.7200       298
    84.7400       284
    84.7600       242
    84.7800       278
    84.8000       274
    84.8200       292
    84.8400       252
    84.8600       250
    84.8800       314
    84.9000       278
    84.9200       266
    84.9400       234
    84.9600       254
    84.9800       252
    85.0000       274
    85.0200       240
    85.0400       258
    85.0600       262
    85.0800       234
    85.1000       260
    85.1200       274
    85.1400       244
    85.1600       218
    85.1800       226
    85.2000       224
    85.2200       216
    85.2400       210
    85.2600       234
    85.2800       240
    85.3000       218
    85.3200       224
    85.3400       266
    85.3600       254
    85.3800       250
    85.4000       252
    85.4200       240
    85.4400       276
    85.4600       276
    85.4800       260
    85.5000       290
    85.5200       260
    85.5400       268
    85.5600       272
    85.5800       266
    85.6000       272
    85.6200       276
    85.6400       284
    85.6600       260
    85.6800       308
    85.7000       262
    85.7200       258
    85.7400       284
    85.7600       270
    85.7800       296
    85.8000       274
    85.8200       246
    85.8400       248
    85.8600       256
    85.8800       244
    85.9000       258
    85.9200       256
    85.9400       242
    85.9600       254
    85.9800       250
    86.0000       252
    86.0200       266
    86.0400       254
    86.0600       238
    86.0800       234
    86.1000       228
    86.1200       242
    86.1400       260
    86.1600       232
    86.1800       224
    86.2000       232
    86.2200       216
    86.2400       210
    86.2600       272
    86.2800       244
    86.3000       250
    86.3200       248
    86.3400       218
    86.3600       258
    86.3800       216
    86.4000       232
    86.4200       230
    86.4400       238
    86.4600       248
    86.4800       234
    86.5000       226
    86.5200       238
    86.5400       262
    86.5600       272
    86.5800       258
    86.6000       254
    86.6200       254
    86.6400       264
    86.6600       266
    86.6800       276
    86.7000       254
    86.7200       292
    86.7400       256
    86.7600       282
    86.7800       290
    86.8000       294
    86.8200       304
    86.8400       326
    86.8600       280
    86.8800       298
    86.9000       334
    86.9200       330
    86.9400       310
    86.9600       304
    86.9800       314
    87.0000       330
    87.0200       332
    87.0400       320
    87.0600       358
    87.0800       320
    87.1000       328
    87.1200       296
    87.1400       326
    87.1600       308
    87.1800       304
    87.2000       322
    87.2200       314
    87.2400       298
    87.2600       288
    87.2800       316
    87.3000       316
    87.3200       292
    87.3400       298
    87.3600       264
    87.3800       310
    87.4000       334
    87.4200       312
    87.4400       276
    87.4600       310
    87.4800       310
    87.5000       316
    87.5200       288
    87.5400       326
    87.5600       294
    87.5800       320
    87.6000       328
    87.6200       326
    87.6400       324
    87.6600       344
    87.6800       344
    87.7000       326
    87.7200       326
    87.7400       324
    87.7600       290
    87.7800       360
    87.8000       320
    87.8200       360
    87.8400       358
    87.8600       332
    87.8800       358
    87.9000       308
    87.9200       402
    87.9400       340
    87.9600       356
    87.9800       340
    88.0000       354
    88.0200       352
    88.0400       362
    88.0600       358
    88.0800       370
    88.1000       342
    88.1200       336
    88.1400       348
    88.1600       316
    88.1800       390
    88.2000       372
    88.2200       334
    88.2400       348
    88.2600       390
    88.2800       350
    88.3000       350
    88.3200       398
    88.3400       368
    88.3600       320
    88.3800       364
    88.4000       358
    88.4200       378
    88.4400       382
    88.4600       374
    88.4800       346
    88.5000       336
    88.5200       370
    88.5400       338
    88.5600       322
    88.5800       350
    88.6000       330
    88.6200       344
    88.6400       356
    88.6600       370
    88.6800       366
    88.7000       358
    88.7200       314
    88.7400       332
    88.7600       344
    88.7800       276
    88.8000       302
    88.8200       282
    88.8400       324
    88.8600       344
    88.8800       306
    88.9000       336
    88.9200       296
    88.9400       290
    88.9600       294
    88.9800       260
    89.0000       238
    89.0200       234
    89.0400       244
    89.0600       280
    89.0800       226
    89.1000       228
    89.1200       254
    89.1400       240
    89.1600       230
    89.1800       266
    89.2000       262
    89.2200       250
    89.2400       226
    89.2600       220
    89.2800       240
    89.3000       234
    89.3200       250
    89.3400       238
    89.3600       236
    89.3800       232
    89.4000       214
    89.4200       266
    89.4400       198
    89.4600       248
    89.4800       260
    89.5000       230
    89.5200       250
    89.5400       250
    89.5600       238
    89.5800       254
    89.6000       244
    89.6200       262
    89.6400       254
    89.6600       254
    89.6800       294
    89.7000       254
    89.7200       268
    89.7400       248
    89.7600       248
    89.7800       262
    89.8000       254
    89.8200       284
    89.8400       282
    89.8600       270
    89.8800       272
    89.9000       268
    89.9200       270
    89.9400       286
    89.9600       300
    89.9800       284
    90.0000       272
