    10.0000       364
    10.0200       348
    10.0400       400
    10.0600       382
    10.0800       350
    10.1000       348
    10.1200       376
    10.1400       380
    10.1600       378
    10.1800       340
    10.2000       360
    10.2200       366
    10.2400       406
    10.2600       386
    10.2800       346
    10.3000       362
    10.3200       354
    10.3400       340
    10.3600       382
    10.3800       384
    10.4000       342
    10.4200       360
    10.4400       346
    10.4600       358
    10.4800       380
    10.5000       326
    10.5200       360
    10.5400       336
    10.5600       344
    10.5800       324
    10.6000       370
    10.6200       362
    10.6400       332
    10.6600       348
    10.6800       350
    10.7000       354
    10.7200       338
    10.7400       334
    10.7600       350
    10.7800       348
    10.8000       324
    10.8200       330
    10.8400       342
    10.8600       342
    10.8800       362
    10.9000       312
    10.9200       358
    10.9400       318
    10.9600       342
    10.9800       332
    11.0000       314
    11.0200       310
    11.0400       382
    11.0600       342
    11.0800       322
    11.1000       326
    11.1200       336
    11.1400       328
    11.1600       304
    11.1800       304
    11.2000       334
    11.2200       368
    11.2400       326
    11.2600       350
    11.2800       328
    11.3000       340
    11.3200       336
    11.3400       326
    11.3600       330
    11.3800       308
    11.4000       326
    11.4200       352
    11.4400       308
    11.4600       338
    11.4800       338
    11.5000       326
    11.5200       330
    11.5400       304
    11.5600       286
    11.5800       288
    11.6000       318
    11.6200       300
    11.6400       324
    11.6600       304
    11.6800       312
    11.7000       312
    11.7200       306
    11.7400       328
    11.7600       294
    11.7800       310
    11.8000       336
    11.8200       306
    11.8400       300
    11.8600       318
    11.8800       306
    11.9000       326
    11.9200       310
    11.9400       324
    11.9600       308
    11.9800       290
    12.0000       298
    12.0200       308
    12.0400       290
    12.0600       298
    12.0800       288
    12.1000       278
    12.1200       318
    12.1400       322
    12.1600       266
    12.1800       308
    12.2000       300
    12.2200       316
    12.2400       284
    12.2600       304
    12.2800       306
    12.3000       282
    12.3200       296
    12.3400       272
    12.3600       302
    12.3800       304
    12.4000       322
    12.4200       270
    12.4400       310
    12.4600       298
    12.4800       282
    12.5000       314
    12.5200       308
    12.5400       302
    12.5600       286
    12.5800       290
    12.6000       292
    12.6200       308
    12.6400       278
    12.6600       314
    12.6800       318
    12.7000       266
    12.7200       276
    12.7400       310
    12.7600       258
    12.7800       276
    12.8000       308
    12.8200       282
    12.8400       278
    12.8600       270
    12.8800       282
    12.9000       300
    12.9200       270
    12.9400       244
    12.9600       266
    12.9800       242
    13.0000       292
    13.0200       258
    13.0400       266
    13.0600       306
    13.0800       280
    13.1000       288
    13.1200       280
    13.1400       274
    13.1600       262
    13.1800       280
    13.2000       284
    13.2200       292
    13.2400       264
    13.2600       298
    13.2800       276
    13.3000       260
    13.3200       286
    13.3400       278
    13.3600       256
    13.3800       266
    13.4000       284
    13.4200       272
    13.4400       230
    13.4600       286
    13.4800       224
    13.5000       262
    13.5200       276
    13.5400       280
    13.5600       248
    13.5800       228
    13.6000       274
    13.6200       256
    13.6400       274
    13.6600       254
    13.6800       256
    13.7000       266
    13.7200       268
    13.7400       260
    13.7600       254
    13.7800       264
    13.8000       248
    13.8200       248
    13.8400       236
    13.8600       282
    13.8800       250
    13.9000       298
    13.9200       274
    13.9400       260
    13.9600       240
    13.9800       244
    14.0000       276
    14.0200       242
    14.0400       268
    14.0600       294
    14.0800       254
    14.1000       260
    14.1200       242
    14.1400       246
    14.1600       300
    14.1800       270
    14.2000       272
    14.2200       240
    14.2400       252
    14.2600       244
    14.2800       274
    14.3000       250
    14.3200       246
    14.3400       244
    14.3600       224
    14.3800       256
    14.4000       232
    14.4200       236
    14.4400       244
    14.4600       234
    14.4800       252
    14.5000       260
    14.5200       234
    14.5400       234
    14.5600       206
    14.5800       258
    14.6000       262
    14.6200       232
    14.6400       232
    14.6600       244
    14.6800       242
    14.7000       224
    14.7200       262
    14.7400       264
    14.7600       234
    14.7800       240
    14.8000       274
    14.8200       230
    14.8400       270
    14.8600       242
    14.8800       264
    14.9000       240
    14.9200       248
    14.9400       240
    14.9600       218
    14.9800       240
    15.0000       260
    15.0200       240
    15.0400       254
    15.0600       260
    15.0800       218
    15.1000       228
    15.1200       236
    15.1400       220
    15.1600       268
    15.1800       278
    15.2000       258
    15.2200       230
    15.2400       276
    15.2600       268
    15.2800       232
    15.3000       234
    15.3200       240
    15.3400       240
    15.3600       216
    15.3800       214
    15.4000       234
    15.4200       220
    15.4400       242
    15.4600       252
    15.4800       254
    15.5000       266
    15.5200       244
    15.5400       274
    15.5600       288
    15.5800       272
    15.6000       280
    15.6200       274
    15.6400       254
    15.6600       256
    15.6800       274
    15.7000       238
    15.7200       252
    15.7400       254
    15.7600       246
    15.7800       258
    15.8000       244
    15.8200       254
    15.8400       242
    15.8600       264
    15.8800       246
    15.9000       250
    15.9200       256
    15.9400       246
    15.9600       236
    15.9800       230
    16.0000       234
    16.0200       224
    16.0400       226
    16.0600       210
    16.0800       234
    16.1000       238
    16.1200       222
    16.1400       238
    16.1600       224
    16.1800       270
    16.2000       242
    16.2200       206
    16.2400       260
    16.2600       194
    16.2800       224
    16.3000       226
    16.3200       252
    16.3400       216
    16.3600       240
    16.3800       212
    16.4000       204
    16.4200       218
    16.4400       228
    16.4600       218
    16.4800       216
    16.5000       218
    16.5200       232
    16.5400       208
    16.5600       218
    16.5800       218
    16.6000       228
    16.6200       230
    16.6400       254
    16.6600       186
    16.6800       236
    16.7000       228
    16.7200       250
    16.7400       248
    16.7600       192
    16.7800       208
    16.8000       214
    16.8200       230
    16.8400       194
    16.8600       248
    16.8800       212
    16.9000       232
    16.9200       220
    16.9400       202
    16.9600       252
    16.9800       220
    17.0000       218
    17.0200       232
    17.0400       218
    17.0600       204
    17.0800       248
    17.1000       190
    17.1200       230
    17.1400       234
    17.1600       236
    17.1800       242
    17.2000       226
    17.2200       204
    17.2400       234
    17.2600       202
    17.2800       246
    17.3000       214
    17.3200       218
    17.3400       208
    17.3600       222
    17.3800       206
    17.4000       242
    17.4200       202
    17.4400       226
    17.4600       204
    17.4800       204
    17.5000       216
    17.5200       214
    17.5400       214
    17.5600       214
    17.5800       196
    17.6000       194
    17.6200       218
    17.6400       196
    17.6600       206
    17.6800       218
    17.7000       222
    17.7200       216
    17.7400       206
    17.7600       202
    17.7800       200
    17.8000       184
    17.8200       216
    17.8400       218
    17.8600       234
    17.8800       216
    17.9000       200
    17.9200       196
    17.9400       228
    17.9600       194
    17.9800       194
    18.0000       214
    18.0200       210
    18.0400       202
    18.0600       188
    18.0800       230
    18.1000       248
    18.1200       214
    18.1400       198
    18.1600       238
    18.1800       206
    18.2000       210
    18.2200       220
    18.2400       232
    18.2600       234
    18.2800       248
    18.3000       230
    18.3200       204
    18.3400       212
    18.3600       204
    18.3800       220
    18.4000       246
    18.4200       244
    18.4400       246
    18.4600       220
    18.4800       236
    18.5000       254
    18.5200       242
    18.5400       276
    18.5600       236
    18.5800       254
    18.6000       266
    18.6200       308
    18.6400       280
    18.6600       312
    18.6800       302
    18.7000       270
    18.7200       324
    18.7400       344
    18.7600       366
    18.7800       354
    18.8000       424
    18.8200       430
    18.8400       406
    18.8600       450
    18.8800       474
    18.9000       520
    18.9200       532
    18.9400       498
    18.9600       544
    18.9800       562
    19.0000       558
    19.0200       544
    19.0400       442
    19.0600       466
    19.0800       442
    19.1000       428
    19.1200       454
    19.1400       520
    19.1600       524
    19.1800       572
    19.2000       530
    19.2200       636
    19.2400       680
    19.2600       736
    19.2800       850
    19.3000       896
    19.3200      1062
    19.3400      1124
    19.3600      1284
    19.3800      1534
    19.4000      1784
    19.4200      2072
    19.4400      2440
    19.4600      2848
    19.4800      3152
    19.5000      3470
    19.5200      3680
    19.5400      3734
    19.5600      3658
    19.5800      3338
    19.6000      2982
    19.6200      2450
    19.6400      1958
    19.6600      1636
    19.6800      1354
    19.7000      1160
    19.7200      1220
    19.7400      1148
    19.7600      1272
    19.7800      1216
    19.8000      1352
    19.8200      1486
    19.8400      1620
    19.8600      1906
    19.8800      2050
    19.9000      2330
    19.9200      2514
    19.9400      2754
    19.9600      2810
    19.9800      2936
    20.0000      2866
    20.0200      2676
    20.0400      2264
    20.0600      2022
    20.0800      1590
    20.1000      1300
    20.1200       990
    20.1400       840
    20.1600       730
    20.1800       626
    20.2000       530
    20.2200       468
    20.2400       432
    20.2600       420
    20.2800       420
    20.3000       362
    20.3200       372
    20.3400       366
    20.3600       336
    20.3800       328
    20.4000       308
    20.4200       328
    20.4400       300
    20.4600       284
    20.4800       272
    20.5000       290
    20.5200       252
    20.5400       258
    20.5600       244
    20.5800       242
    20.6000       258
    20.6200       196
    20.6400       234
    20.6600       244
    20.6800       192
    20.7000       218
    20.7200       214
    20.7400       240
    20.7600       216
    20.7800       228
    20.8000       266
    20.8200       258
    20.8400       218
    20.8600       248
    20.8800       252
    20.9000       196
    20.9200       236
    20.9400       222
    20.9600       220
    20.9800       222
    21.0000       230
    21.0200       258
    21.0400       270
    21.0600       238
    21.0800       230
    21.1000       262
    21.1200       210
    21.1400       220
    21.1600       202
    21.1800       204
    21.2000       226
    21.2200       224
    21.2400       238
    21.2600       200
    21.2800       224
    21.3000       238
    21.3200       200
    21.3400       214
    21.3600       212
    21.3800       198
    21.4000       214
    21.4200       206
    21.4400       214
    21.4600       190
    21.4800       222
    21.5000       224
    21.5200       202
    21.5400       230
    21.5600       236
    21.5800       196
    21.6000       228
    21.6200       232
    21.6400       222
    21.6600       230
    21.6800       192
    21.7000       192
    21.7200       224
    21.7400       214
    21.7600       230
    21.7800       256
    21.8000       238
    21.8200       238
    21.8400       272
    21.8600       246
    21.8800       258
    21.9000       260
    21.9200       274
    21.9400       248
    21.9600       240
    21.9800       256
    22.0000       238
    22.0200       248
    22.0400       258
    22.0600       236
    22.0800       258
    22.1000       264
    22.1200       236
    22.1400       270
    22.1600       234
    22.1800       236
    22.2000       246
    22.2200       262
    22.2400       276
    22.2600       296
    22.2800       282
    22.3000       292
    22.3200       276
    22.3400       328
    22.3600       334
    22.3800       338
    22.4000       396
    22.4200       392
    22.4400       444
    22.4600       438
    22.4800       502
    22.5000       576
    22.5200       646
    22.5400       686
    22.5600       782
    22.5800       932
    22.6000       982
    22.6200      1138
    22.6400      1382
    22.6600      1504
    22.6800      1812
    22.7000      2104
    22.7200      2382
    22.7400      2700
    22.7600      3330
    22.7800      3728
    22.8000      4212
    22.8200      4832
    22.8400      5218
    22.8600      5278
    22.8800      5086
    22.9000      4690
    22.9200      4166
    22.9400      3612
    22.9600      2816
    22.9800      2230
    23.0000      1946
    23.0200      1620
    23.0400      1350
    23.0600      1242
    23.0800      1198
    23.1000      1066
    23.1200       978
    23.1400       916
    23.1600       836
    23.1800       780
    23.2000       700
    23.2200       666
    23.2400       664
    23.2600       586
    23.2800       552
    23.3000       520
    23.3200       512
    23.3400       410
    23.3600       400
    23.3800       382
    23.4000       396
    23.4200       368
    23.4400       328
    23.4600       348
    23.4800       328
    23.5000       316
    23.5200       300
    23.5400       286
    23.5600       302
    23.5800       290
    23.6000       280
    23.6200       258
    23.6400       262
    23.6600       262
    23.6800       284
    23.7000       260
    23.7200       298
    23.7400       286
    23.7600       272
    23.7800       284
    23.8000       272
    23.8200       250
    23.8400       232
    23.8600       264
    23.8800       282
    23.9000       276
    23.9200       278
    23.9400       268
    23.9600       278
    23.9800       252
    24.0000       246
    24.0200       282
    24.0400       268
    24.0600       254
    24.0800       242
    24.1000       252
    24.1200       258
    24.1400       242
    24.1600       226
    24.1800       222
    24.2000       230
    24.2200       246
    24.2400       228
    24.2600       248
    24.2800       208
    24.3000       234
    24.3200       198
    24.3400       208
    24.3600       224
    24.3800       244
    24.4000       238
    24.4200       222
    24.4400       220
    24.4600       228
    24.4800       218
    24.5000       222
    24.5200       208
    24.5400       216
    24.5600       226
    24.5800       206
    24.6000       196
    24.6200       218
    24.6400       218
    24.6600       198
    24.6800       234
    24.7000       204
    24.7200       222
    24.7400       190
    24.7600       228
    24.7800       184
    24.8000       194
    24.8200       228
    24.8400       214
    24.8600       210
    24.8800       220
    24.9000       200
    24.9200       206
    24.9400       220
    24.9600       236
    24.9800       228
    25.0000       214
    25.0200       234
    25.0400       202
    25.0600       226
    25.0800       222
    25.1000       214
    25.1200       242
    25.1400       256
    25.1600       230
    25.1800       250
    25.2000       258
    25.2200       262
    25.2400       298
    25.2600       296
    25.2800       328
    25.3000       332
    25.3200       344
    25.3400       366
    25.3600       386
    25.3800       422
    25.4000       460
    25.4200       560
    25.4400       540
    25.4600       642
    25.4800       746
    25.5000       834
    25.5200       898
    25.5400      1038
    25.5600      1164
    25.5800      1180
    25.6000      1138
    25.6200      1086
    25.6400      1102
    25.6600       948
    25.6800       910
    25.7000       754
    25.7200       678
    25.7400       530
    25.7600       458
    25.7800       416
    25.8000       394
    25.8200       338
    25.8400       322
    25.8600       290
    25.8800       290
    25.9000       264
    25.9200       292
    25.9400       294
    25.9600       284
    25.9800       268
    26.0000       252
    26.0200       240
    26.0400       262
    26.0600       252
    26.0800       274
    26.1000       252
    26.1200       246
    26.1400       264
    26.1600       258
    26.1800       226
    26.2000       258
    26.2200       258
    26.2400       260
    26.2600       254
    26.2800       272
    26.3000       258
    26.3200       262
    26.3400       282
    26.3600       238
    26.3800       260
    26.4000       254
    26.4200       240
    26.4400       262
    26.4600       258
    26.4800       226
    26.5000       226
    26.5200       252
    26.5400       262
    26.5600       268
    26.5800       258
    26.6000       252
    26.6200       266
    26.6400       250
    26.6600       234
    26.6800       280
    26.7000       250
    26.7200       236
    26.7400       232
    26.7600       256
    26.7800       248
    26.8000       214
    26.8200       236
    26.8400       222
    26.8600       222
    26.8800       244
    26.9000       208
    26.9200       232
    26.9400       214
    26.9600       230
    26.9800       240
    27.0000       222
    27.0200       198
    27.0400       222
    27.0600       240
    27.0800       212
    27.1000       208
    27.1200       200
    27.1400       206
    27.1600       240
    27.1800       208
    27.2000       208
    27.2200       206
    27.2400       228
    27.2600       252
    27.2800       254
    27.3000       208
    27.3200       218
    27.3400       248
    27.3600       206
    27.3800       234
    27.4000       226
    27.4200       216
    27.4400       216
    27.4600       230
    27.4800       238
    27.5000       232
    27.5200       224
    27.5400       200
    27.5600       246
    27.5800       232
    27.6000       268
    27.6200       234
    27.6400       222
    27.6600       256
    27.6800       272
    27.7000       236
    27.7200       242
    27.7400       300
    27.7600       306
    27.7800       330
    27.8000       326
    27.8200       342
    27.8400       356
    27.8600       374
    27.8800       426
    27.9000       428
    27.9200       496
    27.9400       542
    27.9600       596
    27.9800       702
    28.0000       776
    28.0200       882
    28.0400       908
    28.0600      1098
    28.0800      1234
    28.1000      1462
    28.1200      1710
    28.1400      2006
    28.1600      2342
    28.1800      2686
    28.2000      3088
    28.2200      3488
    28.2400      3708
    28.2600      3818
    28.2800      3744
    28.3000      3556
    28.3200      3040
    28.3400      2754
    28.3600      2298
    28.3800      1880
    28.4000      1528
    28.4200      1282
    28.4400      1030
    28.4600       858
    28.4800       754
    28.5000       636
    28.5200       620
    28.5400       546
    28.5600       458
    28.5800       444
    28.6000       366
    28.6200       350
    28.6400       370
    28.6600       312
    28.6800       312
    28.7000       286
    28.7200       244
    28.7400       278
    28.7600       248
    28.7800       250
    28.8000       248
    28.8200       230
    28.8400       250
    28.8600       224
    28.8800       218
    28.9000       244
    28.9200       238
    28.9400       248
    28.9600       202
    28.9800       224
    29.0000       206
    29.0200       202
    29.0400       204
    29.0600       214
    29.0800       216
    29.1000       218
    29.1200       190
    29.1400       192
    29.1600       192
    29.1800       208
    29.2000       218
    29.2200       202
    29.2400       208
    29.2600       186
    29.2800       218
    29.3000       204
    29.3200       202
    29.3400       208
    29.3600       252
    29.3800       212
    29.4000       228
    29.4200       206
    29.4400       216
    29.4600       182
    29.4800       204
    29.5000       234
    29.5200       190
    29.5400       188
    29.5600       186
    29.5800       176
    29.6000       218
    29.6200       202
    29.6400       224
    29.6600       228
    29.6800       182
    29.7000       200
    29.7200       210
    29.7400       220
    29.7600       204
    29.7800       220
    29.8000       198
    29.8200       214
    29.8400       180
    29.8600       224
    29.8800       220
    29.9000       192
    29.9200       214
    29.9400       210
    29.9600       244
    29.9800       216
    30.0000       220
    30.0200       210
    30.0400       194
    30.0600       212
    30.0800       210
    30.1000       242
    30.1200       214
    30.1400       232
    30.1600       192
    30.1800       232
    30.2000       204
    30.2200       244
    30.2400       206
    30.2600       220
    30.2800       238
    30.3000       228
    30.3200       244
    30.3400       216
    30.3600       222
    30.3800       230
    30.4000       232
    30.4200       250
    30.4400       270
    30.4600       250
    30.4800       266
    30.5000       286
    30.5200       234
    30.5400       306
    30.5600       264
    30.5800       276
    30.6000       294
    30.6200       292
    30.6400       276
    30.6600       280
    30.6800       324
    30.7000       336
    30.7200       334
    30.7400       354
    30.7600       344
    30.7800       404
    30.8000       420
    30.8200       398
    30.8400       448
    30.8600       476
    30.8800       494
    30.9000       588
    30.9200       576
    30.9400       652
    30.9600       672
    30.9800       782
    31.0000       872
    31.0200       932
    31.0400      1066
    31.0600      1144
    31.0800      1278
    31.1000      1406
    31.1200      1424
    31.1400      1456
    31.1600      1514
    31.1800      1572
    31.2000      1526
    31.2200      1444
    31.2400      1378
    31.2600      1334
    31.2800      1200
    31.3000      1092
    31.3200      1050
    31.3400       948
    31.3600       890
    31.3800       798
    31.4000       698
    31.4200       636
    31.4400       618
    31.4600       550
    31.4800       586
    31.5000       594
    31.5200       516
    31.5400       564
    31.5600       522
    31.5800       550
    31.6000       550
    31.6200       564
    31.6400       638
    31.6600       658
    31.6800       690
    31.7000       720
    31.7200       810
    31.7400       860
    31.7600       890
    31.7800      1004
    31.8000      1086
    31.8200      1294
    31.8400      1394
    31.8600      1564
    31.8800      1798
    31.9000      2058
    31.9200      2414
    31.9400      2548
    31.9600      2724
    31.9800      3006
    32.0000      2908
    32.0200      2828
    32.0400      2800
    32.0600      2526
    32.0800      2404
    32.1000      2020
    32.1200      1952
    32.1400      1734
    32.1600      1614
    32.1800      1604
    32.2000      1582
    32.2200      1652
    32.2400      1732
    32.2600      1812
    32.2800      2004
    32.3000      2230
    32.3200      2450
    32.3400      2764
    32.3600      3076
    32.3800      3654
    32.4000      4214
    32.4200      4848
    32.4400      5682
    32.4600      6388
    32.4800      7448
    32.5000      7948
    32.5200      8694
    32.5400      8996
    32.5600      8900
    32.5800      8824
    32.6000      8168
    32.6200      7576
    32.6400      6666
    32.6600      5656
    32.6800      5022
    32.7000      4114
    32.7200      3600
    32.7400      3000
    32.7600      2646
    32.7800      2334
    32.8000      1992
    32.8200      1734
    32.8400      1526
    32.8600      1580
    32.8800      1488
    32.9000      1420
    32.9200      1370
    32.9400      1460
    32.9600      1488
    32.9800      1496
    33.0000      1682
    33.0200      1808
    33.0400      1814
    33.0600      1888
    33.0800      1946
    33.1000      1930
    33.1200      1878
    33.1400      1700
    33.1600      1640
    33.1800      1468
    33.2000      1260
    33.2200      1100
    33.2400       960
    33.2600       904
    33.2800       762
    33.3000       654
    33.3200       556
    33.3400       572
    33.3600       476
    33.3800       468
    33.4000       442
    33.4200       378
    33.4400       432
    33.4600       406
    33.4800       346
    33.5000       328
    33.5200       326
    33.5400       314
    33.5600       304
    33.5800       290
    33.6000       316
    33.6200       280
    33.6400       284
    33.6600       262
    33.6800       282
    33.7000       286
    33.7200       262
    33.7400       276
    33.7600       250
    33.7800       266
    33.8000       250
    33.8200       270
    33.8400       254
    33.8600       218
    33.8800       266
    33.9000       256
    33.9200       248
    33.9400       224
    33.9600       258
    33.9800       246
    34.0000       252
    34.0200       256
    34.0400       240
    34.0600       270
    34.0800       250
    34.1000       260
    34.1200       268
    34.1400       272
    34.1600       248
    34.1800       262
    34.2000       286
    34.2200       222
    34.2400       258
    34.2600       248
    34.2800       240
    34.3000       244
    34.3200       226
    34.3400       238
    34.3600       228
    34.3800       214
    34.4000       260
    34.4200       224
    34.4400       256
    34.4600       248
    34.4800       238
    34.5000       246
    34.5200       244
    34.5400       254
    34.5600       230
    34.5800       224
    34.6000       250
    34.6200       266
    34.6400       238
    34.6600       228
    34.6800       258
    34.7000       246
    34.7200       224
    34.7400       234
    34.7600       266
    34.7800       246
    34.8000       256
    34.8200       258
    34.8400       236
    34.8600       244
    34.8800       226
    34.9000       296
    34.9200       246
    34.9400       272
    34.9600       244
    34.9800       242
    35.0000       244
    35.0200       222
    35.0400       238
    35.0600       252
    35.0800       216
    35.1000       260
    35.1200       234
    35.1400       240
    35.1600       214
    35.1800       238
    35.2000       258
    35.2200       232
    35.2400       260
    35.2600       232
    35.2800       242
    35.3000       236
    35.3200       242
    35.3400       224
    35.3600       260
    35.3800       210
    35.4000       224
    35.4200       264
    35.4400       286
    35.4600       274
    35.4800       222
    35.5000       276
    35.5200       276
    35.5400       294
    35.5600       250
    35.5800       264
    35.6000       246
    35.6200       298
    35.6400       308
    35.6600       278
    35.6800       290
    35.7000       310
    35.7200       284
    35.7400       290
    35.7600       288
    35.7800       320
    35.8000       340
    35.8200       320
    35.8400       332
    35.8600       360
    35.8800       342
    35.9000       366
    35.9200       410
    35.9400       400
    35.9600       460
    35.9800       466
    36.0000       500
    36.0200       588
    36.0400       618
    36.0600       662
    36.0800       696
    36.1000       720
    36.1200       806
    36.1400       796
    36.1600       768
    36.1800       776
    36.2000       758
    36.2200       688
    36.2400       684
    36.2600       596
    36.2800       580
    36.3000       470
    36.3200       496
    36.3400       474
    36.3600       418
    36.3800       442
    36.4000       460
    36.4200       410
    36.4400       408
    36.4600       464
    36.4800       448
    36.5000       478
    36.5200       470
    36.5400       502
    36.5600       554
    36.5800       612
    36.6000       572
    36.6200       642
    36.6400       702
    36.6600       736
    36.6800       760
    36.7000       876
    36.7200      1066
    36.7400      1150
    36.7600      1278
    36.7800      1556
    36.8000      1634
    36.8200      1820
    36.8400      1908
    36.8600      2172
    36.8800      2310
    36.9000      2336
    36.9200      2204
    36.9400      2112
    36.9600      1888
    36.9800      1790
    37.0000      1642
    37.0200      1418
    37.0400      1304
    37.0600      1206
    37.0800      1016
    37.1000       908
    37.1200       798
    37.1400       768
    37.1600       666
    37.1800       644
    37.2000       600
    37.2200       552
    37.2400       600
    37.2600       568
    37.2800       504
    37.3000       540
    37.3200       476
    37.3400       498
    37.3600       452
    37.3800       466
    37.4000       428
    37.4200       432
    37.4400       468
    37.4600       436
    37.4800       432
    37.5000       498
    37.5200       496
    37.5400       478
    37.5600       462
    37.5800       446
    37.6000       476
    37.6200       534
    37.6400       562
    37.6600       572
    37.6800       520
    37.7000       588
    37.7200       676
    37.7400       684
    37.7600       740
    37.7800       804
    37.8000       860
    37.8200       864
    37.8400      1034
    37.8600      1146
    37.8800      1344
    37.9000      1428
    37.9200      1596
    37.9400      1864
    37.9600      2098
    37.9800      2206
    38.0000      2426
    38.0200      2526
    38.0400      2436
    38.0600      2494
    38.0800      2314
    38.1000      2216
    38.1200      2182
    38.1400      2106
    38.1600      2014
    38.1800      2028
    38.2000      1986
    38.2200      1962
    38.2400      2080
    38.2600      2300
    38.2800      2342
    38.3000      2554
    38.3200      2808
    38.3400      3038
    38.3600      3324
    38.3800      3822
    38.4000      4208
    38.4200      4516
    38.4400      4966
    38.4600      5182
    38.4800      5416
    38.5000      5372
    38.5200      5366
    38.5400      5214
    38.5600      4980
    38.5800      4772
    38.6000      4646
    38.6200      4570
    38.6400      4368
    38.6600      4376
    38.6800      4258
    38.7000      4242
    38.7200      4132
    38.7400      4076
    38.7600      3894
    38.7800      3648
    38.8000      3284
    38.8200      3140
    38.8400      2700
    38.8600      2420
    38.8800      2222
    38.9000      1966
    38.9200      1704
    38.9400      1524
    38.9600      1382
    38.9800      1252
    39.0000      1078
    39.0200      1024
    39.0400       976
    39.0600       916
    39.0800       882
    39.1000       724
    39.1200       742
    39.1400       750
    39.1600       728
    39.1800       712
    39.2000       684
    39.2200       642
    39.2400       648
    39.2600       644
    39.2800       616
    39.3000       698
    39.3200       654
    39.3400       652
    39.3600       702
    39.3800       706
    39.4000       724
    39.4200       792
    39.4400       834
    39.4600       928
    39.4800       950
    39.5000      1044
    39.5200      1132
    39.5400      1300
    39.5600      1378
    39.5800      1696
    39.6000      1960
    39.6200      2056
    39.6400      2354
    39.6600      2378
    39.6800      2600
    39.7000      2602
    39.7200      2462
    39.7400      2324
    39.7600      2314
    39.7800      2062
    39.8000      1904
    39.8200      1676
    39.8400      1496
    39.8600      1298
    39.8800      1132
    39.9000      1056
    39.9200       860
    39.9400       796
    39.9600       720
    39.9800       672
    40.0000       632
    40.0200       588
    40.0400       592
    40.0600       580
    40.0800       512
    40.1000       506
    40.1200       560
    40.1400       470
    40.1600       536
    40.1800       488
    40.2000       510
    40.2200       524
    40.2400       500
    40.2600       562
    40.2800       586
    40.3000       574
    40.3200       612
    40.3400       646
    40.3600       684
    40.3800       708
    40.4000       796
    40.4200       832
    40.4400       928
    40.4600       976
    40.4800      1078
    40.5000      1106
    40.5200      1334
    40.5400      1294
    40.5600      1436
    40.5800      1452
    40.6000      1484
    40.6200      1428
    40.6400      1386
    40.6600      1318
    40.6800      1224
    40.7000      1212
    40.7200      1148
    40.7400      1096
    40.7600       996
    40.7800       886
    40.8000       868
    40.8200       714
    40.8400       654
    40.8600       584
    40.8800       596
    40.9000       570
    40.9200       534
    40.9400       544
    40.9600       452
    40.9800       440
    41.0000       462
    41.0200       426
    41.0400       408
    41.0600       380
    41.0800       402
    41.1000       384
    41.1200       378
    41.1400       362
    41.1600       390
    41.1800       376
    41.2000       402
    41.2200       378
    41.2400       366
    41.2600       358
    41.2800       426
    41.3000       370
    41.3200       406
    41.3400       346
    41.3600       378
    41.3800       422
    41.4000       390
    41.4200       426
    41.4400       404
    41.4600       416
    41.4800       460
    41.5000       462
    41.5200       492
    41.5400       508
    41.5600       550
    41.5800       556
    41.6000       582
    41.6200       620
    41.6400       696
    41.6600       700
    41.6800       798
    41.7000       890
    41.7200      1018
    41.7400      1134
    41.7600      1254
    41.7800      1324
    41.8000      1488
    41.8200      1630
    41.8400      1814
    41.8600      1888
    41.8800      1914
    41.9000      2016
    41.9200      1966
    41.9400      1916
    41.9600      1710
    41.9800      1656
    42.0000      1512
    42.0200      1486
    42.0400      1384
    42.0600      1164
    42.0800      1074
    42.1000       952
    42.1200       824
    42.1400       770
    42.1600       728
    42.1800       608
    42.2000       642
    42.2200       554
    42.2400       540
    42.2600       524
    42.2800       500
    42.3000       476
    42.3200       430
    42.3400       448
    42.3600       456
    42.3800       428
    42.4000       414
    42.4200       420
    42.4400       398
    42.4600       378
    42.4800       412
    42.5000       406
    42.5200       384
    42.5400       400
    42.5600       394
    42.5800       378
    42.6000       394
    42.6200       440
    42.6400       384
    42.6600       406
    42.6800       396
    42.7000       426
    42.7200       426
    42.7400       436
    42.7600       442
    42.7800       392
    42.8000       484
    42.8200       498
    42.8400       544
    42.8600       518
    42.8800       592
    42.9000       592
    42.9200       638
    42.9400       672
    42.9600       762
    42.9800       786
    43.0000       878
    43.0200       980
    43.0400      1084
    43.0600      1198
    43.0800      1302
    43.1000      1534
    43.1200      1658
    43.1400      1754
    43.1600      1826
    43.1800      1892
    43.2000      1968
    43.2200      2012
    43.2400      1822
    43.2600      1886
    43.2800      1758
    43.3000      1592
    43.3200      1414
    43.3400      1314
    43.3600      1238
    43.3800      1014
    43.4000       980
    43.4200       824
    43.4400       836
    43.4600       704
    43.4800       700
    43.5000       638
    43.5200       614
    43.5400       644
    43.5600       596
    43.5800       574
    43.6000       534
    43.6200       544
    43.6400       554
    43.6600       640
    43.6800       582
    43.7000       666
    43.7200       728
    43.7400       692
    43.7600       720
    43.7800       830
    43.8000       790
    43.8200       810
    43.8400       866
    43.8600       808
    43.8800       774
    43.9000       758
    43.9200       758
    43.9400       750
    43.9600       636
    43.9800       598
    44.0000       622
    44.0200       582
    44.0400       586
    44.0600       554
    44.0800       478
    44.1000       542
    44.1200       468
    44.1400       470
    44.1600       464
    44.1800       464
    44.2000       488
    44.2200       498
    44.2400       468
    44.2600       496
    44.2800       542
    44.3000       538
    44.3200       560
    44.3400       562
    44.3600       578
    44.3800       644
    44.4000       696
    44.4200       714
    44.4400       762
    44.4600       792
    44.4800       898
    44.5000       946
    44.5200       966
    44.5400      1080
    44.5600      1092
    44.5800      1158
    44.6000      1188
    44.6200      1244
    44.6400      1258
    44.6600      1330
    44.6800      1320
    44.7000      1310
    44.7200      1338
    44.7400      1236
    44.7600      1294
    44.7800      1226
    44.8000      1158
    44.8200      1076
    44.8400      1026
    44.8600       990
    44.8800       888
    44.9000       898
    44.9200       834
    44.9400       772
    44.9600       666
    44.9800       724
    45.0000       606
    45.0200       650
    45.0400       592
    45.0600       590
    45.0800       604
    45.1000       536
    45.1200       488
    45.1400       522
    45.1600       512
    45.1800       440
    45.2000       464
    45.2200       472
    45.2400       486
    45.2600       462
    45.2800       444
    45.3000       454
    45.3200       422
    45.3400       456
    45.3600       444
    45.3800       412
    45.4000       478
    45.4200       440
    45.4400       440
    45.4600       470
    45.4800       460
    45.5000       456
    45.5200       448
    45.5400       432
    45.5600       446
    45.5800       468
    45.6000       460
    45.6200       476
    45.6400       478
    45.6600       496
    45.6800       474
    45.7000       502
    45.7200       472
    45.7400       496
    45.7600       506
    45.7800       514
    45.8000       490
    45.8200       490
    45.8400       574
    45.8600       560
    45.8800       518
    45.9000       560
    45.9200       576
    45.9400       582
    45.9600       572
    45.9800       568
    46.0000       558
    46.0200       574
    46.0400       626
    46.0600       662
    46.0800       642
    46.1000       718
    46.1200       732
    46.1400       778
    46.1600       808
    46.1800       832
    46.2000       828
    46.2200       898
    46.2400       952
    46.2600      1016
    46.2800      1124
    46.3000      1182
    46.3200      1314
    46.3400      1504
    46.3600      1572
    46.3800      1632
    46.4000      1868
    46.4200      2060
    46.4400      2262
    46.4600      2580
    46.4800      2972
    46.5000      3258
    46.5200      3612
    46.5400      4164
    46.5600      4836
    46.5800      5496
    46.6000      5944
    46.6200      6658
    46.6400      7422
    46.6600      8118
    46.6800      8580
    46.7000      9106
    46.7200      9104
    46.7400      9080
    46.7600      8704
    46.7800      8622
    46.8000      8194
    46.8200      7718
    46.8400      7136
    46.8600      6918
    46.8800      6480
    46.9000      6382
    46.9200      5946
    46.9400      5602
    46.9600      5594
    46.9800      5386
    47.0000      5242
    47.0200      4790
    47.0400      4510
    47.0600      4328
    47.0800      3978
    47.1000      3794
    47.1200      3540
    47.1400      3168
    47.1600      2880
    47.1800      2600
    47.2000      2360
    47.2200      2108
    47.2400      1914
    47.2600      1654
    47.2800      1570
    47.3000      1436
    47.3200      1408
    47.3400      1240
    47.3600      1160
    47.3800      1008
    47.4000      1000
    47.4200       896
    47.4400       926
    47.4600       802
    47.4800       866
    47.5000       754
    47.5200       814
    47.5400       754
    47.5600       718
    47.5800       728
    47.6000       706
    47.6200       692
    47.6400       756
    47.6600       718
    47.6800       780
    47.7000       764
    47.7200       806
    47.7400       800
    47.7600       812
    47.7800       854
    47.8000       950
    47.8200       950
    47.8400       918
    47.8600       958
    47.8800       898
    47.9000       858
    47.9200       902
    47.9400       890
    47.9600       818
    47.9800       798
    48.0000       792
    48.0200       796
    48.0400       744
    48.0600       764
    48.0800       778
    48.1000       776
    48.1200       788
    48.1400       814
    48.1600       850
    48.1800       842
    48.2000       888
    48.2200       864
    48.2400       886
    48.2600       820
    48.2800       848
    48.3000       778
    48.3200       730
    48.3400       746
    48.3600       708
    48.3800       648
    48.4000       606
    48.4200       576
    48.4400       544
    48.4600       518
    48.4800       424
    48.5000       460
    48.5200       464
    48.5400       418
    48.5600       432
    48.5800       384
    48.6000       386
    48.6200       414
    48.6400       370
    48.6600       402
    48.6800       352
    48.7000       348
    48.7200       342
    48.7400       334
    48.7600       354
    48.7800       326
    48.8000       380
    48.8200       338
    48.8400       332
    48.8600       362
    48.8800       328
    48.9000       312
    48.9200       318
    48.9400       342
    48.9600       358
    48.9800       362
    49.0000       322
    49.0200       294
    49.0400       332
    49.0600       328
    49.0800       314
    49.1000       328
    49.1200       310
    49.1400       316
    49.1600       326
    49.1800       320
    49.2000       306
    49.2200       280
    49.2400       304
    49.2600       312
    49.2800       306
    49.3000       282
    49.3200       302
    49.3400       290
    49.3600       276
    49.3800       288
    49.4000       290
    49.4200       296
    49.4400       302
    49.4600       330
    49.4800       272
    49.5000       280
    49.5200       278
    49.5400       294
    49.5600       294
    49.5800       294
    49.6000       290
    49.6200       292
    49.6400       308
    49.6600       316
    49.6800       322
    49.7000       302
    49.7200       316
    49.7400       328
    49.7600       290
    49.7800       296
    49.8000       316
    49.8200       326
    49.8400       292
    49.8600       270
    49.8800       282
    49.9000       290
    49.9200       276
    49.9400       294
    49.9600       280
    49.9800       284
    50.0000       260
    50.0200       278
    50.0400       294
    50.0600       290
    50.0800       294
    50.1000       312
    50.1200       296
    50.1400       294
    50.1600       302
    50.1800       302
    50.2000       288
    50.2200       334
    50.2400       284
    50.2600       332
    50.2800       338
    50.3000       332
    50.3200       364
    50.3400       374
    50.3600       332
    50.3800       356
    50.4000       328
    50.4200       314
    50.4400       340
    50.4600       350
    50.4800       346
    50.5000       344
    50.5200       340
    50.5400       320
    50.5600       362
    50.5800       330
    50.6000       356
    50.6200       400
    50.6400       374
    50.6600       346
    50.6800       406
    50.7000       422
    50.7200       440
    50.7400       434
    50.7600       488
    50.7800       510
    50.8000       546
    50.8200       574
    50.8400       634
    50.8600       676
    50.8800       674
    50.9000       724
    50.9200       704
    50.9400       722
    50.9600       712
    50.9800       716
    51.0000       688
    51.0200       696
    51.0400       640
    51.0600       610
    51.0800       652
    51.1000       576
    51.1200       582
    51.1400       570
    51.1600       498
    51.1800       498
    51.2000       524
    51.2200       484
    51.2400       562
    51.2600       558
    51.2800       546
    51.3000       600
    51.3200       578
    51.3400       606
    51.3600       588
    51.3800       618
    51.4000       646
    51.4200       708
    51.4400       720
    51.4600       692
    51.4800       682
    51.5000       674
    51.5200       654
    51.5400       626
    51.5600       660
    51.5800       624
    51.6000       592
    51.6200       634
    51.6400       680
    51.6600       660
    51.6800       678
    51.7000       684
    51.7200       776
    51.7400       796
    51.7600       828
    51.7800       868
    51.8000       938
    51.8200       946
    51.8400      1044
    51.8600      1010
    51.8800      1066
    51.9000      1038
    51.9200      1034
    51.9400      1038
    51.9600       960
    51.9800      1016
    52.0000       946
    52.0200       950
    52.0400       904
    52.0600       908
    52.0800       868
    52.1000       806
    52.1200       762
    52.1400       776
    52.1600       678
    52.1800       712
    52.2000       694
    52.2200       652
    52.2400       668
    52.2600       650
    52.2800       630
    52.3000       646
    52.3200       660
    52.3400       710
    52.3600       774
    52.3800       754
    52.4000       878
    52.4200       886
    52.4400       970
    52.4600      1082
    52.4800      1020
    52.5000      1224
    52.5200      1346
    52.5400      1342
    52.5600      1430
    52.5800      1472
    52.6000      1552
    52.6200      1506
    52.6400      1510
    52.6600      1462
    52.6800      1508
    52.7000      1400
    52.7200      1378
    52.7400      1324
    52.7600      1252
    52.7800      1208
    52.8000      1118
    52.8200      1030
    52.8400      1002
    52.8600       966
    52.8800       962
    52.9000       836
    52.9200       886
    52.9400       880
    52.9600       888
    52.9800       804
    53.0000       880
    53.0200       924
    53.0400       932
    53.0600      1012
    53.0800      1014
    53.1000      1100
    53.1200      1222
    53.1400      1286
    53.1600      1402
    53.1800      1454
    53.2000      1648
    53.2200      1728
    53.2400      1746
    53.2600      1852
    53.2800      1840
    53.3000      1832
    53.3200      1788
    53.3400      1706
    53.3600      1656
    53.3800      1526
    53.4000      1470
    53.4200      1378
    53.4400      1192
    53.4600      1168
    53.4800      1068
    53.5000      1028
    53.5200       872
    53.5400       808
    53.5600       708
    53.5800       658
    53.6000       578
    53.6200       582
    53.6400       510
    53.6600       540
    53.6800       494
    53.7000       490
    53.7200       414
    53.7400       440
    53.7600       414
    53.7800       354
    53.8000       364
    53.8200       388
    53.8400       328
    53.8600       288
    53.8800       368
    53.9000       358
    53.9200       354
    53.9400       328
    53.9600       354
    53.9800       304
    54.0000       296
    54.0200       330
    54.0400       282
    54.0600       332
    54.0800       342
    54.1000       282
    54.1200       316
    54.1400       334
    54.1600       294
    54.1800       272
    54.2000       296
    54.2200       318
    54.2400       338
    54.2600       312
    54.2800       308
    54.3000       382
    54.3200       326
    54.3400       324
    54.3600       360
    54.3800       406
    54.4000       388
    54.4200       416
    54.4400       392
    54.4600       450
    54.4800       504
    54.5000       496
    54.5200       506
    54.5400       546
    54.5600       568
    54.5800       614
    54.6000       592
    54.6200       690
    54.6400       694
    54.6600       686
    54.6800       740
    54.7000       796
    54.7200       786
    54.7400       852
    54.7600       824
    54.7800       880
    54.8000       814
    54.8200       766
    54.8400       738
    54.8600       744
    54.8800       730
    54.9000       670
    54.9200       644
    54.9400       614
    54.9600       602
    54.9800       598
    55.0000       502
    55.0200       478
    55.0400       514
    55.0600       464
    55.0800       442
    55.1000       450
    55.1200       440
    55.1400       450
    55.1600       452
    55.1800       426
    55.2000       444
    55.2200       460
    55.2400       508
    55.2600       500
    55.2800       524
    55.3000       496
    55.3200       534
    55.3400       554
    55.3600       584
    55.3800       582
    55.4000       588
    55.4200       606
    55.4400       602
    55.4600       668
    55.4800       684
    55.5000       700
    55.5200       726
    55.5400       696
    55.5600       862
    55.5800       834
    55.6000       888
    55.6200       978
    55.6400      1028
    55.6600      1084
    55.6800      1218
    55.7000      1182
    55.7200      1212
    55.7400      1274
    55.7600      1226
    55.7800      1250
    55.8000      1124
    55.8200      1138
    55.8400      1074
    55.8600      1076
    55.8800       956
    55.9000       950
    55.9200       804
    55.9400       760
    55.9600       720
    55.9800       670
    56.0000       652
    56.0200       568
    56.0400       534
    56.0600       484
    56.0800       482
    56.1000       468
    56.1200       476
    56.1400       436
    56.1600       374
    56.1800       346
    56.2000       370
    56.2200       394
    56.2400       380
    56.2600       332
    56.2800       328
    56.3000       310
    56.3200       326
    56.3400       332
    56.3600       308
    56.3800       322
    56.4000       300
    56.4200       312
    56.4400       308
    56.4600       326
    56.4800       302
    56.5000       326
    56.5200       314
    56.5400       332
    56.5600       294
    56.5800       304
    56.6000       316
    56.6200       360
    56.6400       334
    56.6600       318
    56.6800       316
    56.7000       344
    56.7200       342
    56.7400       396
    56.7600       376
    56.7800       328
    56.8000       400
    56.8200       388
    56.8400       408
    56.8600       426
    56.8800       414
    56.9000       416
    56.9200       468
    56.9400       462
    56.9600       424
    56.9800       502
    57.0000       498
    57.0200       484
    57.0400       568
    57.0600       606
    57.0800       608
    57.1000       654
    57.1200       682
    57.1400       774
    57.1600       810
    57.1800       888
    57.2000       968
    57.2200      1052
    57.2400      1138
    57.2600      1232
    57.2800      1444
    57.3000      1480
    57.3200      1556
    57.3400      1604
    57.3600      1736
    57.3800      1786
    57.4000      1734
    57.4200      1698
    57.4400      1692
    57.4600      1708
    57.4800      1766
    57.5000      1700
    57.5200      1720
    57.5400      1652
    57.5600      1626
    57.5800      1672
    57.6000      1688
    57.6200      1718
    57.6400      1760
    57.6600      1772
    57.6800      1812
    57.7000      1810
    57.7200      1868
    57.7400      1894
    57.7600      1836
    57.7800      1734
    57.8000      1802
    57.8200      1730
    57.8400      1588
    57.8600      1578
    57.8800      1432
    57.9000      1448
    57.9200      1268
    57.9400      1298
    57.9600      1200
    57.9800      1154
    58.0000      1054
    58.0200      1040
    58.0400      1048
    58.0600       970
    58.0800       876
    58.1000       930
    58.1200       902
    58.1400       986
    58.1600       876
    58.1800       964
    58.2000       984
    58.2200       992
    58.2400      1040
    58.2600      1102
    58.2800      1176
    58.3000      1240
    58.3200      1402
    58.3400      1466
    58.3600      1444
    58.3800      1578
    58.4000      1728
    58.4200      1762
    58.4400      1964
    58.4600      2030
    58.4800      2174
    58.5000      2280
    58.5200      2370
    58.5400      2422
    58.5600      2524
    58.5800      2712
    58.6000      2770
    58.6200      2830
    58.6400      2984
    58.6600      3116
    58.6800      3284
    58.7000      3322
    58.7200      3428
    58.7400      3364
    58.7600      3444
    58.7800      3402
    58.8000      3386
    58.8200      3170
    58.8400      3034
    58.8600      3020
    58.8800      2776
    58.9000      2612
    58.9200      2442
    58.9400      2310
    58.9600      2134
    58.9800      2060
    59.0000      1850
    59.0200      1636
    59.0400      1484
    59.0600      1432
    59.0800      1318
    59.1000      1244
    59.1200      1094
    59.1400      1050
    59.1600       950
    59.1800       946
    59.2000       862
    59.2200       836
    59.2400       796
    59.2600       700
    59.2800       712
    59.3000       730
    59.3200       628
    59.3400       560
    59.3600       600
    59.3800       520
    59.4000       514
    59.4200       508
    59.4400       506
    59.4600       490
    59.4800       460
    59.5000       462
    59.5200       426
    59.5400       402
    59.5600       432
    59.5800       416
    59.6000       386
    59.6200       386
    59.6400       386
    59.6600       408
    59.6800       330
    59.7000       322
    59.7200       360
    59.7400       334
    59.7600       332
    59.7800       302
    59.8000       346
    59.8200       316
    59.8400       318
    59.8600       298
    59.8800       300
    59.9000       286
    59.9200       342
    59.9400       310
    59.9600       298
    59.9800       278
    60.0000       310
    60.0200       292
    60.0400       290
    60.0600       306
    60.0800       266
    60.1000       286
    60.1200       280
    60.1400       256
    60.1600       288
    60.1800       296
    60.2000       282
    60.2200       280
    60.2400       290
    60.2600       286
    60.2800       276
    60.3000       246
    60.3200       282
    60.3400       250
    60.3600       276
    60.3800       284
    60.4000       290
    60.4200       310
    60.4400       274
    60.4600       320
    60.4800       284
    60.5000       310
    60.5200       314
    60.5400       296
    60.5600       264
    60.5800       278
    60.6000       276
    60.6200       288
    60.6400       300
    60.6600       302
    60.6800       282
    60.7000       312
    60.7200       320
    60.7400       280
    60.7600       306
    60.7800       320
    60.8000       304
    60.8200       344
    60.8400       362
    60.8600       368
    60.8800       364
    60.9000       392
    60.9200       370
    60.9400       380
    60.9600       388
    60.9800       404
    61.0000       422
    61.0200       444
    61.0400       454
    61.0600       470
    61.0800       442
    61.1000       476
    61.1200       512
    61.1400       512
    61.1600       536
    61.1800       528
    61.2000       526
    61.2200       496
    61.2400       502
    61.2600       492
    61.2800       496
    61.3000       496
    61.3200       494
    61.3400       490
    61.3600       506
    61.3800       486
    61.4000       492
    61.4200       522
    61.4400       554
    61.4600       468
    61.4800       500
    61.5000       514
    61.5200       576
    61.5400       572
    61.5600       510
    61.5800       520
    61.6000       532
    61.6200       560
    61.6400       476
    61.6600       512
    61.6800       510
    61.7000       526
    61.7200       474
    61.7400       486
    61.7600       470
    61.7800       476
    61.8000       498
    61.8200       532
    61.8400       490
    61.8600       514
    61.8800       474
    61.9000       524
    61.9200       528
    61.9400       490
    61.9600       560
    61.9800       520
    62.0000       552
    62.0200       554
    62.0400       534
    62.0600       606
    62.0800       548
    62.1000       560
    62.1200       586
    62.1400       596
    62.1600       556
    62.1800       538
    62.2000       562
    62.2200       532
    62.2400       524
    62.2600       530
    62.2800       502
    62.3000       514
    62.3200       440
    62.3400       512
    62.3600       466
    62.3800       430
    62.4000       464
    62.4200       426
    62.4400       472
    62.4600       426
    62.4800       414
    62.5000       412
    62.5200       372
    62.5400       352
    62.5600       362
    62.5800       378
    62.6000       340
    62.6200       318
    62.6400       336
    62.6600       314
    62.6800       292
    62.7000       262
    62.7200       296
    62.7400       282
    62.7600       276
    62.7800       292
    62.8000       264
    62.8200       266
    62.8400       256
    62.8600       262
    62.8800       262
    62.9000       262
    62.9200       252
    62.9400       262
    62.9600       252
    62.9800       246
    63.0000       210
    63.0200       248
    63.0400       196
    63.0600       218
    63.0800       226
    63.1000       226
    63.1200       228
    63.1400       222
    63.1600       242
    63.1800       258
    63.2000       210
    63.2200       218
    63.2400       246
    63.2600       210
    63.2800       240
    63.3000       218
    63.3200       224
    63.3400       232
    63.3600       230
    63.3800       220
    63.4000       252
    63.4200       220
    63.4400       216
    63.4600       236
    63.4800       260
    63.5000       240
    63.5200       260
    63.5400       254
    63.5600       252
    63.5800       240
    63.6000       280
    63.6200       238
    63.6400       268
    63.6600       306
    63.6800       342
    63.7000       378
    63.7200       346
    63.7400       380
    63.7600       400
    63.7800       408
    63.8000       452
    63.8200       448
    63.8400       422
    63.8600       442
    63.8800       436
    63.9000       444
    63.9200       458
    63.9400       430
    63.9600       436
    63.9800       444
    64.0000       372
    64.0200       398
    64.0400       400
    64.0600       366
    64.0800       348
    64.1000       334
    64.1200       342
    64.1400       310
    64.1600       314
    64.1800       304
    64.2000       276
    64.2200       274
    64.2400       264
    64.2600       262
    64.2800       230
    64.3000       270
    64.3200       276
    64.3400       274
    64.3600       264
    64.3800       242
    64.4000       278
    64.4200       252
    64.4400       268
    64.4600       280
    64.4800       284
    64.5000       260
    64.5200       288
    64.5400       272
    64.5600       276
    64.5800       282
    64.6000       306
    64.6200       340
    64.6400       314
    64.6600       374
    64.6800       302
    64.7000       368
    64.7200       356
    64.7400       378
    64.7600       370
    64.7800       362
    64.8000       398
    64.8200       408
    64.8400       448
    64.8600       470
    64.8800       456
    64.9000       460
    64.9200       472
    64.9400       514
    64.9600       524
    64.9800       546
    65.0000       596
    65.0200       558
    65.0400       564
    65.0600       614
    65.0800       586
    65.1000       556
    65.1200       584
    65.1400       620
    65.1600       624
    65.1800       626
    65.2000       628
    65.2200       630
    65.2400       652
    65.2600       618
    65.2800       582
    65.3000       600
    65.3200       604
    65.3400       564
    65.3600       582
    65.3800       542
    65.4000       540
    65.4200       564
    65.4400       524
    65.4600       478
    65.4800       508
    65.5000       448
    65.5200       482
    65.5400       434
    65.5600       410
    65.5800       334
    65.6000       370
    65.6200       324
    65.6400       304
    65.6600       332
    65.6800       328
    65.7000       302
    65.7200       320
    65.7400       290
    65.7600       274
    65.7800       292
    65.8000       282
    65.8200       286
    65.8400       270
    65.8600       250
    65.8800       268
    65.9000       224
    65.9200       250
    65.9400       246
    65.9600       238
    65.9800       240
    66.0000       266
    66.0200       244
    66.0400       254
    66.0600       256
    66.0800       258
    66.1000       256
    66.1200       246
    66.1400       270
    66.1600       270
    66.1800       242
    66.2000       282
    66.2200       268
    66.2400       248
    66.2600       256
    66.2800       278
    66.3000       282
    66.3200       304
    66.3400       272
    66.3600       290
    66.3800       294
    66.4000       310
    66.4200       302
    66.4400       354
    66.4600       360
    66.4800       336
    66.5000       348
    66.5200       348
    66.5400       386
    66.5600       374
    66.5800       394
    66.6000       422
    66.6200       408
    66.6400       426
    66.6600       462
    66.6800       478
    66.7000       508
    66.7200       506
    66.7400       474
    66.7600       516
    66.7800       576
    66.8000       604
    66.8200       558
    66.8400       586
    66.8600       600
    66.8800       632
    66.9000       558
    66.9200       562
    66.9400       688
    66.9600       622
    66.9800       574
    67.0000       526
    67.0200       566
    67.0400       538
    67.0600       544
    67.0800       494
    67.1000       526
    67.1200       466
    67.1400       474
    67.1600       452
    67.1800       410
    67.2000       392
    67.2200       384
    67.2400       384
    67.2600       350
    67.2800       352
    67.3000       316
    67.3200       352
    67.3400       324
    67.3600       336
    67.3800       314
    67.4000       300
    67.4200       320
    67.4400       314
    67.4600       290
    67.4800       332
    67.5000       304
    67.5200       316
    67.5400       334
    67.5600       334
    67.5800       346
    67.6000       294
    67.6200       326
    67.6400       306
    67.6600       366
    67.6800       338
    67.7000       352
    67.7200       390
    67.7400       410
    67.7600       406
    67.7800       434
    67.8000       480
    67.8200       404
    67.8400       482
    67.8600       470
    67.8800       540
    67.9000       580
    67.9200       582
    67.9400       658
    67.9600       650
    67.9800       784
    68.0000       780
    68.0200       874
    68.0400       922
    68.0600       994
    68.0800      1050
    68.1000      1158
    68.1200      1186
    68.1400      1198
    68.1600      1240
    68.1800      1244
    68.2000      1232
    68.2200      1226
    68.2400      1194
    68.2600      1212
    68.2800      1230
    68.3000      1210
    68.3200      1138
    68.3400      1176
    68.3600      1098
    68.3800      1068
    68.4000      1012
    68.4200       972
    68.4400       932
    68.4600       902
    68.4800       862
    68.5000       840
    68.5200       836
    68.5400       794
    68.5600       774
    68.5800       818
    68.6000       774
    68.6200       776
    68.6400       730
    68.6600       708
    68.6800       694
    68.7000       626
    68.7200       666
    68.7400       632
    68.7600       580
    68.7800       582
    68.8000       568
    68.8200       526
    68.8400       542
    68.8600       522
    68.8800       548
    68.9000       496
    68.9200       434
    68.9400       440
    68.9600       388
    68.9800       410
    69.0000       370
    69.0200       414
    69.0400       420
    69.0600       392
    69.0800       374
    69.1000       418
    69.1200       388
    69.1400       396
    69.1600       412
    69.1800       398
    69.2000       432
    69.2200       418
    69.2400       408
    69.2600       492
    69.2800       434
    69.3000       486
    69.3200       458
    69.3400       532
    69.3600       530
    69.3800       578
    69.4000       588
    69.4200       548
    69.4400       594
    69.4600       544
    69.4800       530
    69.5000       574
    69.5200       524
    69.5400       514
    69.5600       510
    69.5800       456
    69.6000       456
    69.6200       492
    69.6400       430
    69.6600       390
    69.6800       408
    69.7000       352
    69.7200       358
    69.7400       354
    69.7600       346
    69.7800       308
    69.8000       332
    69.8200       308
    69.8400       252
    69.8600       274
    69.8800       264
    69.9000       268
    69.9200       262
    69.9400       236
    69.9600       264
    69.9800       242
    70.0000       250
    70.0200       246
    70.0400       258
    70.0600       224
    70.0800       246
    70.1000       246
    70.1200       208
    70.1400       220
    70.1600       220
    70.1800       226
    70.2000       230
    70.2200       232
    70.2400       194
    70.2600       242
    70.2800       194
    70.3000       222
    70.3200       220
    70.3400       240
    70.3600       232
    70.3800       218
    70.4000       218
    70.4200       214
    70.4400       254
    70.4600       274
    70.4800       268
    70.5000       222
    70.5200       254
    70.5400       220
    70.5600       230
    70.5800       234
    70.6000       258
    70.6200       264
    70.6400       250
    70.6600       242
    70.6800       224
    70.7000       240
    70.7200       260
    70.7400       230
    70.7600       250
    70.7800       250
    70.8000       248
    70.8200       228
    70.8400       256
    70.8600       232
    70.8800       234
    70.9000       254
    70.9200       240
    70.9400       232
    70.9600       232
    70.9800       266
    71.0000       234
    71.0200       240
    71.0400       252
    71.0600       252
    71.0800       250
    71.1000       276
    71.1200       276
    71.1400       268
    71.1600       292
    71.1800       292
    71.2000       328
    71.2200       322
    71.2400       308
    71.2600       366
    71.2800       406
    71.3000       358
    71.3200       434
    71.3400       480
    71.3600       468
    71.3800       426
    71.4000       518
    71.4200       538
    71.4400       526
    71.4600       594
    71.4800       604
    71.5000       634
    71.5200       670
    71.5400       660
    71.5600       654
    71.5800       642
    71.6000       680
    71.6200       676
    71.6400       624
    71.6600       636
    71.6800       626
    71.7000       660
    71.7200       612
    71.7400       636
    71.7600       616
    71.7800       570
    71.8000       610
    71.8200       568
    71.8400       534
    71.8600       546
    71.8800       568
    71.9000       516
    71.9200       500
    71.9400       506
    71.9600       500
    71.9800       510
    72.0000       470
    72.0200       500
    72.0400       498
    72.0600       468
    72.0800       468
    72.1000       474
    72.1200       448
    72.1400       454
    72.1600       474
    72.1800       474
    72.2000       452
    72.2200       518
    72.2400       472
    72.2600       480
    72.2800       524
    72.3000       524
    72.3200       480
    72.3400       496
    72.3600       458
    72.3800       462
    72.4000       454
    72.4200       444
    72.4400       438
    72.4600       456
    72.4800       426
    72.5000       412
    72.5200       372
    72.5400       378
    72.5600       366
    72.5800       338
    72.6000       342
    72.6200       314
    72.6400       330
    72.6600       364
    72.6800       316
    72.7000       324
    72.7200       318
    72.7400       302
    72.7600       284
    72.7800       316
    72.8000       302
    72.8200       272
    72.8400       322
    72.8600       330
    72.8800       342
    72.9000       276
    72.9200       300
    72.9400       284
    72.9600       314
    72.9800       310
    73.0000       272
    73.0200       284
    73.0400       270
    73.0600       270
    73.0800       278
    73.1000       280
    73.1200       266
    73.1400       264
    73.1600       238
    73.1800       256
    73.2000       234
    73.2200       224
    73.2400       240
    73.2600       254
    73.2800       242
    73.3000       226
    73.3200       234
    73.3400       220
    73.3600       232
    73.3800       212
    73.4000       242
    73.4200       220
    73.4400       246
    73.4600       238
    73.4800       226
    73.5000       230
    73.5200       240
    73.5400       238
    73.5600       248
    73.5800       258
    73.6000       270
    73.6200       270
    73.6400       286
    73.6600       248
    73.6800       278
    73.7000       288
    73.7200       274
    73.7400       276
    73.7600       318
    73.7800       260
    73.8000       276
    73.8200       270
    73.8400       280
    73.8600       314
    73.8800       290
    73.9000       322
    73.9200       306
    73.9400       308
    73.9600       310
    73.9800       308
    74.0000       320
    74.0200       358
    74.0400       330
    74.0600       330
    74.0800       338
    74.1000       352
    74.1200       354
    74.1400       336
    74.1600       316
    74.1800       314
    74.2000       304
    74.2200       338
    74.2400       338
    74.2600       340
    74.2800       322
    74.3000       302
    74.3200       306
    74.3400       324
    74.3600       262
    74.3800       256
    74.4000       244
    74.4200       286
    74.4400       260
    74.4600       258
    74.4800       236
    74.5000       240
    74.5200       214
    74.5400       222
    74.5600       250
    74.5800       212
    74.6000       192
    74.6200       226
    74.6400       198
    74.6600       184
    74.6800       196
    74.7000       192
    74.7200       186
    74.7400       194
    74.7600       220
    74.7800       184
    74.8000       206
    74.8200       186
    74.8400       182
    74.8600       158
    74.8800       188
    74.9000       186
    74.9200       174
    74.9400       198
    74.9600       184
    74.9800       182
    75.0000       164
    75.0200       162
    75.0400       184
    75.0600       186
    75.0800       182
    75.1000       172
    75.1200       178
    75.1400       182
    75.1600       174
    75.1800       180
    75.2000       178
    75.2200       194
    75.2400       190
    75.2600       204
    75.2800       236
    75.3000       216
    75.3200       198
    75.3400       210
    75.3600       200
    75.3800       212
    75.4000       206
    75.4200       214
    75.4400       218
    75.4600       208
    75.4800       232
    75.5000       228
    75.5200       222
    75.5400       226
    75.5600       242
    75.5800       264
    75.6000       268
    75.6200       262
    75.6400       274
    75.6600       302
    75.6800       300
    75.7000       344
    75.7200       326
    75.7400       354
    75.7600       352
    75.7800       346
    75.8000       362
    75.8200       358
    75.8400       414
    75.8600       408
    75.8800       392
    75.9000       366
    75.9200       372
    75.9400       362
    75.9600       370
    75.9800       350
    76.0000       400
    76.0200       334
    76.0400       354
    76.0600       312
    76.0800       336
    76.1000       354
    76.1200       336
    76.1400       324
    76.1600       314
    76.1800       324
    76.2000       316
    76.2200       326
    76.2400       322
    76.2600       310
    76.2800       328
    76.3000       290
    76.3200       306
    76.3400       336
    76.3600       348
    76.3800       308
    76.4000       314
    76.4200       320
    76.4400       346
    76.4600       324
    76.4800       302
    76.5000       344
    76.5200       348
    76.5400       388
    76.5600       346
    76.5800       362
    76.6000       378
    76.6200       378
    76.6400       396
    76.6600       352
    76.6800       398
    76.7000       368
    76.7200       344
    76.7400       368
    76.7600       394
    76.7800       376
    76.8000       332
    76.8200       350
    76.8400       342
    76.8600       358
    76.8800       348
    76.9000       298
    76.9200       308
    76.9400       318
    76.9600       332
    76.9800       314
    77.0000       322
    77.0200       332
    77.0400       320
    77.0600       336
    77.0800       342
    77.1000       338
    77.1200       352
    77.1400       310
    77.1600       352
    77.1800       334
    77.2000       318
    77.2200       366
    77.2400       350
    77.2600       384
    77.2800       416
    77.3000       398
    77.3200       448
    77.3400       430
    77.3600       408
    77.3800       452
    77.4000       480
    77.4200       540
    77.4400       608
    77.4600       588
    77.4800       614
    77.5000       678
    77.5200       692
    77.5400       682
    77.5600       776
    77.5800       766
    77.6000       810
    77.6200       852
    77.6400       822
    77.6600       828
    77.6800       840
    77.7000       820
    77.7200       868
    77.7400       750
    77.7600       796
    77.7800       776
    77.8000       782
    77.8200       740
    77.8400       760
    77.8600       730
    77.8800       662
    77.9000       706
    77.9200       672
    77.9400       642
    77.9600       596
    77.9800       588
    78.0000       566
    78.0200       510
    78.0400       504
    78.0600       514
    78.0800       478
    78.1000       472
    78.1200       452
    78.1400       472
    78.1600       444
    78.1800       448
    78.2000       402
    78.2200       400
    78.2400       402
    78.2600       414
    78.2800       402
    78.3000       412
    78.3200       396
    78.3400       400
    78.3600       386
    78.3800       424
    78.4000       396
    78.4200       406
    78.4400       410
    78.4600       410
    78.4800       430
    78.5000       454
    78.5200       390
    78.5400       412
    78.5600       470
    78.5800       458
    78.6000       432
    78.6200       426
    78.6400       446
    78.6600       458
    78.6800       462
    78.7000       428
    78.7200       398
    78.7400       370
    78.7600       428
    78.7800       414
    78.8000       424
    78.8200       384
    78.8400       346
    78.8600       376
    78.8800       352
    78.9000       356
    78.9200       320
    78.9400       336
    78.9600       292
    78.9800       324
    79.0000       318
    79.0200       284
    79.0400       288
    79.0600       278
    79.0800       262
    79.1000       282
    79.1200       258
    79.1400       256
    79.1600       258
    79.1800       222
    79.2000       228
    79.2200       238
    79.2400       238
    79.2600       230
    79.2800       214
    79.3000       234
    79.3200       254
    79.3400       230
    79.3600       224
    79.3800       224
    79.4000       230
    79.4200       218
    79.4400       222
    79.4600       254
    79.4800       214
    79.5000       252
    79.5200       238
    79.5400       216
    79.5600       234
    79.5800       234
    79.6000       246
    79.6200       238
    79.6400       222
    79.6600       250
    79.6800       242
    79.7000       226
    79.7200       244
    79.7400       258
    79.7600       238
    79.7800       234
    79.8000       216
    79.8200       252
    79.8400       268
    79.8600       228
    79.8800       228
    79.9000       230
    79.9200       226
    79.9400       232
    79.9600       254
    79.9800       218
    80.0000       226
    80.0200       214
    80.0400       246
    80.0600       244
    80.0800       208
    80.1000       208
    80.1200       208
    80.1400       218
    80.1600       224
    80.1800       222
    80.2000       234
    80.2200       198
    80.2400       208
    80.2600       226
    80.2800       246
    80.3000       220
    80.3200       234
    80.3400       232
    80.3600       208
    80.3800       238
    80.4000       218
    80.4200       222
    80.4400       202
    80.4600       178
    80.4800       226
    80.5000       190
    80.5200       190
    80.5400       184
    80.5600       202
    80.5800       194
    80.6000       176
    80.6200       180
    80.6400       204
    80.6600       210
    80.6800       214
    80.7000       232
    80.7200       188
    80.7400       212
    80.7600       188
    80.7800       196
    80.8000       182
    80.8200       168
    80.8400       200
    80.8600       202
    80.8800       180
    80.9000       200
    80.9200       196
    80.9400       194
    80.9600       168
    80.9800       176
    81.0000       186
    81.0200       202
    81.0400       204
    81.0600       214
    81.0800       186
    81.1000       198
    81.1200       220
    81.1400       198
    81.1600       214
    81.1800       234
    81.2000       232
    81.2200       228
    81.2400       240
    81.2600       218
    81.2800       246
    81.3000       240
    81.3200       260
    81.3400       240
    81.3600       270
    81.3800       260
    81.4000       246
    81.4200       244
    81.4400       238
    81.4600       238
    81.4800       264
    81.5000       236
    81.5200       272
    81.5400       284
    81.5600       234
    81.5800       228
    81.6000       270
    81.6200       260
    81.6400       274
    81.6600       212
    81.6800       242
    81.7000       244
    81.7200       238
    81.7400       252
    81.7600       240
    81.7800       244
    81.8000       266
    81.8200       268
    81.8400       260
    81.8600       274
    81.8800       262
    81.9000       292
    81.9200       288
    81.9400       274
    81.9600       260
    81.9800       268
    82.0000       272
    82.0200       276
    82.0400       284
    82.0600       292
    82.0800       276
    82.1000       268
    82.1200       288
    82.1400       320
    82.1600       326
    82.1800       316
    82.2000       364
    82.2200       336
    82.2400       356
    82.2600       338
    82.2800       352
    82.3000       374
    82.3200       360
    82.3400       364
    82.3600       330
    82.3800       376
    82.4000       392
    82.4200       356
    82.4400       382
    82.4600       364
    82.4800       386
    82.5000       394
    82.5200       366
    82.5400       358
    82.5600       394
    82.5800       332
    82.6000       380
    82.6200       384
    82.6400       400
    82.6600       402
    82.6800       390
    82.7000       392
    82.7200       400
    82.7400       400
    82.7600       402
    82.7800       388
    82.8000       362
    82.8200       420
    82.8400       378
    82.8600       402
    82.8800       368
    82.9000       378
    82.9200       386
    82.9400       390
    82.9600       396
    82.9800       432
    83.0000       372
    83.0200       396
    83.0400       352
    83.0600       394
    83.0800       364
    83.1000       380
    83.1200       404
    83.1400       384
    83.1600       414
    83.1800       362
    83.2000       406
    83.2200       396
    83.2400       382
    83.2600       380
    83.2800       354
    83.3000       370
    83.3200       350
    83.3400       352
    83.3600       410
    83.3800       380
    83.4000       354
    83.4200       322
    83.4400       352
    83.4600       324
    83.4800       334
    83.5000       330
    83.5200       320
    83.5400       336
    83.5600       310
    83.5800       312
    83.6000       348
    83.6200       316
    83.6400       298
    83.6600       314
    83.6800       296
    83.7000       312
    83.7200       296
    83.7400       276
    83.7600       274
    83.7800       274
    83.8000       312
    83.8200       282
    83.8400       284
    83.8600       278
    83.8800       276
    83.9000       246
    83.9200       238
    83.9400       272
    83.9600       282
    83.9800       274
    84.0000       302
    84.0200       270
    84.0400       246
    84.0600       260
    84.0800       280
    84.1000       230
    84.1200       256
    84.1400       276
    84.1600       242
    84.1800       238
    84.2000       240
    84.2200       242
    84.2400       248
    84.2600       260
    84.2800       238
    84.3000       218
    84.3200       230
    84.3400       232
    84.3600       212
    84.3800       220
    84.4000       218
    84.4200       224
    84.4400       242
    84.4600       216
    84.4800       244
    84.5000       204
    84.5200       204
    84.5400       194
    84.5600       212
    84.5800       208
    84.6000       218
    84.6200       214
    84.6400       194
    84.6600       194
    84.6800       182
    84.7000       202
    84.7200       214
    84.7400       210
    84.7600       172
    84.7800       178
    84.8000       200
    84.8200       210
    84.8400       190
    84.8600       230
    84.8800       196
    84.9000       200
    84.9200       216
    84.9400       190
    84.9600       206
    84.9800       214
    85.0000       188
    85.0200       200
    85.0400       178
    85.0600       176
    85.0800       162
    85.1000       192
    85.1200       184
    85.1400       204
    85.1600       192
    85.1800       212
    85.2000       200
    85.2200       224
    85.2400       202
    85.2600       220
    85.2800       214
    85.3000       218
    85.3200       228
    85.3400       216
    85.3600       198
    85.3800       248
    85.4000       240
    85.4200       238
    85.4400       230
    85.4600       240
    85.4800       272
    85.5000       260
    85.5200       254
    85.5400       258
    85.5600       244
    85.5800       248
    85.6000       240
    85.6200       214
    85.6400       246
    85.6600       234
    85.6800       250
    85.7000       278
    85.7200       248
    85.7400       232
    85.7600       244
    85.7800       214
    85.8000       218
    85.8200       214
    85.8400       200
    85.8600       246
    85.8800       236
    85.9000       240
    85.9200       224
    85.9400       200
    85.9600       196
    85.9800       220
    86.0000       202
    86.0200       220
    86.0400       208
    86.0600       212
    86.0800       186
    86.1000       190
    86.1200       180
    86.1400       194
    86.1600       206
    86.1800       184
    86.2000       198
    86.2200       198
    86.2400       164
    86.2600       200
    86.2800       198
    86.3000       184
    86.3200       174
    86.3400       186
    86.3600       210
    86.3800       186
    86.4000       198
    86.4200       194
    86.4400       226
    86.4600       206
    86.4800       204
    86.5000       198
    86.5200       204
    86.5400       234
    86.5600       192
    86.5800       230
    86.6000       208
    86.6200       252
    86.6400       206
    86.6600       238
    86.6800       232
    86.7000       230
    86.7200       268
    86.7400       268
    86.7600       236
    86.7800       316
    86.8000       268
    86.8200       296
    86.8400       348
    86.8600       298
    86.8800       324
    86.9000       324
    86.9200       344
    86.9400       348
    86.9600       316
    86.9800       358
    87.0000       356
    87.0200       398
    87.0400       382
    87.0600       396
    87.0800       388
    87.1000       418
    87.1200       408
    87.1400       430
    87.1600       446
    87.1800       470
    87.2000       442
    87.2200       494
    87.2400       474
    87.2600       522
    87.2800       524
    87.3000       510
    87.3200       530
    87.3400       556
    87.3600       514
    87.3800       540
    87.4000       510
    87.4200       554
    87.4400       530
    87.4600       568
    87.4800       476
    87.5000       540
    87.5200       472
    87.5400       508
    87.5600       464
    87.5800       492
    87.6000       512
    87.6200       494
    87.6400       470
    87.6600       468
    87.6800       434
    87.7000       476
    87.7200       448
    87.7400       446
    87.7600       464
    87.7800       464
    87.8000       412
    87.8200       444
    87.8400       414
    87.8600       394
    87.8800       368
    87.9000       406
    87.9200       364
    87.9400       362
    87.9600       364
    87.9800       352
    88.0000       352
    88.0200       356
    88.0400       400
    88.0600       332
    88.0800       322
    88.1000       328
    88.1200       302
    88.1400       292
    88.1600       326
    88.1800       308
    88.2000       304
    88.2200       320
    88.2400       284
    88.2600       290
    88.2800       318
    88.3000       244
    88.3200       244
    88.3400       238
    88.3600       272
    88.3800       258
    88.4000       252
    88.4200       266
    88.4400       252
    88.4600       272
    88.4800       228
    88.5000       290
    88.5200       264
    88.5400       258
    88.5600       234
    88.5800       274
    88.6000       246
    88.6200       210
    88.6400       248
    88.6600       246
    88.6800       234
    88.7000       258
    88.7200       226
    88.7400       254
    88.7600       252
    88.7800       246
    88.8000       266
    88.8200       248
    88.8400       234
    88.8600       248
    88.8800       246
    88.9000       206
    88.9200       246
    88.9400       216
    88.9600       232
    88.9800       216
    89.0000       238
    89.0200       220
    89.0400       216
    89.0600       236
    89.0800       240
    89.1000       250
    89.1200       216
    89.1400       240
    89.1600       210
    89.1800       238
    89.2000       238
    89.2200       218
    89.2400       222
    89.2600       208
    89.2800       236
    89.3000       236
    89.3200       244
    89.3400       230
    89.3600       226
    89.3800       204
    89.4000       256
    89.4200       262
    89.4400       254
    89.4600       268
    89.4800       250
    89.5000       248
    89.5200       244
    89.5400       244
    89.5600       260
    89.5800       248
    89.6000       248
    89.6200       266
    89.6400       266
    89.6600       270
    89.6800       276
    89.7000       294
    89.7200       286
    89.7400       284
    89.7600       286
    89.7800       282
    89.8000       296
    89.8200       262
    89.8400       290
    89.8600       294
    89.8800       290
    89.9000       278
    89.9200       288
    89.9400       284
    89.9600       284
    89.9800       284
    90.0000       332
