    10.0000       392
    10.0200       364
    10.0400       386
    10.0600       346
    10.0800       356
    10.1000       376
    10.1200       386
    10.1400       338
    10.1600       338
    10.1800       366
    10.2000       328
    10.2200       386
    10.2400       320
    10.2600       372
    10.2800       338
    10.3000       394
    10.3200       360
    10.3400       338
    10.3600       364
    10.3800       348
    10.4000       346
    10.4200       358
    10.4400       360
    10.4600       358
    10.4800       336
    10.5000       366
    10.5200       378
    10.5400       338
    10.5600       324
    10.5800       338
    10.6000       318
    10.6200       354
    10.6400       378
    10.6600       326
    10.6800       336
    10.7000       360
    10.7200       318
    10.7400       348
    10.7600       362
    10.7800       370
    10.8000       340
    10.8200       350
    10.8400       326
    10.8600       338
    10.8800       332
    10.9000       332
    10.9200       376
    10.9400       348
    10.9600       306
    10.9800       348
    11.0000       332
    11.0200       346
    11.0400       336
    11.0600       362
    11.0800       336
    11.1000       358
    11.1200       318
    11.1400       344
    11.1600       338
    11.1800       306
    11.2000       306
    11.2200       310
    11.2400       310
    11.2600       324
    11.2800       316
    11.3000       362
    11.3200       328
    11.3400       354
    11.3600       358
    11.3800       332
    11.4000       338
    11.4200       332
    11.4400       302
    11.4600       340
    11.4800       284
    11.5000       286
    11.5200       330
    11.5400       334
    11.5600       340
    11.5800       320
    11.6000       306
    11.6200       340
    11.6400       344
    11.6600       334
    11.6800       296
    11.7000       314
    11.7200       312
    11.7400       336
    11.7600       354
    11.7800       336
    11.8000       396
    11.8200       354
    11.8400       354
    11.8600       350
    11.8800       352
    11.9000       418
    11.9200       426
    11.9400       400
    11.9600       410
    11.9800       430
    12.0000       422
    12.0200       432
    12.0400       536
    12.0600       522
    12.0800       558
    12.1000       596
    12.1200       598
    12.1400       614
    12.1600       686
    12.1800       762
    12.2000       706
    12.2200       710
    12.2400       626
    12.2600       588
    12.2800       470
    12.3000       426
    12.3200       392
    12.3400       366
    12.3600       306
    12.3800       350
    12.4000       354
    12.4200       326
    12.4400       320
    12.4600       334
    12.4800       320
    12.5000       268
    12.5200       288
    12.5400       278
    12.5600       296
    12.5800       312
    12.6000       304
    12.6200       294
    12.6400       296
    12.6600       248
    12.6800       304
    12.7000       280
    12.7200       312
    12.7400       302
    12.7600       282
    12.7800       282
    12.8000       270
    12.8200       278
    12.8400       274
    12.8600       296
    12.8800       274
    12.9000       278
    12.9200       284
    12.9400       258
    12.9600       278
    12.9800       300
    13.0000       272
    13.0200       260
    13.0400       262
    13.0600       302
    13.0800       252
    13.1000       260
    13.1200       266
    13.1400       266
    13.1600       280
    13.1800       272
    13.2000       282
    13.2200       266
    13.2400       222
    13.2600       298
    13.2800       298
    13.3000       260
    13.3200       278
    13.3400       248
    13.3600       270
    13.3800       280
    13.4000       252
    13.4200       270
    13.4400       278
    13.4600       268
    13.4800       266
    13.5000       234
    13.5200       294
    13.5400       266
    13.5600       262
    13.5800       270
    13.6000       280
    13.6200       254
    13.6400       280
    13.6600       248
    13.6800       268
    13.7000       278
    13.7200       252
    13.7400       264
    13.7600       246
    13.7800       238
    13.8000       236
    13.8200       256
    13.8400       256
    13.8600       256
    13.8800       280
    13.9000       262
    13.9200       224
    13.9400       282
    13.9600       262
    13.9800       242
    14.0000       262
    14.0200       260
    14.0400       254
    14.0600       238
    14.0800       288
    14.1000       254
    14.1200       228
    14.1400       260
    14.1600       270
    14.1800       252
    14.2000       234
    14.2200       226
    14.2400       266
    14.2600       268
    14.2800       258
    14.3000       274
    14.3200       240
    14.3400       244
    14.3600       250
    14.3800       258
    14.4000       272
    14.4200       264
    14.4400       250
    14.4600       252
    14.4800       274
    14.5000       268
    14.5200       300
    14.5400       272
    14.5600       276
    14.5800       264
    14.6000       270
    14.6200       296
    14.6400       280
    14.6600       322
    14.6800       284
    14.7000       276
    14.7200       292
    14.7400       304
    14.7600       300
    14.7800       324
    14.8000       286
    14.8200       298
    14.8400       336
    14.8600       362
    14.8800       352
    14.9000       426
    14.9200       402
    14.9400       466
    14.9600       464
    14.9800       538
    15.0000       570
    15.0200       634
    15.0400       584
    15.0600       616
    15.0800       634
    15.1000       724
    15.1200       730
    15.1400       778
    15.1600       736
    15.1800       792
    15.2000       714
    15.2200       684
    15.2400       576
    15.2600       498
    15.2800       436
    15.3000       348
    15.3200       310
    15.3400       326
    15.3600       270
    15.3800       290
    15.4000       252
    15.4200       278
    15.4400       274
    15.4600       250
    15.4800       266
    15.5000       270
    15.5200       250
    15.5400       248
    15.5600       228
    15.5800       230
    15.6000       256
    15.6200       266
    15.6400       262
    15.6600       252
    15.6800       222
    15.7000       208
    15.7200       232
    15.7400       238
    15.7600       214
    15.7800       234
    15.8000       236
    15.8200       234
    15.8400       252
    15.8600       262
    15.8800       268
    15.9000       242
    15.9200       246
    15.9400       232
    15.9600       258
    15.9800       234
    16.0000       256
    16.0200       252
    16.0400       236
    16.0600       246
    16.0800       266
    16.1000       252
    16.1200       284
    16.1400       242
    16.1600       250
    16.1800       228
    16.2000       260
    16.2200       266
    16.2400       262
    16.2600       276
    16.2800       250
    16.3000       264
    16.3200       278
    16.3400       250
    16.3600       248
    16.3800       268
    16.4000       288
    16.4200       274
    16.4400       242
    16.4600       270
    16.4800       238
    16.5000       266
    16.5200       290
    16.5400       252
    16.5600       268
    16.5800       264
    16.6000       298
    16.6200       308
    16.6400       294
    16.6600       276
    16.6800       280
    16.7000       330
    16.7200       320
    16.7400       340
    16.7600       354
    16.7800       376
    16.8000       394
    16.8200       442
    16.8400       420
    16.8600       470
    16.8800       516
    16.9000       608
    16.9200       640
    16.9400       770
    16.9600       824
    16.9800       902
    17.0000      1028
    17.0200      1120
    17.0400      1252
    17.0600      1242
    17.0800      1336
    17.1000      1220
    17.1200      1176
    17.1400      1064
    17.1600       978
    17.1800       978
    17.2000       916
    17.2200       852
    17.2400       752
    17.2600       780
    17.2800       742
    17.3000       702
    17.3200       646
    17.3400       658
    17.3600       582
    17.3800       486
    17.4000       550
    17.4200       460
    17.4400       476
    17.4600       446
    17.4800       452
    17.5000       436
    17.5200       404
    17.5400       416
    17.5600       358
    17.5800       406
    17.6000       400
    17.6200       364
    17.6400       388
    17.6600       438
    17.6800       422
    17.7000       442
    17.7200       422
    17.7400       486
    17.7600       478
    17.7800       462
    17.8000       422
    17.8200       440
    17.8400       388
    17.8600       336
    17.8800       374
    17.9000       282
    17.9200       270
    17.9400       288
    17.9600       240
    17.9800       260
    18.0000       258
    18.0200       238
    18.0400       228
    18.0600       250
    18.0800       246
    18.1000       224
    18.1200       228
    18.1400       216
    18.1600       198
    18.1800       220
    18.2000       192
    18.2200       220
    18.2400       208
    18.2600       228
    18.2800       232
    18.3000       222
    18.3200       230
    18.3400       196
    18.3600       240
    18.3800       226
    18.4000       220
    18.4200       226
    18.4400       228
    18.4600       240
    18.4800       228
    18.5000       216
    18.5200       218
    18.5400       246
    18.5600       252
    18.5800       248
    18.6000       250
    18.6200       250
    18.6400       248
    18.6600       282
    18.6800       270
    18.7000       300
    18.7200       282
    18.7400       292
    18.7600       320
    18.7800       334
    18.8000       334
    18.8200       374
    18.8400       416
    18.8600       406
    18.8800       428
    18.9000       466
    18.9200       484
    18.9400       456
    18.9600       470
    18.9800       490
    19.0000       428
    19.0200       450
    19.0400       426
    19.0600       416
    19.0800       392
    19.1000       380
    19.1200       398
    19.1400       428
    19.1600       394
    19.1800       448
    19.2000       486
    19.2200       516
    19.2400       546
    19.2600       614
    19.2800       614
    19.3000       700
    19.3200       764
    19.3400       878
    19.3600       910
    19.3800      1006
    19.4000      1216
    19.4200      1372
    19.4400      1618
    19.4600      1852
    19.4800      2166
    19.5000      2404
    19.5200      2534
    19.5400      2588
    19.5600      2560
    19.5800      2408
    19.6000      2076
    19.6200      1696
    19.6400      1472
    19.6600      1182
    19.6800      1090
    19.7000       954
    19.7200       838
    19.7400       898
    19.7600       902
    19.7800       924
    19.8000       992
    19.8200      1080
    19.8400      1196
    19.8600      1264
    19.8800      1382
    19.9000      1566
    19.9200      1768
    19.9400      1868
    19.9600      1944
    19.9800      1958
    20.0000      1918
    20.0200      1754
    20.0400      1600
    20.0600      1332
    20.0800      1064
    20.1000       862
    20.1200       694
    20.1400       584
    20.1600       492
    20.1800       456
    20.2000       430
    20.2200       406
    20.2400       392
    20.2600       362
    20.2800       366
    20.3000       340
    20.3200       334
    20.3400       304
    20.3600       290
    20.3800       332
    20.4000       322
    20.4200       274
    20.4400       252
    20.4600       254
    20.4800       264
    20.5000       248
    20.5200       232
    20.5400       254
    20.5600       248
    20.5800       248
    20.6000       254
    20.6200       264
    20.6400       268
    20.6600       248
    20.6800       264
    20.7000       272
    20.7200       258
    20.7400       254
    20.7600       292
    20.7800       290
    20.8000       322
    20.8200       320
    20.8400       382
    20.8600       384
    20.8800       410
    20.9000       404
    20.9200       462
    20.9400       484
    20.9600       560
    20.9800       634
    21.0000       712
    21.0200       758
    21.0400       874
    21.0600       992
    21.0800      1128
    21.1000      1280
    21.1200      1544
    21.1400      1762
    21.1600      1826
    21.1800      2074
    21.2000      2092
    21.2200      2124
    21.2400      1988
    21.2600      1726
    21.2800      1556
    21.3000      1398
    21.3200      1096
    21.3400       890
    21.3600       776
    21.3800       628
    21.4000       532
    21.4200       468
    21.4400       410
    21.4600       358
    21.4800       352
    21.5000       314
    21.5200       282
    21.5400       270
    21.5600       272
    21.5800       286
    21.6000       256
    21.6200       282
    21.6400       248
    21.6600       284
    21.6800       250
    21.7000       272
    21.7200       238
    21.7400       248
    21.7600       238
    21.7800       246
    21.8000       222
    21.8200       258
    21.8400       264
    21.8600       244
    21.8800       244
    21.9000       276
    21.9200       260
    21.9400       276
    21.9600       272
    21.9800       238
    22.0000       270
    22.0200       234
    22.0400       224
    22.0600       226
    22.0800       230
    22.1000       220
    22.1200       232
    22.1400       258
    22.1600       206
    22.1800       230
    22.2000       246
    22.2200       226
    22.2400       266
    22.2600       236
    22.2800       256
    22.3000       238
    22.3200       266
    22.3400       280
    22.3600       286
    22.3800       310
    22.4000       298
    22.4200       340
    22.4400       338
    22.4600       334
    22.4800       436
    22.5000       468
    22.5200       468
    22.5400       534
    22.5600       584
    22.5800       618
    22.6000       762
    22.6200       840
    22.6400       924
    22.6600      1014
    22.6800      1134
    22.7000      1416
    22.7200      1588
    22.7400      1872
    22.7600      2152
    22.7800      2558
    22.8000      2846
    22.8200      3204
    22.8400      3462
    22.8600      3572
    22.8800      3482
    22.9000      3194
    22.9200      2688
    22.9400      2330
    22.9600      1918
    22.9800      1464
    23.0000      1162
    23.0200       966
    23.0400       848
    23.0600       720
    23.0800       654
    23.1000       592
    23.1200       564
    23.1400       540
    23.1600       506
    23.1800       484
    23.2000       408
    23.2200       404
    23.2400       384
    23.2600       378
    23.2800       360
    23.3000       332
    23.3200       314
    23.3400       306
    23.3600       270
    23.3800       302
    23.4000       280
    23.4200       310
    23.4400       280
    23.4600       244
    23.4800       268
    23.5000       278
    23.5200       232
    23.5400       232
    23.5600       266
    23.5800       250
    23.6000       234
    23.6200       242
    23.6400       244
    23.6600       234
    23.6800       238
    23.7000       234
    23.7200       226
    23.7400       268
    23.7600       256
    23.7800       224
    23.8000       242
    23.8200       246
    23.8400       212
    23.8600       246
    23.8800       248
    23.9000       242
    23.9200       242
    23.9400       244
    23.9600       252
    23.9800       266
    24.0000       250
    24.0200       268
    24.0400       286
    24.0600       270
    24.0800       246
    24.1000       270
    24.1200       294
    24.1400       296
    24.1600       282
    24.1800       284
    24.2000       338
    24.2200       366
    24.2400       390
    24.2600       410
    24.2800       442
    24.3000       464
    24.3200       514
    24.3400       564
    24.3600       612
    24.3800       696
    24.4000       818
    24.4200       890
    24.4400       962
    24.4600      1086
    24.4800      1206
    24.5000      1316
    24.5200      1364
    24.5400      1354
    24.5600      1348
    24.5800      1228
    24.6000      1214
    24.6200      1086
    24.6400       904
    24.6600       830
    24.6800       762
    24.7000       690
    24.7200       616
    24.7400       586
    24.7600       556
    24.7800       494
    24.8000       520
    24.8200       484
    24.8400       416
    24.8600       444
    24.8800       392
    24.9000       476
    24.9200       442
    24.9400       420
    24.9600       452
    24.9800       460
    25.0000       452
    25.0200       448
    25.0400       482
    25.0600       522
    25.0800       566
    25.1000       572
    25.1200       502
    25.1400       570
    25.1600       636
    25.1800       672
    25.2000       706
    25.2200       710
    25.2400       692
    25.2600       744
    25.2800       712
    25.3000       756
    25.3200       648
    25.3400       650
    25.3600       580
    25.3800       612
    25.4000       608
    25.4200       582
    25.4400       644
    25.4600       646
    25.4800       706
    25.5000       766
    25.5200       838
    25.5400       866
    25.5600       920
    25.5800      1020
    25.6000      1014
    25.6200       972
    25.6400       868
    25.6600       786
    25.6800       672
    25.7000       610
    25.7200       534
    25.7400       426
    25.7600       418
    25.7800       420
    25.8000       396
    25.8200       390
    25.8400       318
    25.8600       296
    25.8800       336
    25.9000       276
    25.9200       312
    25.9400       286
    25.9600       310
    25.9800       250
    26.0000       278
    26.0200       272
    26.0400       256
    26.0600       254
    26.0800       250
    26.1000       286
    26.1200       236
    26.1400       240
    26.1600       238
    26.1800       242
    26.2000       264
    26.2200       250
    26.2400       262
    26.2600       266
    26.2800       272
    26.3000       276
    26.3200       294
    26.3400       288
    26.3600       306
    26.3800       286
    26.4000       330
    26.4200       334
    26.4400       340
    26.4600       328
    26.4800       332
    26.5000       302
    26.5200       340
    26.5400       334
    26.5600       326
    26.5800       376
    26.6000       344
    26.6200       344
    26.6400       342
    26.6600       354
    26.6800       370
    26.7000       324
    26.7200       302
    26.7400       330
    26.7600       304
    26.7800       290
    26.8000       282
    26.8200       276
    26.8400       264
    26.8600       276
    26.8800       252
    26.9000       262
    26.9200       242
    26.9400       268
    26.9600       266
    26.9800       278
    27.0000       282
    27.0200       292
    27.0400       284
    27.0600       302
    27.0800       316
    27.1000       286
    27.1200       310
    27.1400       340
    27.1600       354
    27.1800       350
    27.2000       366
    27.2200       392
    27.2400       486
    27.2600       500
    27.2800       602
    27.3000       574
    27.3200       648
    27.3400       768
    27.3600       804
    27.3800       912
    27.4000      1070
    27.4200      1202
    27.4400      1208
    27.4600      1298
    27.4800      1298
    27.5000      1364
    27.5200      1328
    27.5400      1168
    27.5600      1088
    27.5800       980
    27.6000       912
    27.6200       808
    27.6400       726
    27.6600       596
    27.6800       574
    27.7000       500
    27.7200       448
    27.7400       428
    27.7600       402
    27.7800       376
    27.8000       342
    27.8200       296
    27.8400       322
    27.8600       324
    27.8800       322
    27.9000       310
    27.9200       312
    27.9400       300
    27.9600       292
    27.9800       294
    28.0000       318
    28.0200       314
    28.0400       318
    28.0600       324
    28.0800       310
    28.1000       304
    28.1200       350
    28.1400       346
    28.1600       392
    28.1800       394
    28.2000       370
    28.2200       396
    28.2400       394
    28.2600       444
    28.2800       440
    28.3000       456
    28.3200       406
    28.3400       356
    28.3600       336
    28.3800       344
    28.4000       338
    28.4200       334
    28.4400       308
    28.4600       334
    28.4800       286
    28.5000       270
    28.5200       278
    28.5400       272
    28.5600       272
    28.5800       270
    28.6000       300
    28.6200       278
    28.6400       324
    28.6600       282
    28.6800       300
    28.7000       306
    28.7200       290
    28.7400       304
    28.7600       282
    28.7800       304
    28.8000       304
    28.8200       306
    28.8400       280
    28.8600       274
    28.8800       230
    28.9000       274
    28.9200       268
    28.9400       256
    28.9600       260
    28.9800       224
    29.0000       244
    29.0200       254
    29.0400       266
    29.0600       252
    29.0800       312
    29.1000       252
    29.1200       274
    29.1400       276
    29.1600       288
    29.1800       256
    29.2000       310
    29.2200       284
    29.2400       306
    29.2600       312
    29.2800       342
    29.3000       336
    29.3200       364
    29.3400       360
    29.3600       372
    29.3800       420
    29.4000       436
    29.4200       486
    29.4400       472
    29.4600       466
    29.4800       510
    29.5000       590
    29.5200       596
    29.5400       676
    29.5600       604
    29.5800       568
    29.6000       656
    29.6200       658
    29.6400       644
    29.6600       618
    29.6800       578
    29.7000       504
    29.7200       510
    29.7400       482
    29.7600       450
    29.7800       426
    29.8000       448
    29.8200       414
    29.8400       466
    29.8600       474
    29.8800       514
    29.9000       508
    29.9200       582
    29.9400       688
    29.9600       700
    29.9800       836
    30.0000       880
    30.0200      1036
    30.0400      1166
    30.0600      1336
    30.0800      1482
    30.1000      1698
    30.1200      1860
    30.1400      2018
    30.1600      2178
    30.1800      2258
    30.2000      2332
    30.2200      2242
    30.2400      2310
    30.2600      2104
    30.2800      2070
    30.3000      1896
    30.3200      1842
    30.3400      1732
    30.3600      1754
    30.3800      1674
    30.4000      1604
    30.4200      1632
    30.4400      1746
    30.4600      1824
    30.4800      1970
    30.5000      2154
    30.5200      2362
    30.5400      2508
    30.5600      2756
    30.5800      3004
    30.6000      3252
    30.6200      3332
    30.6400      3452
    30.6600      3510
    30.6800      3204
    30.7000      3022
    30.7200      2738
    30.7400      2408
    30.7600      2068
    30.7800      1800
    30.8000      1584
    30.8200      1326
    30.8400      1190
    30.8600      1220
    30.8800      1100
    30.9000      1004
    30.9200      1068
    30.9400      1020
    30.9600      1032
    30.9800      1032
    31.0000      1148
    31.0200      1134
    31.0400      1248
    31.0600      1298
    31.0800      1284
    31.1000      1458
    31.1200      1518
    31.1400      1526
    31.1600      1572
    31.1800      1574
    31.2000      1602
    31.2200      1528
    31.2400      1416
    31.2600      1304
    31.2800      1170
    31.3000      1132
    31.3200      1028
    31.3400       900
    31.3600       826
    31.3800       756
    31.4000       670
    31.4200       588
    31.4400       622
    31.4600       526
    31.4800       498
    31.5000       504
    31.5200       498
    31.5400       490
    31.5600       462
    31.5800       482
    31.6000       480
    31.6200       494
    31.6400       472
    31.6600       564
    31.6800       578
    31.7000       530
    31.7200       582
    31.7400       604
    31.7600       696
    31.7800       682
    31.8000       742
    31.8200       788
    31.8400       866
    31.8600       992
    31.8800      1090
    31.9000      1296
    31.9200      1450
    31.9400      1492
    31.9600      1700
    31.9800      1866
    32.0000      1902
    32.0200      1870
    32.0400      1902
    32.0600      1836
    32.0800      1604
    32.1000      1612
    32.1200      1458
    32.1400      1324
    32.1600      1236
    32.1800      1174
    32.2000      1204
    32.2200      1142
    32.2400      1262
    32.2600      1286
    32.2800      1370
    32.3000      1474
    32.3200      1734
    32.3400      1850
    32.3600      2164
    32.3800      2374
    32.4000      2744
    32.4200      3228
    32.4400      3508
    32.4600      4306
    32.4800      4738
    32.5000      5266
    32.5200      5778
    32.5400      6008
    32.5600      6176
    32.5800      6072
    32.6000      5830
    32.6200      5554
    32.6400      4834
    32.6600      4330
    32.6800      3898
    32.7000      3282
    32.7200      2780
    32.7400      2428
    32.7600      2094
    32.7800      1694
    32.8000      1600
    32.8200      1406
    32.8400      1272
    32.8600      1172
    32.8800      1144
    32.9000      1100
    32.9200      1034
    32.9400      1000
    32.9600      1078
    32.9800      1082
    33.0000      1182
    33.0200      1214
    33.0400      1260
    33.0600      1330
    33.0800      1330
    33.1000      1342
    33.1200      1290
    33.1400      1172
    33.1600      1106
    33.1800       926
    33.2000       868
    33.2200       798
    33.2400       636
    33.2600       598
    33.2800       520
    33.3000       478
    33.3200       414
    33.3400       424
    33.3600       396
    33.3800       400
    33.4000       344
    33.4200       332
    33.4400       324
    33.4600       290
    33.4800       290
    33.5000       290
    33.5200       304
    33.5400       292
    33.5600       286
    33.5800       262
    33.6000       260
    33.6200       260
    33.6400       240
    33.6600       258
    33.6800       232
    33.7000       268
    33.7200       244
    33.7400       248
    33.7600       242
    33.7800       214
    33.8000       250
    33.8200       240
    33.8400       216
    33.8600       238
    33.8800       218
    33.9000       218
    33.9200       244
    33.9400       234
    33.9600       232
    33.9800       246
    34.0000       246
    34.0200       202
    34.0400       258
    34.0600       240
    34.0800       244
    34.1000       258
    34.1200       256
    34.1400       228
    34.1600       246
    34.1800       236
    34.2000       206
    34.2200       254
    34.2400       234
    34.2600       226
    34.2800       244
    34.3000       266
    34.3200       252
    34.3400       274
    34.3600       270
    34.3800       288
    34.4000       306
    34.4200       314
    34.4400       312
    34.4600       368
    34.4800       352
    34.5000       424
    34.5200       406
    34.5400       372
    34.5600       406
    34.5800       388
    34.6000       430
    34.6200       372
    34.6400       356
    34.6600       320
    34.6800       360
    34.7000       358
    34.7200       332
    34.7400       324
    34.7600       344
    34.7800       332
    34.8000       316
    34.8200       344
    34.8400       328
    34.8600       338
    34.8800       382
    34.9000       358
    34.9200       342
    34.9400       366
    34.9600       376
    34.9800       398
    35.0000       438
    35.0200       452
    35.0400       426
    35.0600       476
    35.0800       436
    35.1000       422
    35.1200       436
    35.1400       404
    35.1600       424
    35.1800       340
    35.2000       338
    35.2200       328
    35.2400       282
    35.2600       296
    35.2800       256
    35.3000       244
    35.3200       266
    35.3400       290
    35.3600       268
    35.3800       262
    35.4000       286
    35.4200       270
    35.4400       260
    35.4600       260
    35.4800       252
    35.5000       232
    35.5200       274
    35.5400       284
    35.5600       254
    35.5800       282
    35.6000       284
    35.6200       284
    35.6400       298
    35.6600       316
    35.6800       308
    35.7000       298
    35.7200       314
    35.7400       310
    35.7600       318
    35.7800       342
    35.8000       344
    35.8200       370
    35.8400       382
    35.8600       368
    35.8800       430
    35.9000       434
    35.9200       496
    35.9400       466
    35.9600       522
    35.9800       496
    36.0000       582
    36.0200       586
    36.0400       616
    36.0600       640
    36.0800       672
    36.1000       682
    36.1200       688
    36.1400       706
    36.1600       680
    36.1800       652
    36.2000       604
    36.2200       588
    36.2400       534
    36.2600       516
    36.2800       550
    36.3000       492
    36.3200       436
    36.3400       392
    36.3600       376
    36.3800       412
    36.4000       378
    36.4200       350
    36.4400       396
    36.4600       362
    36.4800       394
    36.5000       378
    36.5200       406
    36.5400       396
    36.5600       402
    36.5800       442
    36.6000       482
    36.6200       506
    36.6400       534
    36.6600       548
    36.6800       616
    36.7000       694
    36.7200       778
    36.7400       766
    36.7600       922
    36.7800      1048
    36.8000      1152
    36.8200      1330
    36.8400      1396
    36.8600      1540
    36.8800      1640
    36.9000      1548
    36.9200      1618
    36.9400      1518
    36.9600      1500
    36.9800      1376
    37.0000      1338
    37.0200      1268
    37.0400      1196
    37.0600      1058
    37.0800       980
    37.1000       982
    37.1200       952
    37.1400       934
    37.1600       952
    37.1800       950
    37.2000       934
    37.2200       852
    37.2400       852
    37.2600       832
    37.2800       772
    37.3000       796
    37.3200       736
    37.3400       634
    37.3600       654
    37.3800       620
    37.4000       648
    37.4200       576
    37.4400       568
    37.4600       556
    37.4800       554
    37.5000       510
    37.5200       590
    37.5400       566
    37.5600       564
    37.5800       642
    37.6000       614
    37.6200       630
    37.6400       674
    37.6600       676
    37.6800       708
    37.7000       730
    37.7200       714
    37.7400       742
    37.7600       816
    37.7800       794
    37.8000       834
    37.8200       880
    37.8400       874
    37.8600       960
    37.8800      1042
    37.9000      1066
    37.9200      1162
    37.9400      1360
    37.9600      1498
    37.9800      1654
    38.0000      1688
    38.0200      1730
    38.0400      1812
    38.0600      1836
    38.0800      1858
    38.1000      1736
    38.1200      1604
    38.1400      1758
    38.1600      1616
    38.1800      1622
    38.2000      1624
    38.2200      1634
    38.2400      1740
    38.2600      1902
    38.2800      1926
    38.3000      2092
    38.3200      2358
    38.3400      2556
    38.3600      2894
    38.3800      3118
    38.4000      3450
    38.4200      3698
    38.4400      4050
    38.4600      4222
    38.4800      4426
    38.5000      4620
    38.5200      4678
    38.5400      4670
    38.5600      4822
    38.5800      4646
    38.6000      4570
    38.6200      4578
    38.6400      4476
    38.6600      4474
    38.6800      4296
    38.7000      4000
    38.7200      3824
    38.7400      3636
    38.7600      3442
    38.7800      3308
    38.8000      2832
    38.8200      2664
    38.8400      2484
    38.8600      2140
    38.8800      1902
    38.9000      1780
    38.9200      1530
    38.9400      1448
    38.9600      1256
    38.9800      1270
    39.0000      1220
    39.0200      1134
    39.0400      1078
    39.0600      1052
    39.0800      1126
    39.1000      1024
    39.1200      1136
    39.1400      1118
    39.1600      1142
    39.1800      1092
    39.2000      1140
    39.2200      1076
    39.2400      1180
    39.2600      1120
    39.2800      1134
    39.3000      1196
    39.3200      1118
    39.3400      1102
    39.3600      1070
    39.3800      1090
    39.4000      1028
    39.4200       998
    39.4400       980
    39.4600       992
    39.4800       948
    39.5000       984
    39.5200      1038
    39.5400      1086
    39.5600      1110
    39.5800      1236
    39.6000      1470
    39.6200      1466
    39.6400      1572
    39.6600      1762
    39.6800      1812
    39.7000      1868
    39.7200      1912
    39.7400      1804
    39.7600      1796
    39.7800      1600
    39.8000      1484
    39.8200      1408
    39.8400      1332
    39.8600      1182
    39.8800      1014
    39.9000       912
    39.9200       914
    39.9400       760
    39.9600       808
    39.9800       734
    40.0000       708
    40.0200       714
    40.0400       662
    40.0600       660
    40.0800       716
    40.1000       702
    40.1200       706
    40.1400       744
    40.1600       724
    40.1800       744
    40.2000       766
    40.2200       794
    40.2400       716
    40.2600       752
    40.2800       768
    40.3000       732
    40.3200       754
    40.3400       814
    40.3600       860
    40.3800       876
    40.4000       908
    40.4200       984
    40.4400      1002
    40.4600      1058
    40.4800      1142
    40.5000      1186
    40.5200      1226
    40.5400      1242
    40.5600      1260
    40.5800      1214
    40.6000      1276
    40.6200      1224
    40.6400      1260
    40.6600      1116
    40.6800      1118
    40.7000      1086
    40.7200      1024
    40.7400       898
    40.7600       860
    40.7800       764
    40.8000       724
    40.8200       716
    40.8400       698
    40.8600       640
    40.8800       620
    40.9000       664
    40.9200       608
    40.9400       570
    40.9600       654
    40.9800       678
    41.0000       694
    41.0200       720
    41.0400       708
    41.0600       794
    41.0800       872
    41.1000       936
    41.1200      1028
    41.1400      1098
    41.1600      1206
    41.1800      1310
    41.2000      1422
    41.2200      1466
    41.2400      1612
    41.2600      1700
    41.2800      1712
    41.3000      1812
    41.3200      1806
    41.3400      1868
    41.3600      1780
    41.3800      1788
    41.4000      1660
    41.4200      1648
    41.4400      1560
    41.4600      1466
    41.4800      1342
    41.5000      1308
    41.5200      1176
    41.5400      1116
    41.5600      1030
    41.5800       932
    41.6000       922
    41.6200       918
    41.6400       888
    41.6600       824
    41.6800       836
    41.7000       832
    41.7200       906
    41.7400       946
    41.7600       978
    41.7800      1072
    41.8000      1150
    41.8200      1190
    41.8400      1338
    41.8600      1374
    41.8800      1352
    41.9000      1370
    41.9200      1392
    41.9400      1388
    41.9600      1420
    41.9800      1242
    42.0000      1124
    42.0200      1058
    42.0400      1016
    42.0600       920
    42.0800       806
    42.1000       774
    42.1200       684
    42.1400       612
    42.1600       608
    42.1800       544
    42.2000       528
    42.2200       536
    42.2400       486
    42.2600       470
    42.2800       442
    42.3000       428
    42.3200       448
    42.3400       392
    42.3600       358
    42.3800       398
    42.4000       430
    42.4200       436
    42.4400       410
    42.4600       382
    42.4800       416
    42.5000       392
    42.5200       368
    42.5400       346
    42.5600       336
    42.5800       346
    42.6000       372
    42.6200       376
    42.6400       352
    42.6600       352
    42.6800       338
    42.7000       368
    42.7200       374
    42.7400       378
    42.7600       404
    42.7800       380
    42.8000       390
    42.8200       400
    42.8400       476
    42.8600       432
    42.8800       486
    42.9000       504
    42.9200       496
    42.9400       570
    42.9600       564
    42.9800       636
    43.0000       674
    43.0200       704
    43.0400       800
    43.0600       894
    43.0800      1018
    43.1000      1048
    43.1200      1132
    43.1400      1294
    43.1600      1458
    43.1800      1502
    43.2000      1598
    43.2200      1652
    43.2400      1644
    43.2600      1580
    43.2800      1540
    43.3000      1474
    43.3200      1380
    43.3400      1268
    43.3600      1078
    43.3800      1066
    43.4000       996
    43.4200       870
    43.4400       796
    43.4600       714
    43.4800       644
    43.5000       602
    43.5200       570
    43.5400       532
    43.5600       500
    43.5800       516
    43.6000       540
    43.6200       510
    43.6400       546
    43.6600       506
    43.6800       546
    43.7000       530
    43.7200       562
    43.7400       612
    43.7600       624
    43.7800       590
    43.8000       608
    43.8200       612
    43.8400       668
    43.8600       638
    43.8800       606
    43.9000       572
    43.9200       616
    43.9400       552
    43.9600       578
    43.9800       594
    44.0000       534
    44.0200       506
    44.0400       500
    44.0600       476
    44.0800       474
    44.1000       524
    44.1200       510
    44.1400       520
    44.1600       490
    44.1800       478
    44.2000       466
    44.2200       476
    44.2400       498
    44.2600       556
    44.2800       510
    44.3000       572
    44.3200       588
    44.3400       522
    44.3600       632
    44.3800       624
    44.4000       616
    44.4200       664
    44.4400       768
    44.4600       778
    44.4800       796
    44.5000       888
    44.5200       912
    44.5400       950
    44.5600      1064
    44.5800      1088
    44.6000      1184
    44.6200      1210
    44.6400      1304
    44.6600      1360
    44.6800      1372
    44.7000      1542
    44.7200      1490
    44.7400      1472
    44.7600      1490
    44.7800      1484
    44.8000      1472
    44.8200      1508
    44.8400      1454
    44.8600      1490
    44.8800      1438
    44.9000      1512
    44.9200      1538
    44.9400      1562
    44.9600      1674
    44.9800      1772
    45.0000      1824
    45.0200      1914
    45.0400      1986
    45.0600      2028
    45.0800      2026
    45.1000      2030
    45.1200      1972
    45.1400      1946
    45.1600      1930
    45.1800      1976
    45.2000      1856
    45.2200      1782
    45.2400      1658
    45.2600      1688
    45.2800      1588
    45.3000      1428
    45.3200      1354
    45.3400      1286
    45.3600      1238
    45.3800      1142
    45.4000      1154
    45.4200       990
    45.4400      1062
    45.4600       948
    45.4800      1002
    45.5000       886
    45.5200       936
    45.5400       838
    45.5600       846
    45.5800       822
    45.6000       752
    45.6200       832
    45.6400       756
    45.6600       748
    45.6800       756
    45.7000       716
    45.7200       722
    45.7400       740
    45.7600       724
    45.7800       752
    45.8000       694
    45.8200       698
    45.8400       742
    45.8600       710
    45.8800       686
    45.9000       676
    45.9200       678
    45.9400       652
    45.9600       688
    45.9800       648
    46.0000       628
    46.0200       690
    46.0400       690
    46.0600       684
    46.0800       670
    46.1000       702
    46.1200       676
    46.1400       744
    46.1600       712
    46.1800       764
    46.2000       722
    46.2200       800
    46.2400       820
    46.2600       884
    46.2800       890
    46.3000       952
    46.3200      1066
    46.3400      1090
    46.3600      1198
    46.3800      1262
    46.4000      1348
    46.4200      1518
    46.4400      1690
    46.4600      1830
    46.4800      2030
    46.5000      2236
    46.5200      2506
    46.5400      2644
    46.5600      3136
    46.5800      3484
    46.6000      3860
    46.6200      4358
    46.6400      4774
    46.6600      5086
    46.6800      5668
    46.7000      5742
    46.7200      5838
    46.7400      5762
    46.7600      5768
    46.7800      5462
    46.8000      5184
    46.8200      4844
    46.8400      4286
    46.8600      3922
    46.8800      3556
    46.9000      3244
    46.9200      2808
    46.9400      2432
    46.9600      2208
    46.9800      1948
    47.0000      1796
    47.0200      1566
    47.0400      1394
    47.0600      1358
    47.0800      1196
    47.1000      1092
    47.1200      1002
    47.1400       948
    47.1600       908
    47.1800       864
    47.2000       768
    47.2200       792
    47.2400       712
    47.2600       648
    47.2800       652
    47.3000       640
    47.3200       624
    47.3400       590
    47.3600       582
    47.3800       570
    47.4000       578
    47.4200       466
    47.4400       464
    47.4600       484
    47.4800       484
    47.5000       486
    47.5200       488
    47.5400       472
    47.5600       488
    47.5800       454
    47.6000       516
    47.6200       454
    47.6400       498
    47.6600       514
    47.6800       536
    47.7000       538
    47.7200       540
    47.7400       570
    47.7600       624
    47.7800       626
    47.8000       680
    47.8200       682
    47.8400       692
    47.8600       670
    47.8800       662
    47.9000       734
    47.9200       724
    47.9400       756
    47.9600       712
    47.9800       638
    48.0000       670
    48.0200       676
    48.0400       652
    48.0600       648
    48.0800       616
    48.1000       626
    48.1200       670
    48.1400       674
    48.1600       690
    48.1800       766
    48.2000       782
    48.2200       756
    48.2400       786
    48.2600       742
    48.2800       788
    48.3000       802
    48.3200       774
    48.3400       824
    48.3600       800
    48.3800       856
    48.4000       856
    48.4200       882
    48.4400       914
    48.4600       934
    48.4800      1000
    48.5000      1024
    48.5200      1116
    48.5400      1146
    48.5600      1194
    48.5800      1108
    48.6000      1194
    48.6200      1130
    48.6400      1148
    48.6600      1180
    48.6800      1094
    48.7000      1124
    48.7200      1020
    48.7400      1008
    48.7600       968
    48.7800       938
    48.8000       848
    48.8200       836
    48.8400       730
    48.8600       672
    48.8800       704
    48.9000       624
    48.9200       552
    48.9400       548
    48.9600       560
    48.9800       490
    49.0000       514
    49.0200       490
    49.0400       446
    49.0600       470
    49.0800       422
    49.1000       378
    49.1200       400
    49.1400       396
    49.1600       384
    49.1800       388
    49.2000       360
    49.2200       328
    49.2400       308
    49.2600       344
    49.2800       334
    49.3000       352
    49.3200       326
    49.3400       342
    49.3600       338
    49.3800       330
    49.4000       338
    49.4200       312
    49.4400       308
    49.4600       304
    49.4800       298
    49.5000       314
    49.5200       286
    49.5400       316
    49.5600       338
    49.5800       334
    49.6000       332
    49.6200       322
    49.6400       320
    49.6600       350
    49.6800       358
    49.7000       370
    49.7200       358
    49.7400       340
    49.7600       314
    49.7800       384
    49.8000       346
    49.8200       384
    49.8400       402
    49.8600       372
    49.8800       430
    49.9000       360
    49.9200       414
    49.9400       432
    49.9600       484
    49.9800       506
    50.0000       548
    50.0200       560
    50.0400       616
    50.0600       612
    50.0800       694
    50.1000       684
    50.1200       774
    50.1400       792
    50.1600       888
    50.1800      1006
    50.2000       938
    50.2200      1094
    50.2400      1186
    50.2600      1168
    50.2800      1198
    50.3000      1278
    50.3200      1314
    50.3400      1342
    50.3600      1356
    50.3800      1356
    50.4000      1334
    50.4200      1326
    50.4400      1240
    50.4600      1282
    50.4800      1212
    50.5000      1230
    50.5200      1100
    50.5400      1140
    50.5600      1104
    50.5800      1082
    50.6000      1136
    50.6200      1092
    50.6400      1058
    50.6600      1186
    50.6800      1142
    50.7000      1176
    50.7200      1258
    50.7400      1218
    50.7600      1240
    50.7800      1310
    50.8000      1246
    50.8200      1280
    50.8400      1282
    50.8600      1266
    50.8800      1296
    50.9000      1240
    50.9200      1216
    50.9400      1170
    50.9600      1082
    50.9800      1052
    51.0000      1044
    51.0200       966
    51.0400       836
    51.0600       816
    51.0800       830
    51.1000       832
    51.1200       814
    51.1400       722
    51.1600       718
    51.1800       756
    51.2000       756
    51.2200       760
    51.2400       752
    51.2600       750
    51.2800       794
    51.3000       764
    51.3200       790
    51.3400       804
    51.3600       820
    51.3800       842
    51.4000       838
    51.4200       806
    51.4400       862
    51.4600       814
    51.4800       822
    51.5000       802
    51.5200       834
    51.5400       830
    51.5600       806
    51.5800       848
    51.6000       838
    51.6200       806
    51.6400       848
    51.6600       952
    51.6800       878
    51.7000       962
    51.7200       990
    51.7400      1050
    51.7600      1016
    51.7800      1084
    51.8000      1144
    51.8200      1220
    51.8400      1308
    51.8600      1380
    51.8800      1418
    51.9000      1394
    51.9200      1378
    51.9400      1416
    51.9600      1398
    51.9800      1270
    52.0000      1272
    52.0200      1202
    52.0400      1126
    52.0600      1082
    52.0800      1050
    52.1000       956
    52.1200       924
    52.1400       848
    52.1600       818
    52.1800       764
    52.2000       694
    52.2200       712
    52.2400       698
    52.2600       682
    52.2800       648
    52.3000       664
    52.3200       676
    52.3400       660
    52.3600       702
    52.3800       762
    52.4000       730
    52.4200       784
    52.4400       830
    52.4600       904
    52.4800       886
    52.5000       948
    52.5200       994
    52.5400      1094
    52.5600      1044
    52.5800      1142
    52.6000      1132
    52.6200      1224
    52.6400      1198
    52.6600      1174
    52.6800      1180
    52.7000      1084
    52.7200      1160
    52.7400      1056
    52.7600      1130
    52.7800       972
    52.8000       940
    52.8200       924
    52.8400       900
    52.8600       864
    52.8800       858
    52.9000       804
    52.9200       770
    52.9400       744
    52.9600       728
    52.9800       732
    53.0000       728
    53.0200       726
    53.0400       766
    53.0600       820
    53.0800       732
    53.1000       774
    53.1200       860
    53.1400       914
    53.1600       930
    53.1800      1004
    53.2000      1084
    53.2200      1196
    53.2400      1248
    53.2600      1222
    53.2800      1362
    53.3000      1346
    53.3200      1414
    53.3400      1250
    53.3600      1220
    53.3800      1176
    53.4000      1118
    53.4200      1128
    53.4400      1086
    53.4600      1012
    53.4800       956
    53.5000       914
    53.5200       842
    53.5400       794
    53.5600       784
    53.5800       736
    53.6000       690
    53.6200       632
    53.6400       638
    53.6600       624
    53.6800       574
    53.7000       538
    53.7200       548
    53.7400       530
    53.7600       490
    53.7800       474
    53.8000       488
    53.8200       516
    53.8400       472
    53.8600       456
    53.8800       486
    53.9000       472
    53.9200       442
    53.9400       408
    53.9600       414
    53.9800       424
    54.0000       384
    54.0200       430
    54.0400       418
    54.0600       450
    54.0800       440
    54.1000       406
    54.1200       438
    54.1400       448
    54.1600       430
    54.1800       450
    54.2000       456
    54.2200       496
    54.2400       490
    54.2600       506
    54.2800       504
    54.3000       528
    54.3200       498
    54.3400       530
    54.3600       514
    54.3800       546
    54.4000       534
    54.4200       556
    54.4400       586
    54.4600       576
    54.4800       564
    54.5000       598
    54.5200       554
    54.5400       598
    54.5600       602
    54.5800       604
    54.6000       630
    54.6200       646
    54.6400       668
    54.6600       650
    54.6800       672
    54.7000       754
    54.7200       792
    54.7400       754
    54.7600       758
    54.7800       808
    54.8000       772
    54.8200       800
    54.8400       780
    54.8600       746
    54.8800       736
    54.9000       774
    54.9200       744
    54.9400       792
    54.9600       800
    54.9800       816
    55.0000       798
    55.0200       898
    55.0400       822
    55.0600       874
    55.0800       920
    55.1000       900
    55.1200       932
    55.1400       974
    55.1600       988
    55.1800      1004
    55.2000      1090
    55.2200      1028
    55.2400      1036
    55.2600       916
    55.2800      1010
    55.3000      1006
    55.3200       906
    55.3400       922
    55.3600       936
    55.3800       930
    55.4000       920
    55.4200       934
    55.4400       856
    55.4600       814
    55.4800       842
    55.5000       806
    55.5200       740
    55.5400       742
    55.5600       700
    55.5800       638
    55.6000       634
    55.6200       644
    55.6400       582
    55.6600       550
    55.6800       594
    55.7000       566
    55.7200       544
    55.7400       494
    55.7600       488
    55.7800       494
    55.8000       460
    55.8200       428
    55.8400       414
    55.8600       430
    55.8800       394
    55.9000       370
    55.9200       394
    55.9400       374
    55.9600       382
    55.9800       360
    56.0000       348
    56.0200       378
    56.0400       318
    56.0600       330
    56.0800       346
    56.1000       300
    56.1200       306
    56.1400       328
    56.1600       370
    56.1800       314
    56.2000       302
    56.2200       322
    56.2400       354
    56.2600       342
    56.2800       314
    56.3000       326
    56.3200       326
    56.3400       338
    56.3600       366
    56.3800       396
    56.4000       362
    56.4200       354
    56.4400       358
    56.4600       368
    56.4800       344
    56.5000       382
    56.5200       374
    56.5400       432
    56.5600       412
    56.5800       394
    56.6000       398
    56.6200       438
    56.6400       442
    56.6600       446
    56.6800       408
    56.7000       472
    56.7200       492
    56.7400       508
    56.7600       472
    56.7800       464
    56.8000       436
    56.8200       460
    56.8400       440
    56.8600       448
    56.8800       458
    56.9000       450
    56.9200       446
    56.9400       486
    56.9600       478
    56.9800       448
    57.0000       466
    57.0200       420
    57.0400       460
    57.0600       482
    57.0800       526
    57.1000       572
    57.1200       524
    57.1400       622
    57.1600       644
    57.1800       672
    57.2000       696
    57.2200       818
    57.2400       862
    57.2600       934
    57.2800      1008
    57.3000      1080
    57.3200      1170
    57.3400      1306
    57.3600      1304
    57.3800      1322
    57.4000      1436
    57.4200      1360
    57.4400      1352
    57.4600      1410
    57.4800      1376
    57.5000      1408
    57.5200      1262
    57.5400      1278
    57.5600      1286
    57.5800      1330
    57.6000      1256
    57.6200      1298
    57.6400      1258
    57.6600      1296
    57.6800      1270
    57.7000      1244
    57.7200      1268
    57.7400      1328
    57.7600      1316
    57.7800      1324
    57.8000      1310
    57.8200      1224
    57.8400      1170
    57.8600      1142
    57.8800      1060
    57.9000      1062
    57.9200      1036
    57.9400       970
    57.9600       914
    57.9800       896
    58.0000       876
    58.0200       818
    58.0400       798
    58.0600       788
    58.0800       738
    58.1000       724
    58.1200       774
    58.1400       780
    58.1600       746
    58.1800       796
    58.2000       842
    58.2200       892
    58.2400       928
    58.2600       950
    58.2800       942
    58.3000      1032
    58.3200      1098
    58.3400      1134
    58.3600      1118
    58.3800      1242
    58.4000      1294
    58.4200      1466
    58.4400      1428
    58.4600      1570
    58.4800      1504
    58.5000      1640
    58.5200      1748
    58.5400      1752
    58.5600      1766
    58.5800      1944
    58.6000      1882
    58.6200      2020
    58.6400      2126
    58.6600      2190
    58.6800      2222
    58.7000      2268
    58.7200      2330
    58.7400      2310
    58.7600      2366
    58.7800      2278
    58.8000      2192
    58.8200      2156
    58.8400      2098
    58.8600      2022
    58.8800      1980
    58.9000      1840
    58.9200      1670
    58.9400      1730
    58.9600      1516
    58.9800      1468
    59.0000      1344
    59.0200      1228
    59.0400      1196
    59.0600      1128
    59.0800      1064
    59.1000       962
    59.1200       988
    59.1400       986
    59.1600       888
    59.1800       878
    59.2000       794
    59.2200       826
    59.2400       834
    59.2600       870
    59.2800       840
    59.3000       842
    59.3200       818
    59.3400       880
    59.3600       886
    59.3800       916
    59.4000       942
    59.4200       940
    59.4400      1010
    59.4600       970
    59.4800      1034
    59.5000       966
    59.5200      1012
    59.5400      1026
    59.5600       982
    59.5800       960
    59.6000       938
    59.6200       950
    59.6400       982
    59.6600      1006
    59.6800       964
    59.7000       980
    59.7200       930
    59.7400       962
    59.7600       900
    59.7800       920
    59.8000       868
    59.8200       882
    59.8400       838
    59.8600       868
    59.8800       866
    59.9000       828
    59.9200       778
    59.9400       776
    59.9600       734
    59.9800       670
    60.0000       692
    60.0200       640
    60.0400       610
    60.0600       584
    60.0800       594
    60.1000       564
    60.1200       500
    60.1400       512
    60.1600       524
    60.1800       476
    60.2000       426
    60.2200       460
    60.2400       450
    60.2600       420
    60.2800       440
    60.3000       436
    60.3200       434
    60.3400       392
    60.3600       408
    60.3800       400
    60.4000       404
    60.4200       378
    60.4400       398
    60.4600       388
    60.4800       418
    60.5000       362
    60.5200       388
    60.5400       412
    60.5600       426
    60.5800       414
    60.6000       404
    60.6200       394
    60.6400       416
    60.6600       410
    60.6800       426
    60.7000       390
    60.7200       426
    60.7400       406
    60.7600       394
    60.7800       410
    60.8000       460
    60.8200       452
    60.8400       508
    60.8600       456
    60.8800       468
    60.9000       494
    60.9200       508
    60.9400       498
    60.9600       600
    60.9800       556
    61.0000       588
    61.0200       600
    61.0400       646
    61.0600       656
    61.0800       676
    61.1000       666
    61.1200       696
    61.1400       718
    61.1600       754
    61.1800       736
    61.2000       694
    61.2200       730
    61.2400       828
    61.2600       772
    61.2800       782
    61.3000       818
    61.3200       802
    61.3400       834
    61.3600       840
    61.3800       862
    61.4000       934
    61.4200       936
    61.4400       830
    61.4600       926
    61.4800       836
    61.5000       862
    61.5200       932
    61.5400       898
    61.5600       914
    61.5800       822
    61.6000       826
    61.6200       814
    61.6400       786
    61.6600       714
    61.6800       728
    61.7000       634
    61.7200       644
    61.7400       622
    61.7600       576
    61.7800       606
    61.8000       526
    61.8200       558
    61.8400       548
    61.8600       552
    61.8800       514
    61.9000       504
    61.9200       492
    61.9400       550
    61.9600       508
    61.9800       482
    62.0000       456
    62.0200       520
    62.0400       470
    62.0600       546
    62.0800       528
    62.1000       492
    62.1200       488
    62.1400       476
    62.1600       472
    62.1800       450
    62.2000       472
    62.2200       456
    62.2400       490
    62.2600       448
    62.2800       434
    62.3000       476
    62.3200       410
    62.3400       442
    62.3600       404
    62.3800       450
    62.4000       408
    62.4200       408
    62.4400       442
    62.4600       388
    62.4800       414
    62.5000       436
    62.5200       374
    62.5400       412
    62.5600       368
    62.5800       376
    62.6000       382
    62.6200       356
    62.6400       368
    62.6600       394
    62.6800       372
    62.7000       368
    62.7200       370
    62.7400       384
    62.7600       346
    62.7800       388
    62.8000       372
    62.8200       402
    62.8400       366
    62.8600       298
    62.8800       312
    62.9000       372
    62.9200       358
    62.9400       332
    62.9600       298
    62.9800       308
    63.0000       304
    63.0200       292
    63.0400       302
    63.0600       300
    63.0800       280
    63.1000       272
    63.1200       246
    63.1400       280
    63.1600       238
    63.1800       256
    63.2000       270
    63.2200       258
    63.2400       282
    63.2600       248
    63.2800       268
    63.3000       250
    63.3200       264
    63.3400       250
    63.3600       286
    63.3800       268
    63.4000       296
    63.4200       280
    63.4400       302
    63.4600       286
    63.4800       254
    63.5000       292
    63.5200       296
    63.5400       308
    63.5600       344
    63.5800       320
    63.6000       356
    63.6200       360
    63.6400       368
    63.6600       410
    63.6800       406
    63.7000       392
    63.7200       410
    63.7400       458
    63.7600       486
    63.7800       480
    63.8000       564
    63.8200       516
    63.8400       568
    63.8600       564
    63.8800       600
    63.9000       572
    63.9200       586
    63.9400       508
    63.9600       520
    63.9800       562
    64.0000       502
    64.0200       492
    64.0400       470
    64.0600       406
    64.0800       456
    64.1000       410
    64.1200       446
    64.1400       392
    64.1600       404
    64.1800       400
    64.2000       356
    64.2200       354
    64.2400       342
    64.2600       346
    64.2800       362
    64.3000       316
    64.3200       316
    64.3400       326
    64.3600       334
    64.3800       302
    64.4000       314
    64.4200       268
    64.4400       290
    64.4600       302
    64.4800       330
    64.5000       282
    64.5200       288
    64.5400       308
    64.5600       312
    64.5800       314
    64.6000       320
    64.6200       280
    64.6400       336
    64.6600       320
    64.6800       332
    64.7000       346
    64.7200       344
    64.7400       360
    64.7600       360
    64.7800       366
    64.8000       354
    64.8200       420
    64.8400       418
    64.8600       442
    64.8800       428
    64.9000       450
    64.9200       446
    64.9400       452
    64.9600       482
    64.9800       508
    65.0000       498
    65.0200       506
    65.0400       524
    65.0600       578
    65.0800       534
    65.1000       592
    65.1200       570
    65.1400       570
    65.1600       590
    65.1800       584
    65.2000       582
    65.2200       602
    65.2400       574
    65.2600       564
    65.2800       564
    65.3000       538
    65.3200       534
    65.3400       526
    65.3600       516
    65.3800       548
    65.4000       514
    65.4200       482
    65.4400       464
    65.4600       476
    65.4800       444
    65.5000       472
    65.5200       384
    65.5400       428
    65.5600       426
    65.5800       460
    65.6000       414
    65.6200       410
    65.6400       370
    65.6600       382
    65.6800       374
    65.7000       386
    65.7200       378
    65.7400       340
    65.7600       334
    65.7800       346
    65.8000       318
    65.8200       314
    65.8400       300
    65.8600       318
    65.8800       302
    65.9000       288
    65.9200       300
    65.9400       270
    65.9600       276
    65.9800       308
    66.0000       250
    66.0200       286
    66.0400       306
    66.0600       270
    66.0800       274
    66.1000       278
    66.1200       300
    66.1400       272
    66.1600       274
    66.1800       256
    66.2000       278
    66.2200       286
    66.2400       268
    66.2600       286
    66.2800       282
    66.3000       320
    66.3200       278
    66.3400       312
    66.3600       338
    66.3800       330
    66.4000       368
    66.4200       380
    66.4400       378
    66.4600       358
    66.4800       370
    66.5000       392
    66.5200       386
    66.5400       416
    66.5600       420
    66.5800       444
    66.6000       396
    66.6200       444
    66.6400       446
    66.6600       454
    66.6800       484
    66.7000       530
    66.7200       568
    66.7400       590
    66.7600       584
    66.7800       618
    66.8000       600
    66.8200       644
    66.8400       676
    66.8600       646
    66.8800       670
    66.9000       684
    66.9200       720
    66.9400       708
    66.9600       718
    66.9800       664
    67.0000       668
    67.0200       660
    67.0400       684
    67.0600       604
    67.0800       604
    67.1000       576
    67.1200       566
    67.1400       562
    67.1600       550
    67.1800       498
    67.2000       510
    67.2200       450
    67.2400       430
    67.2600       422
    67.2800       400
    67.3000       370
    67.3200       408
    67.3400       398
    67.3600       364
    67.3800       342
    67.4000       344
    67.4200       360
    67.4400       322
    67.4600       332
    67.4800       318
    67.5000       288
    67.5200       330
    67.5400       290
    67.5600       318
    67.5800       306
    67.6000       300
    67.6200       322
    67.6400       346
    67.6600       370
    67.6800       340
    67.7000       334
    67.7200       344
    67.7400       350
    67.7600       332
    67.7800       354
    67.8000       376
    67.8200       362
    67.8400       436
    67.8600       396
    67.8800       426
    67.9000       444
    67.9200       488
    67.9400       512
    67.9600       538
    67.9800       558
    68.0000       610
    68.0200       686
    68.0400       722
    68.0600       814
    68.0800       804
    68.1000       874
    68.1200       928
    68.1400       928
    68.1600      1012
    68.1800       994
    68.2000      1006
    68.2200      1002
    68.2400       996
    68.2600      1036
    68.2800       976
    68.3000       984
    68.3200       954
    68.3400       936
    68.3600       870
    68.3800       860
    68.4000       804
    68.4200       770
    68.4400       730
    68.4600       764
    68.4800       712
    68.5000       646
    68.5200       644
    68.5400       612
    68.5600       600
    68.5800       548
    68.6000       530
    68.6200       480
    68.6400       518
    68.6600       444
    68.6800       394
    68.7000       446
    68.7200       410
    68.7400       396
    68.7600       350
    68.7800       370
    68.8000       356
    68.8200       338
    68.8400       340
    68.8600       356
    68.8800       344
    68.9000       342
    68.9200       332
    68.9400       320
    68.9600       344
    68.9800       320
    69.0000       308
    69.0200       370
    69.0400       336
    69.0600       346
    69.0800       316
    69.1000       318
    69.1200       316
    69.1400       334
    69.1600       346
    69.1800       330
    69.2000       364
    69.2200       320
    69.2400       362
    69.2600       380
    69.2800       368
    69.3000       404
    69.3200       420
    69.3400       430
    69.3600       444
    69.3800       434
    69.4000       424
    69.4200       434
    69.4400       440
    69.4600       416
    69.4800       456
    69.5000       478
    69.5200       466
    69.5400       454
    69.5600       424
    69.5800       426
    69.6000       400
    69.6200       420
    69.6400       404
    69.6600       416
    69.6800       430
    69.7000       384
    69.7200       342
    69.7400       424
    69.7600       386
    69.7800       380
    69.8000       352
    69.8200       354
    69.8400       324
    69.8600       332
    69.8800       340
    69.9000       330
    69.9200       338
    69.9400       322
    69.9600       314
    69.9800       290
    70.0000       272
    70.0200       288
    70.0400       268
    70.0600       272
    70.0800       310
    70.1000       250
    70.1200       284
    70.1400       278
    70.1600       222
    70.1800       254
    70.2000       250
    70.2200       240
    70.2400       268
    70.2600       232
    70.2800       214
    70.3000       242
    70.3200       218
    70.3400       236
    70.3600       236
    70.3800       224
    70.4000       226
    70.4200       214
    70.4400       210
    70.4600       210
    70.4800       212
    70.5000       194
    70.5200       230
    70.5400       212
    70.5600       240
    70.5800       218
    70.6000       206
    70.6200       222
    70.6400       256
    70.6600       238
    70.6800       234
    70.7000       246
    70.7200       198
    70.7400       218
    70.7600       246
    70.7800       220
    70.8000       234
    70.8200       208
    70.8400       226
    70.8600       194
    70.8800       230
    70.9000       242
    70.9200       224
    70.9400       216
    70.9600       238
    70.9800       198
    71.0000       200
    71.0200       214
    71.0400       254
    71.0600       208
    71.0800       242
    71.1000       238
    71.1200       232
    71.1400       284
    71.1600       232
    71.1800       260
    71.2000       250
    71.2200       272
    71.2400       294
    71.2600       268
    71.2800       270
    71.3000       348
    71.3200       334
    71.3400       348
    71.3600       326
    71.3800       404
    71.4000       376
    71.4200       412
    71.4400       420
    71.4600       402
    71.4800       450
    71.5000       470
    71.5200       470
    71.5400       470
    71.5600       508
    71.5800       488
    71.6000       542
    71.6200       496
    71.6400       464
    71.6600       498
    71.6800       482
    71.7000       476
    71.7200       552
    71.7400       486
    71.7600       452
    71.7800       484
    71.8000       442
    71.8200       436
    71.8400       458
    71.8600       430
    71.8800       382
    71.9000       440
    71.9200       374
    71.9400       446
    71.9600       376
    71.9800       458
    72.0000       414
    72.0200       400
    72.0400       402
    72.0600       406
    72.0800       406
    72.1000       392
    72.1200       396
    72.1400       372
    72.1600       436
    72.1800       362
    72.2000       404
    72.2200       398
    72.2400       428
    72.2600       414
    72.2800       388
    72.3000       466
    72.3200       480
    72.3400       444
    72.3600       460
    72.3800       430
    72.4000       494
    72.4200       428
    72.4400       474
    72.4600       438
    72.4800       474
    72.5000       490
    72.5200       438
    72.5400       452
    72.5600       454
    72.5800       444
    72.6000       464
    72.6200       442
    72.6400       456
    72.6600       422
    72.6800       466
    72.7000       444
    72.7200       446
    72.7400       442
    72.7600       462
    72.7800       450
    72.8000       438
    72.8200       452
    72.8400       418
    72.8600       408
    72.8800       418
    72.9000       452
    72.9200       396
    72.9400       416
    72.9600       408
    72.9800       398
    73.0000       372
    73.0200       368
    73.0400       366
    73.0600       378
    73.0800       276
    73.1000       348
    73.1200       294
    73.1400       292
    73.1600       300
    73.1800       284
    73.2000       302
    73.2200       314
    73.2400       290
    73.2600       262
    73.2800       258
    73.3000       262
    73.3200       298
    73.3400       230
    73.3600       256
    73.3800       272
    73.4000       240
    73.4200       222
    73.4400       266
    73.4600       256
    73.4800       260
    73.5000       230
    73.5200       260
    73.5400       264
    73.5600       250
    73.5800       282
    73.6000       266
    73.6200       286
    73.6400       288
    73.6600       284
    73.6800       282
    73.7000       294
    73.7200       268
    73.7400       288
    73.7600       292
    73.7800       302
    73.8000       326
    73.8200       312
    73.8400       322
    73.8600       308
    73.8800       322
    73.9000       368
    73.9200       348
    73.9400       294
    73.9600       350
    73.9800       364
    74.0000       350
    74.0200       356
    74.0400       342
    74.0600       316
    74.0800       360
    74.1000       354
    74.1200       348
    74.1400       332
    74.1600       328
    74.1800       332
    74.2000       318
    74.2200       300
    74.2400       328
    74.2600       312
    74.2800       298
    74.3000       292
    74.3200       284
    74.3400       278
    74.3600       280
    74.3800       276
    74.4000       258
    74.4200       240
    74.4400       226
    74.4600       250
    74.4800       246
    74.5000       220
    74.5200       220
    74.5400       230
    74.5600       202
    74.5800       212
    74.6000       214
    74.6200       204
    74.6400       212
    74.6600       196
    74.6800       212
    74.7000       196
    74.7200       204
    74.7400       184
    74.7600       200
    74.7800       192
    74.8000       194
    74.8200       180
    74.8400       220
    74.8600       188
    74.8800       184
    74.9000       224
    74.9200       204
    74.9400       202
    74.9600       210
    74.9800       224
    75.0000       212
    75.0200       218
    75.0400       226
    75.0600       206
    75.0800       232
    75.1000       228
    75.1200       228
    75.1400       216
    75.1600       218
    75.1800       232
    75.2000       222
    75.2200       232
    75.2400       242
    75.2600       236
    75.2800       216
    75.3000       246
    75.3200       214
    75.3400       232
    75.3600       250
    75.3800       242
    75.4000       220
    75.4200       226
    75.4400       262
    75.4600       232
    75.4800       232
    75.5000       218
    75.5200       248
    75.5400       200
    75.5600       216
    75.5800       246
    75.6000       220
    75.6200       212
    75.6400       250
    75.6600       248
    75.6800       260
    75.7000       214
    75.7200       250
    75.7400       226
    75.7600       270
    75.7800       234
    75.8000       240
    75.8200       266
    75.8400       260
    75.8600       258
    75.8800       256
    75.9000       250
    75.9200       250
    75.9400       224
    75.9600       238
    75.9800       228
    76.0000       228
    76.0200       248
    76.0400       246
    76.0600       238
    76.0800       274
    76.1000       248
    76.1200       214
    76.1400       264
    76.1600       260
    76.1800       252
    76.2000       286
    76.2200       252
    76.2400       290
    76.2600       272
    76.2800       296
    76.3000       264
    76.3200       304
    76.3400       312
    76.3600       308
    76.3800       328
    76.4000       334
    76.4200       336
    76.4400       336
    76.4600       326
    76.4800       338
    76.5000       364
    76.5200       356
    76.5400       334
    76.5600       332
    76.5800       332
    76.6000       372
    76.6200       402
    76.6400       372
    76.6600       418
    76.6800       424
    76.7000       372
    76.7200       378
    76.7400       370
    76.7600       352
    76.7800       380
    76.8000       404
    76.8200       368
    76.8400       326
    76.8600       362
    76.8800       366
    76.9000       326
    76.9200       366
    76.9400       378
    76.9600       338
    76.9800       356
    77.0000       338
    77.0200       322
    77.0400       300
    77.0600       320
    77.0800       304
    77.1000       316
    77.1200       332
    77.1400       324
    77.1600       302
    77.1800       288
    77.2000       352
    77.2200       322
    77.2400       336
    77.2600       366
    77.2800       356
    77.3000       374
    77.3200       394
    77.3400       364
    77.3600       428
    77.3800       410
    77.4000       434
    77.4200       390
    77.4400       452
    77.4600       446
    77.4800       510
    77.5000       498
    77.5200       562
    77.5400       590
    77.5600       524
    77.5800       610
    77.6000       608
    77.6200       664
    77.6400       636
    77.6600       628
    77.6800       670
    77.7000       698
    77.7200       630
    77.7400       648
    77.7600       688
    77.7800       672
    77.8000       662
    77.8200       586
    77.8400       572
    77.8600       642
    77.8800       572
    77.9000       574
    77.9200       630
    77.9400       550
    77.9600       570
    77.9800       510
    78.0000       508
    78.0200       508
    78.0400       476
    78.0600       464
    78.0800       472
    78.1000       452
    78.1200       468
    78.1400       414
    78.1600       438
    78.1800       402
    78.2000       406
    78.2200       416
    78.2400       376
    78.2600       394
    78.2800       358
    78.3000       394
    78.3200       354
    78.3400       352
    78.3600       384
    78.3800       364
    78.4000       366
    78.4200       308
    78.4400       358
    78.4600       402
    78.4800       378
    78.5000       384
    78.5200       376
    78.5400       376
    78.5600       350
    78.5800       390
    78.6000       400
    78.6200       382
    78.6400       378
    78.6600       358
    78.6800       358
    78.7000       416
    78.7200       378
    78.7400       388
    78.7600       416
    78.7800       352
    78.8000       408
    78.8200       364
    78.8400       374
    78.8600       332
    78.8800       352
    78.9000       326
    78.9200       326
    78.9400       286
    78.9600       286
    78.9800       314
    79.0000       312
    79.0200       264
    79.0400       284
    79.0600       306
    79.0800       304
    79.1000       276
    79.1200       298
    79.1400       256
    79.1600       262
    79.1800       230
    79.2000       276
    79.2200       268
    79.2400       280
    79.2600       274
    79.2800       252
    79.3000       260
    79.3200       260
    79.3400       264
    79.3600       236
    79.3800       264
    79.4000       258
    79.4200       294
    79.4400       264
    79.4600       226
    79.4800       230
    79.5000       228
    79.5200       214
    79.5400       244
    79.5600       238
    79.5800       250
    79.6000       264
    79.6200       252
    79.6400       238
    79.6600       244
    79.6800       266
    79.7000       228
    79.7200       246
    79.7400       238
    79.7600       260
    79.7800       242
    79.8000       242
    79.8200       218
    79.8400       246
    79.8600       274
    79.8800       220
    79.9000       214
    79.9200       232
    79.9400       258
    79.9600       228
    79.9800       226
    80.0000       262
    80.0200       240
    80.0400       238
    80.0600       242
    80.0800       226
    80.1000       238
    80.1200       214
    80.1400       226
    80.1600       222
    80.1800       232
    80.2000       216
    80.2200       240
    80.2400       248
    80.2600       250
    80.2800       234
    80.3000       226
    80.3200       254
    80.3400       264
    80.3600       250
    80.3800       270
    80.4000       270
    80.4200       230
    80.4400       258
    80.4600       272
    80.4800       274
    80.5000       282
    80.5200       254
    80.5400       280
    80.5600       256
    80.5800       294
    80.6000       280
    80.6200       278
    80.6400       292
    80.6600       244
    80.6800       248
    80.7000       224
    80.7200       230
    80.7400       246
    80.7600       236
    80.7800       240
    80.8000       258
    80.8200       244
    80.8400       234
    80.8600       236
    80.8800       234
    80.9000       238
    80.9200       228
    80.9400       224
    80.9600       240
    80.9800       230
    81.0000       230
    81.0200       226
    81.0400       200
    81.0600       210
    81.0800       226
    81.1000       232
    81.1200       212
    81.1400       218
    81.1600       258
    81.1800       240
    81.2000       246
    81.2200       238
    81.2400       250
    81.2600       240
    81.2800       218
    81.3000       218
    81.3200       264
    81.3400       258
    81.3600       236
    81.3800       226
    81.4000       250
    81.4200       250
    81.4400       226
    81.4600       282
    81.4800       246
    81.5000       242
    81.5200       266
    81.5400       240
    81.5600       286
    81.5800       264
    81.6000       238
    81.6200       284
    81.6400       270
    81.6600       302
    81.6800       268
    81.7000       276
    81.7200       286
    81.7400       304
    81.7600       250
    81.7800       280
    81.8000       308
    81.8200       284
    81.8400       296
    81.8600       298
    81.8800       322
    81.9000       320
    81.9200       308
    81.9400       334
    81.9600       300
    81.9800       366
    82.0000       336
    82.0200       332
    82.0400       288
    82.0600       328
    82.0800       342
    82.1000       316
    82.1200       384
    82.1400       340
    82.1600       356
    82.1800       354
    82.2000       360
    82.2200       344
    82.2400       408
    82.2600       352
    82.2800       356
    82.3000       382
    82.3200       378
    82.3400       370
    82.3600       392
    82.3800       370
    82.4000       414
    82.4200       334
    82.4400       390
    82.4600       400
    82.4800       374
    82.5000       412
    82.5200       386
    82.5400       432
    82.5600       432
    82.5800       406
    82.6000       448
    82.6200       450
    82.6400       398
    82.6600       438
    82.6800       476
    82.7000       474
    82.7200       498
    82.7400       520
    82.7600       502
    82.7800       502
    82.8000       522
    82.8200       554
    82.8400       556
    82.8600       558
    82.8800       484
    82.9000       482
    82.9200       538
    82.9400       498
    82.9600       518
    82.9800       478
    83.0000       496
    83.0200       492
    83.0400       464
    83.0600       458
    83.0800       472
    83.1000       480
    83.1200       420
    83.1400       474
    83.1600       430
    83.1800       442
    83.2000       454
    83.2200       412
    83.2400       408
    83.2600       406
    83.2800       368
    83.3000       408
    83.3200       368
    83.3400       400
    83.3600       370
    83.3800       382
    83.4000       360
    83.4200       370
    83.4400       338
    83.4600       360
    83.4800       338
    83.5000       354
    83.5200       320
    83.5400       336
    83.5600       340
    83.5800       318
    83.6000       322
    83.6200       298
    83.6400       278
    83.6600       296
    83.6800       296
    83.7000       308
    83.7200       276
    83.7400       288
    83.7600       280
    83.7800       272
    83.8000       274
    83.8200       274
    83.8400       276
    83.8600       262
    83.8800       302
    83.9000       270
    83.9200       264
    83.9400       276
    83.9600       270
    83.9800       294
    84.0000       278
    84.0200       280
    84.0400       296
    84.0600       312
    84.0800       306
    84.1000       330
    84.1200       280
    84.1400       326
    84.1600       280
    84.1800       290
    84.2000       324
    84.2200       286
    84.2400       272
    84.2600       292
    84.2800       284
    84.3000       302
    84.3200       326
    84.3400       322
    84.3600       296
    84.3800       308
    84.4000       312
    84.4200       294
    84.4400       310
    84.4600       308
    84.4800       292
    84.5000       302
    84.5200       304
    84.5400       272
    84.5600       320
    84.5800       298
    84.6000       316
    84.6200       280
    84.6400       280
    84.6600       288
    84.6800       248
    84.7000       274
    84.7200       248
    84.7400       282
    84.7600       266
    84.7800       238
    84.8000       248
    84.8200       236
    84.8400       244
    84.8600       258
    84.8800       264
    84.9000       268
    84.9200       254
    84.9400       238
    84.9600       258
    84.9800       264
    85.0000       250
    85.0200       242
    85.0400       220
    85.0600       268
    85.0800       264
    85.1000       244
    85.1200       262
    85.1400       240
    85.1600       242
    85.1800       226
    85.2000       236
    85.2200       254
    85.2400       238
    85.2600       240
    85.2800       190
    85.3000       234
    85.3200       234
    85.3400       248
    85.3600       246
    85.3800       222
    85.4000       244
    85.4200       252
    85.4400       240
    85.4600       286
    85.4800       280
    85.5000       260
    85.5200       282
    85.5400       282
    85.5600       288
    85.5800       256
    85.6000       274
    85.6200       266
    85.6400       266
    85.6600       248
    85.6800       286
    85.7000       270
    85.7200       258
    85.7400       276
    85.7600       306
    85.7800       284
    85.8000       314
    85.8200       256
    85.8400       266
    85.8600       302
    85.8800       266
    85.9000       244
    85.9200       254
    85.9400       256
    85.9600       266
    85.9800       248
    86.0000       254
    86.0200       228
    86.0400       250
    86.0600       256
    86.0800       244
    86.1000       250
    86.1200       236
    86.1400       212
    86.1600       254
    86.1800       234
    86.2000       248
    86.2200       228
    86.2400       224
    86.2600       220
    86.2800       246
    86.3000       222
    86.3200       228
    86.3400       220
    86.3600       256
    86.3800       226
    86.4000       196
    86.4200       206
    86.4400       248
    86.4600       228
    86.4800       258
    86.5000       250
    86.5200       226
    86.5400       222
    86.5600       236
    86.5800       238
    86.6000       248
    86.6200       264
    86.6400       266
    86.6600       260
    86.6800       280
    86.7000       252
    86.7200       252
    86.7400       274
    86.7600       290
    86.7800       270
    86.8000       310
    86.8200       314
    86.8400       292
    86.8600       300
    86.8800       318
    86.9000       302
    86.9200       302
    86.9400       310
    86.9600       334
    86.9800       318
    87.0000       318
    87.0200       328
    87.0400       288
    87.0600       340
    87.0800       306
    87.1000       342
    87.1200       296
    87.1400       326
    87.1600       312
    87.1800       334
    87.2000       320
    87.2200       328
    87.2400       288
    87.2600       326
    87.2800       324
    87.3000       302
    87.3200       294
    87.3400       294
    87.3600       308
    87.3800       310
    87.4000       296
    87.4200       288
    87.4400       306
    87.4600       358
    87.4800       294
    87.5000       292
    87.5200       306
    87.5400       276
    87.5600       298
    87.5800       316
    87.6000       292
    87.6200       316
    87.6400       322
    87.6600       314
    87.6800       328
    87.7000       306
    87.7200       272
    87.7400       344
    87.7600       316
    87.7800       308
    87.8000       320
    87.8200       312
    87.8400       322
    87.8600       350
    87.8800       318
    87.9000       334
    87.9200       308
    87.9400       340
    87.9600       340
    87.9800       352
    88.0000       318
    88.0200       320
    88.0400       336
    88.0600       330
    88.0800       360
    88.1000       380
    88.1200       364
    88.1400       382
    88.1600       382
    88.1800       384
    88.2000       384
    88.2200       372
    88.2400       378
    88.2600       376
    88.2800       332
    88.3000       362
    88.3200       354
    88.3400       356
    88.3600       370
    88.3800       396
    88.4000       362
    88.4200       332
    88.4400       370
    88.4600       356
    88.4800       384
    88.5000       346
    88.5200       354
    88.5400       380
    88.5600       336
    88.5800       338
    88.6000       346
    88.6200       332
    88.6400       388
    88.6600       344
    88.6800       368
    88.7000       352
    88.7200       334
    88.7400       336
    88.7600       344
    88.7800       320
    88.8000       324
    88.8200       318
    88.8400       298
    88.8600       290
    88.8800       272
    88.9000       250
    88.9200       312
    88.9400       262
    88.9600       262
    88.9800       260
    89.0000       284
    89.0200       276
    89.0400       278
    89.0600       218
    89.0800       262
    89.1000       266
    89.1200       248
    89.1400       248
    89.1600       268
    89.1800       264
    89.2000       224
    89.2200       244
    89.2400       260
    89.2600       230
    89.2800       230
    89.3000       240
    89.3200       228
    89.3400       206
    89.3600       260
    89.3800       256
    89.4000       232
    89.4200       252
    89.4400       242
    89.4600       254
    89.4800       238
    89.5000       244
    89.5200       268
    89.5400       270
    89.5600       254
    89.5800       236
    89.6000       262
    89.6200       266
    89.6400       248
    89.6600       260
    89.6800       272
    89.7000       246
    89.7200       268
    89.7400       258
    89.7600       268
    89.7800       266
    89.8000       246
    89.8200       268
    89.8400       280
    89.8600       290
    89.8800       272
    89.9000       270
    89.9200       290
    89.9400       276
    89.9600       276
    89.9800       306
    90.0000       248
