    10.0000       366
    10.0200       358
    10.0400       370
    10.0600       370
    10.0800       362
    10.1000       394
    10.1200       368
    10.1400       376
    10.1600       368
    10.1800       366
    10.2000       364
    10.2200       396
    10.2400       380
    10.2600       348
    10.2800       314
    10.3000       340
    10.3200       344
    10.3400       364
    10.3600       374
    10.3800       348
    10.4000       360
    10.4200       406
    10.4400       356
    10.4600       334
    10.4800       362
    10.5000       388
    10.5200       354
    10.5400       332
    10.5600       340
    10.5800       318
    10.6000       342
    10.6200       364
    10.6400       330
    10.6600       370
    10.6800       330
    10.7000       360
    10.7200       336
    10.7400       344
    10.7600       328
    10.7800       336
    10.8000       340
    10.8200       314
    10.8400       342
    10.8600       350
    10.8800       324
    10.9000       306
    10.9200       344
    10.9400       334
    10.9600       328
    10.9800       344
    11.0000       348
    11.0200       310
    11.0400       350
    11.0600       356
    11.0800       354
    11.1000       338
    11.1200       328
    11.1400       332
    11.1600       290
    11.1800       346
    11.2000       318
    11.2200       330
    11.2400       340
    11.2600       322
    11.2800       318
    11.3000       324
    11.3200       342
    11.3400       334
    11.3600       306
    11.3800       322
    11.4000       348
    11.4200       372
    11.4400       348
    11.4600       334
    11.4800       356
    11.5000       340
    11.5200       316
    11.5400       304
    11.5600       322
    11.5800       318
    11.6000       340
    11.6200       322
    11.6400       324
    11.6600       354
    11.6800       320
    11.7000       318
    11.7200       356
    11.7400       368
    11.7600       358
    11.7800       348
    11.8000       386
    11.8200       362
    11.8400       358
    11.8600       398
    11.8800       382
    11.9000       410
    11.9200       376
    11.9400       438
    11.9600       438
    11.9800       474
    12.0000       476
    12.0200       502
    12.0400       576
    12.0600       586
    12.0800       634
    12.1000       680
    12.1200       756
    12.1400       810
    12.1600       896
    12.1800       924
    12.2000       976
    12.2200       912
    12.2400       840
    12.2600       666
    12.2800       592
    12.3000       474
    12.3200       394
    12.3400       378
    12.3600       378
    12.3800       366
    12.4000       330
    12.4200       316
    12.4400       376
    12.4600       346
    12.4800       314
    12.5000       318
    12.5200       316
    12.5400       326
    12.5600       302
    12.5800       284
    12.6000       312
    12.6200       302
    12.6400       284
    12.6600       296
    12.6800       294
    12.7000       330
    12.7200       318
    12.7400       326
    12.7600       296
    12.7800       302
    12.8000       274
    12.8200       292
    12.8400       290
    12.8600       298
    12.8800       300
    12.9000       290
    12.9200       268
    12.9400       306
    12.9600       280
    12.9800       282
    13.0000       270
    13.0200       286
    13.0400       294
    13.0600       268
    13.0800       292
    13.1000       288
    13.1200       290
    13.1400       288
    13.1600       268
    13.1800       308
    13.2000       266
    13.2200       292
    13.2400       294
    13.2600       280
    13.2800       290
    13.3000       256
    13.3200       288
    13.3400       276
    13.3600       278
    13.3800       310
    13.4000       310
    13.4200       280
    13.4400       280
    13.4600       262
    13.4800       260
    13.5000       280
    13.5200       246
    13.5400       286
    13.5600       282
    13.5800       246
    13.6000       272
    13.6200       260
    13.6400       256
    13.6600       246
    13.6800       260
    13.7000       268
    13.7200       260
    13.7400       280
    13.7600       254
    13.7800       244
    13.8000       238
    13.8200       256
    13.8400       278
    13.8600       274
    13.8800       276
    13.9000       282
    13.9200       252
    13.9400       266
    13.9600       278
    13.9800       260
    14.0000       290
    14.0200       256
    14.0400       282
    14.0600       276
    14.0800       276
    14.1000       214
    14.1200       294
    14.1400       270
    14.1600       286
    14.1800       256
    14.2000       244
    14.2200       278
    14.2400       274
    14.2600       252
    14.2800       264
    14.3000       268
    14.3200       250
    14.3400       260
    14.3600       226
    14.3800       250
    14.4000       260
    14.4200       236
    14.4400       246
    14.4600       282
    14.4800       270
    14.5000       252
    14.5200       266
    14.5400       256
    14.5600       296
    14.5800       278
    14.6000       270
    14.6200       290
    14.6400       292
    14.6600       298
    14.6800       284
    14.7000       282
    14.7200       334
    14.7400       342
    14.7600       334
    14.7800       372
    14.8000       350
    14.8200       402
    14.8400       478
    14.8600       434
    14.8800       480
    14.9000       522
    14.9200       544
    14.9400       598
    14.9600       624
    14.9800       730
    15.0000       840
    15.0200       890
    15.0400      1008
    15.0600      1078
    15.0800      1286
    15.1000      1408
    15.1200      1578
    15.1400      1844
    15.1600      2100
    15.1800      2184
    15.2000      2142
    15.2200      2034
    15.2400      1636
    15.2600      1292
    15.2800       890
    15.3000       668
    15.3200       474
    15.3400       416
    15.3600       348
    15.3800       368
    15.4000       342
    15.4200       316
    15.4400       316
    15.4600       306
    15.4800       294
    15.5000       286
    15.5200       284
    15.5400       272
    15.5600       278
    15.5800       246
    15.6000       302
    15.6200       272
    15.6400       264
    15.6600       254
    15.6800       246
    15.7000       260
    15.7200       232
    15.7400       212
    15.7600       232
    15.7800       224
    15.8000       256
    15.8200       232
    15.8400       280
    15.8600       266
    15.8800       286
    15.9000       274
    15.9200       254
    15.9400       246
    15.9600       266
    15.9800       268
    16.0000       258
    16.0200       306
    16.0400       276
    16.0600       280
    16.0800       286
    16.1000       326
    16.1200       308
    16.1400       340
    16.1600       362
    16.1800       378
    16.2000       348
    16.2200       368
    16.2400       410
    16.2600       400
    16.2800       390
    16.3000       408
    16.3200       408
    16.3400       388
    16.3600       340
    16.3800       352
    16.4000       336
    16.4200       306
    16.4400       356
    16.4600       304
    16.4800       320
    16.5000       306
    16.5200       318
    16.5400       316
    16.5600       310
    16.5800       326
    16.6000       336
    16.6200       386
    16.6400       404
    16.6600       424
    16.6800       484
    16.7000       442
    16.7200       474
    16.7400       538
    16.7600       594
    16.7800       626
    16.8000       638
    16.8200       752
    16.8400       850
    16.8600       940
    16.8800      1050
    16.9000      1146
    16.9200      1470
    16.9400      1610
    16.9600      1892
    16.9800      2314
    17.0000      2724
    17.0200      3064
    17.0400      3452
    17.0600      3606
    17.0800      3444
    17.1000      3062
    17.1200      2512
    17.1400      2020
    17.1600      1564
    17.1800      1196
    17.2000      1136
    17.2200      1078
    17.2400      1046
    17.2600       968
    17.2800       914
    17.3000       850
    17.3200       802
    17.3400       756
    17.3600       648
    17.3800       564
    17.4000       504
    17.4200       496
    17.4400       478
    17.4600       464
    17.4800       448
    17.5000       446
    17.5200       432
    17.5400       442
    17.5600       424
    17.5800       446
    17.6000       474
    17.6200       526
    17.6400       594
    17.6600       588
    17.6800       658
    17.7000       780
    17.7200       814
    17.7400       954
    17.7600      1006
    17.7800      1078
    17.8000      1262
    17.8200      1086
    17.8400      1060
    17.8600       888
    17.8800       696
    17.9000       532
    17.9200       448
    17.9400       382
    17.9600       348
    17.9800       276
    18.0000       306
    18.0200       268
    18.0400       244
    18.0600       270
    18.0800       212
    18.1000       266
    18.1200       220
    18.1400       222
    18.1600       234
    18.1800       218
    18.2000       198
    18.2200       228
    18.2400       250
    18.2600       234
    18.2800       234
    18.3000       216
    18.3200       220
    18.3400       216
    18.3600       210
    18.3800       198
    18.4000       214
    18.4200       238
    18.4400       210
    18.4600       220
    18.4800       224
    18.5000       220
    18.5200       228
    18.5400       206
    18.5600       204
    18.5800       218
    18.6000       214
    18.6200       240
    18.6400       198
    18.6600       244
    18.6800       222
    18.7000       220
    18.7200       244
    18.7400       224
    18.7600       232
    18.7800       230
    18.8000       264
    18.8200       240
    18.8400       242
    18.8600       250
    18.8800       248
    18.9000       278
    18.9200       264
    18.9400       260
    18.9600       246
    18.9800       268
    19.0000       264
    19.0200       258
    19.0400       292
    19.0600       258
    19.0800       280
    19.1000       286
    19.1200       266
    19.1400       274
    19.1600       288
    19.1800       300
    19.2000       320
    19.2200       318
    19.2400       338
    19.2600       350
    19.2800       354
    19.3000       412
    19.3200       440
    19.3400       512
    19.3600       524
    19.3800       534
    19.4000       634
    19.4200       694
    19.4400       812
    19.4600       940
    19.4800      1058
    19.5000      1260
    19.5200      1322
    19.5400      1304
    19.5600      1340
    19.5800      1206
    19.6000      1006
    19.6200       788
    19.6400       722
    19.6600       560
    19.6800       520
    19.7000       472
    19.7200       420
    19.7400       486
    19.7600       444
    19.7800       502
    19.8000       492
    19.8200       572
    19.8400       598
    19.8600       676
    19.8800       814
    19.9000       842
    19.9200       972
    19.9400      1000
    19.9600      1154
    19.9800      1116
    20.0000      1096
    20.0200       968
    20.0400       944
    20.0600       746
    20.0800       636
    20.1000       468
    20.1200       488
    20.1400       422
    20.1600       420
    20.1800       402
    20.2000       380
    20.2200       370
    20.2400       408
    20.2600       374
    20.2800       356
    20.3000       410
    20.3200       390
    20.3400       314
    20.3600       324
    20.3800       282
    20.4000       294
    20.4200       264
    20.4400       276
    20.4600       258
    20.4800       284
    20.5000       258
    20.5200       252
    20.5400       242
    20.5600       232
    20.5800       270
    20.6000       244
    20.6200       226
    20.6400       242
    20.6600       252
    20.6800       250
    20.7000       274
    20.7200       250
    20.7400       294
    20.7600       300
    20.7800       304
    20.8000       330
    20.8200       342
    20.8400       376
    20.8600       360
    20.8800       452
    20.9000       430
    20.9200       504
    20.9400       552
    20.9600       642
    20.9800       668
    21.0000       752
    21.0200       856
    21.0400      1066
    21.0600      1204
    21.0800      1316
    21.1000      1610
    21.1200      1974
    21.1400      2314
    21.1600      2574
    21.1800      2886
    21.2000      3136
    21.2200      3054
    21.2400      2872
    21.2600      2676
    21.2800      2124
    21.3000      1676
    21.3200      1350
    21.3400      1018
    21.3600       820
    21.3800       606
    21.4000       520
    21.4200       478
    21.4400       416
    21.4600       380
    21.4800       376
    21.5000       300
    21.5200       310
    21.5400       282
    21.5600       286
    21.5800       268
    21.6000       272
    21.6200       260
    21.6400       240
    21.6600       220
    21.6800       238
    21.7000       228
    21.7200       214
    21.7400       218
    21.7600       236
    21.7800       236
    21.8000       230
    21.8200       226
    21.8400       214
    21.8600       228
    21.8800       208
    21.9000       214
    21.9200       192
    21.9400       238
    21.9600       206
    21.9800       206
    22.0000       196
    22.0200       192
    22.0400       206
    22.0600       212
    22.0800       196
    22.1000       194
    22.1200       214
    22.1400       198
    22.1600       222
    22.1800       208
    22.2000       226
    22.2200       190
    22.2400       218
    22.2600       204
    22.2800       220
    22.3000       244
    22.3200       210
    22.3400       228
    22.3600       252
    22.3800       218
    22.4000       206
    22.4200       226
    22.4400       252
    22.4600       258
    22.4800       266
    22.5000       284
    22.5200       298
    22.5400       286
    22.5600       310
    22.5800       372
    22.6000       410
    22.6200       424
    22.6400       474
    22.6600       518
    22.6800       610
    22.7000       698
    22.7200       758
    22.7400       886
    22.7600      1042
    22.7800      1346
    22.8000      1388
    22.8200      1554
    22.8400      1832
    22.8600      1754
    22.8800      1756
    22.9000      1614
    22.9200      1336
    22.9400      1128
    22.9600       888
    22.9800       712
    23.0000       578
    23.0200       434
    23.0400       406
    23.0600       340
    23.0800       344
    23.1000       320
    23.1200       306
    23.1400       298
    23.1600       280
    23.1800       256
    23.2000       246
    23.2200       262
    23.2400       228
    23.2600       226
    23.2800       230
    23.3000       242
    23.3200       220
    23.3400       198
    23.3600       224
    23.3800       242
    23.4000       226
    23.4200       228
    23.4400       208
    23.4600       206
    23.4800       220
    23.5000       212
    23.5200       218
    23.5400       226
    23.5600       206
    23.5800       214
    23.6000       196
    23.6200       232
    23.6400       232
    23.6600       198
    23.6800       204
    23.7000       208
    23.7200       246
    23.7400       216
    23.7600       236
    23.7800       250
    23.8000       230
    23.8200       210
    23.8400       226
    23.8600       236
    23.8800       204
    23.9000       224
    23.9200       236
    23.9400       240
    23.9600       226
    23.9800       242
    24.0000       254
    24.0200       258
    24.0400       258
    24.0600       278
    24.0800       252
    24.1000       290
    24.1200       282
    24.1400       316
    24.1600       344
    24.1800       310
    24.2000       334
    24.2200       324
    24.2400       382
    24.2600       406
    24.2800       474
    24.3000       524
    24.3200       558
    24.3400       648
    24.3600       738
    24.3800       882
    24.4000      1048
    24.4200      1200
    24.4400      1338
    24.4600      1526
    24.4800      1814
    24.5000      2038
    24.5200      2076
    24.5400      2152
    24.5600      2068
    24.5800      1894
    24.6000      1782
    24.6200      1520
    24.6400      1326
    24.6600      1138
    24.6800      1010
    24.7000       956
    24.7200       968
    24.7400       976
    24.7600       912
    24.7800       838
    24.8000       842
    24.8200       742
    24.8400       608
    24.8600       626
    24.8800       482
    24.9000       512
    24.9200       438
    24.9400       398
    24.9600       446
    24.9800       410
    25.0000       482
    25.0200       476
    25.0400       478
    25.0600       522
    25.0800       594
    25.1000       638
    25.1200       770
    25.1400       828
    25.1600       950
    25.1800      1052
    25.2000      1242
    25.2200      1264
    25.2400      1578
    25.2600      1666
    25.2800      1772
    25.3000      1788
    25.3200      1668
    25.3400      1566
    25.3600      1270
    25.3800      1066
    25.4000       900
    25.4200       724
    25.4400       584
    25.4600       532
    25.4800       528
    25.5000       518
    25.5200       562
    25.5400       520
    25.5600       582
    25.5800       670
    25.6000       594
    25.6200       638
    25.6400       618
    25.6600       518
    25.6800       484
    25.7000       406
    25.7200       426
    25.7400       386
    25.7600       356
    25.7800       366
    25.8000       354
    25.8200       324
    25.8400       302
    25.8600       348
    25.8800       364
    25.9000       280
    25.9200       314
    25.9400       268
    25.9600       304
    25.9800       286
    26.0000       272
    26.0200       284
    26.0400       302
    26.0600       290
    26.0800       278
    26.1000       284
    26.1200       280
    26.1400       304
    26.1600       296
    26.1800       274
    26.2000       296
    26.2200       308
    26.2400       292
    26.2600       314
    26.2800       346
    26.3000       372
    26.3200       414
    26.3400       416
    26.3600       490
    26.3800       454
    26.4000       442
    26.4200       464
    26.4400       476
    26.4600       486
    26.4800       478
    26.5000       504
    26.5200       534
    26.5400       512
    26.5600       498
    26.5800       510
    26.6000       520
    26.6200       488
    26.6400       516
    26.6600       574
    26.6800       476
    26.7000       516
    26.7200       506
    26.7400       446
    26.7600       474
    26.7800       420
    26.8000       400
    26.8200       342
    26.8400       316
    26.8600       364
    26.8800       304
    26.9000       288
    26.9200       268
    26.9400       272
    26.9600       250
    26.9800       276
    27.0000       298
    27.0200       318
    27.0400       292
    27.0600       304
    27.0800       322
    27.1000       326
    27.1200       328
    27.1400       336
    27.1600       378
    27.1800       406
    27.2000       418
    27.2200       452
    27.2400       474
    27.2600       496
    27.2800       518
    27.3000       636
    27.3200       708
    27.3400       830
    27.3600       996
    27.3800      1124
    27.4000      1354
    27.4200      1470
    27.4400      1666
    27.4600      1826
    27.4800      1958
    27.5000      1860
    27.5200      1858
    27.5400      1644
    27.5600      1604
    27.5800      1352
    27.6000      1158
    27.6200       952
    27.6400       886
    27.6600       658
    27.6800       648
    27.7000       494
    27.7200       440
    27.7400       406
    27.7600       390
    27.7800       344
    27.8000       346
    27.8200       310
    27.8400       288
    27.8600       302
    27.8800       284
    27.9000       282
    27.9200       288
    27.9400       246
    27.9600       274
    27.9800       266
    28.0000       216
    28.0200       244
    28.0400       246
    28.0600       266
    28.0800       236
    28.1000       240
    28.1200       226
    28.1400       252
    28.1600       258
    28.1800       246
    28.2000       256
    28.2200       278
    28.2400       304
    28.2600       306
    28.2800       276
    28.3000       330
    28.3200       346
    28.3400       316
    28.3600       348
    28.3800       324
    28.4000       286
    28.4200       284
    28.4400       280
    28.4600       242
    28.4800       268
    28.5000       280
    28.5200       266
    28.5400       272
    28.5600       300
    28.5800       366
    28.6000       312
    28.6200       372
    28.6400       388
    28.6600       468
    28.6800       494
    28.7000       534
    28.7200       544
    28.7400       498
    28.7600       488
    28.7800       470
    28.8000       464
    28.8200       388
    28.8400       340
    28.8600       338
    28.8800       288
    28.9000       310
    28.9200       306
    28.9400       288
    28.9600       272
    28.9800       270
    29.0000       266
    29.0200       286
    29.0400       286
    29.0600       268
    29.0800       282
    29.1000       280
    29.1200       272
    29.1400       296
    29.1600       280
    29.1800       306
    29.2000       294
    29.2200       302
    29.2400       340
    29.2600       324
    29.2800       372
    29.3000       346
    29.3200       412
    29.3400       396
    29.3600       456
    29.3800       446
    29.4000       522
    29.4200       540
    29.4400       650
    29.4600       694
    29.4800       798
    29.5000       886
    29.5200       964
    29.5400      1078
    29.5600      1258
    29.5800      1478
    29.6000      1574
    29.6200      1812
    29.6400      1840
    29.6600      1784
    29.6800      1614
    29.7000      1454
    29.7200      1282
    29.7400      1138
    29.7600       936
    29.7800       790
    29.8000       700
    29.8200       634
    29.8400       614
    29.8600       568
    29.8800       598
    29.9000       606
    29.9200       644
    29.9400       654
    29.9600       734
    29.9800       858
    30.0000       968
    30.0200      1110
    30.0400      1276
    30.0600      1512
    30.0800      1776
    30.1000      2166
    30.1200      2450
    30.1400      2762
    30.1600      3028
    30.1800      3120
    30.2000      3040
    30.2200      2978
    30.2400      2768
    30.2600      2436
    30.2800      2328
    30.3000      2172
    30.3200      2012
    30.3400      1952
    30.3600      1846
    30.3800      1834
    30.4000      1880
    30.4200      2076
    30.4400      2240
    30.4600      2510
    30.4800      2952
    30.5000      3420
    30.5200      4022
    30.5400      4668
    30.5600      5686
    30.5800      6788
    30.6000      8182
    30.6200      9424
    30.6400     10740
    30.6600     11248
    30.6800     11132
    30.7000     10522
    30.7200      9432
    30.7400      7984
    30.7600      6640
    30.7800      5280
    30.8000      4218
    30.8200      3194
    30.8400      2340
    30.8600      1758
    30.8800      1496
    30.9000      1246
    30.9200      1068
    30.9400       958
    30.9600       854
    30.9800       844
    31.0000       812
    31.0200       670
    31.0400       648
    31.0600       636
    31.0800       618
    31.1000       582
    31.1200       582
    31.1400       562
    31.1600       532
    31.1800       508
    31.2000       482
    31.2200       496
    31.2400       434
    31.2600       416
    31.2800       438
    31.3000       392
    31.3200       356
    31.3400       376
    31.3600       374
    31.3800       326
    31.4000       302
    31.4200       292
    31.4400       318
    31.4600       338
    31.4800       336
    31.5000       318
    31.5200       312
    31.5400       306
    31.5600       298
    31.5800       326
    31.6000       352
    31.6200       384
    31.6400       384
    31.6600       394
    31.6800       394
    31.7000       420
    31.7200       388
    31.7400       434
    31.7600       420
    31.7800       474
    31.8000       486
    31.8200       466
    31.8400       526
    31.8600       570
    31.8800       630
    31.9000       706
    31.9200       778
    31.9400       858
    31.9600       940
    31.9800       960
    32.0000       956
    32.0200      1070
    32.0400      1030
    32.0600       900
    32.0800       842
    32.1000       748
    32.1200       692
    32.1400       656
    32.1600       590
    32.1800       572
    32.2000       566
    32.2200       524
    32.2400       522
    32.2600       610
    32.2800       670
    32.3000       726
    32.3200       784
    32.3400       906
    32.3600      1000
    32.3800      1150
    32.4000      1356
    32.4200      1508
    32.4400      1832
    32.4600      2076
    32.4800      2442
    32.5000      2736
    32.5200      3070
    32.5400      3212
    32.5600      3332
    32.5800      3382
    32.6000      3192
    32.6200      3000
    32.6400      2700
    32.6600      2368
    32.6800      2100
    32.7000      1854
    32.7200      1618
    32.7400      1434
    32.7600      1182
    32.7800      1036
    32.8000       896
    32.8200       778
    32.8400       666
    32.8600       654
    32.8800       588
    32.9000       652
    32.9200       602
    32.9400       562
    32.9600       582
    32.9800       586
    33.0000       616
    33.0200       670
    33.0400       704
    33.0600       752
    33.0800       798
    33.1000       812
    33.1200       704
    33.1400       676
    33.1600       668
    33.1800       548
    33.2000       530
    33.2200       486
    33.2400       436
    33.2600       406
    33.2800       366
    33.3000       344
    33.3200       286
    33.3400       322
    33.3600       288
    33.3800       288
    33.4000       268
    33.4200       252
    33.4400       244
    33.4600       234
    33.4800       234
    33.5000       222
    33.5200       246
    33.5400       228
    33.5600       222
    33.5800       234
    33.6000       222
    33.6200       234
    33.6400       212
    33.6600       228
    33.6800       218
    33.7000       238
    33.7200       234
    33.7400       182
    33.7600       208
    33.7800       256
    33.8000       216
    33.8200       218
    33.8400       236
    33.8600       184
    33.8800       212
    33.9000       232
    33.9200       224
    33.9400       210
    33.9600       212
    33.9800       206
    34.0000       218
    34.0200       198
    34.0400       232
    34.0600       218
    34.0800       236
    34.1000       240
    34.1200       226
    34.1400       242
    34.1600       262
    34.1800       234
    34.2000       270
    34.2200       262
    34.2400       266
    34.2600       300
    34.2800       298
    34.3000       308
    34.3200       320
    34.3400       374
    34.3600       408
    34.3800       450
    34.4000       468
    34.4200       576
    34.4400       644
    34.4600       744
    34.4800       766
    34.5000       948
    34.5200       984
    34.5400       936
    34.5600       918
    34.5800       868
    34.6000       764
    34.6200       718
    34.6400       644
    34.6600       548
    34.6800       520
    34.7000       456
    34.7200       434
    34.7400       378
    34.7600       378
    34.7800       362
    34.8000       354
    34.8200       354
    34.8400       358
    34.8600       356
    34.8800       330
    34.9000       306
    34.9200       326
    34.9400       304
    34.9600       342
    34.9800       318
    35.0000       290
    35.0200       284
    35.0400       274
    35.0600       272
    35.0800       302
    35.1000       300
    35.1200       252
    35.1400       260
    35.1600       286
    35.1800       248
    35.2000       250
    35.2200       232
    35.2400       234
    35.2600       250
    35.2800       236
    35.3000       228
    35.3200       240
    35.3400       226
    35.3600       252
    35.3800       278
    35.4000       250
    35.4200       222
    35.4400       228
    35.4600       286
    35.4800       254
    35.5000       288
    35.5200       268
    35.5400       278
    35.5600       264
    35.5800       240
    35.6000       272
    35.6200       306
    35.6400       278
    35.6600       316
    35.6800       288
    35.7000       356
    35.7200       324
    35.7400       344
    35.7600       390
    35.7800       346
    35.8000       376
    35.8200       396
    35.8400       390
    35.8600       432
    35.8800       440
    35.9000       478
    35.9200       578
    35.9400       636
    35.9600       668
    35.9800       734
    36.0000       820
    36.0200       916
    36.0400      1010
    36.0600      1104
    36.0800      1046
    36.1000      1130
    36.1200      1032
    36.1400       992
    36.1600       948
    36.1800       846
    36.2000       664
    36.2200       668
    36.2400       566
    36.2600       538
    36.2800       414
    36.3000       382
    36.3200       358
    36.3400       350
    36.3600       348
    36.3800       336
    36.4000       322
    36.4200       332
    36.4400       312
    36.4600       308
    36.4800       290
    36.5000       288
    36.5200       338
    36.5400       348
    36.5600       304
    36.5800       310
    36.6000       336
    36.6200       348
    36.6400       368
    36.6600       364
    36.6800       378
    36.7000       370
    36.7200       456
    36.7400       472
    36.7600       534
    36.7800       594
    36.8000       704
    36.8200       772
    36.8400       850
    36.8600       896
    36.8800       952
    36.9000       982
    36.9200       938
    36.9400       932
    36.9600       926
    36.9800       852
    37.0000       834
    37.0200       852
    37.0400       854
    37.0600       840
    37.0800       882
    37.1000       888
    37.1200       934
    37.1400       998
    37.1600      1054
    37.1800      1022
    37.2000      1072
    37.2200      1036
    37.2400      1024
    37.2600       900
    37.2800       892
    37.3000       762
    37.3200       730
    37.3400       692
    37.3600       590
    37.3800       522
    37.4000       510
    37.4200       454
    37.4400       454
    37.4600       438
    37.4800       424
    37.5000       398
    37.5200       414
    37.5400       370
    37.5600       392
    37.5800       362
    37.6000       376
    37.6200       392
    37.6400       380
    37.6600       414
    37.6800       386
    37.7000       394
    37.7200       408
    37.7400       424
    37.7600       434
    37.7800       400
    37.8000       430
    37.8200       434
    37.8400       478
    37.8600       522
    37.8800       524
    37.9000       616
    37.9200       682
    37.9400       734
    37.9600       844
    37.9800       918
    38.0000       968
    38.0200      1060
    38.0400       948
    38.0600      1020
    38.0800      1026
    38.1000       976
    38.1200       916
    38.1400       884
    38.1600       842
    38.1800       876
    38.2000       794
    38.2200       880
    38.2400       880
    38.2600       986
    38.2800      1058
    38.3000      1126
    38.3200      1180
    38.3400      1340
    38.3600      1594
    38.3800      1798
    38.4000      2002
    38.4200      2276
    38.4400      2520
    38.4600      2872
    38.4800      3210
    38.5000      3392
    38.5200      3868
    38.5400      4306
    38.5600      4852
    38.5800      5304
    38.6000      5820
    38.6200      6392
    38.6400      6600
    38.6600      6468
    38.6800      5976
    38.7000      5546
    38.7200      5282
    38.7400      4652
    38.7600      4306
    38.7800      3734
    38.8000      3140
    38.8200      2648
    38.8400      2280
    38.8600      1898
    38.8800      1642
    38.9000      1448
    38.9200      1278
    38.9400      1194
    38.9600      1112
    38.9800      1028
    39.0000       984
    39.0200       970
    39.0400      1046
    39.0600      1080
    39.0800      1132
    39.1000      1134
    39.1200      1194
    39.1400      1176
    39.1600      1246
    39.1800      1254
    39.2000      1312
    39.2200      1390
    39.2400      1390
    39.2600      1444
    39.2800      1444
    39.3000      1604
    39.3200      1524
    39.3400      1646
    39.3600      1566
    39.3800      1512
    39.4000      1432
    39.4200      1304
    39.4400      1242
    39.4600      1122
    39.4800      1004
    39.5000       958
    39.5200       942
    39.5400       866
    39.5600       824
    39.5800       874
    39.6000       912
    39.6200      1008
    39.6400      1054
    39.6600      1124
    39.6800      1144
    39.7000      1122
    39.7200      1104
    39.7400      1094
    39.7600      1060
    39.7800      1030
    39.8000       888
    39.8200       826
    39.8400       730
    39.8600       702
    39.8800       648
    39.9000       618
    39.9200       582
    39.9400       564
    39.9600       604
    39.9800       574
    40.0000       604
    40.0200       648
    40.0400       684
    40.0600       712
    40.0800       816
    40.1000       912
    40.1200       936
    40.1400       958
    40.1600      1068
    40.1800      1044
    40.2000       964
    40.2200      1018
    40.2400       964
    40.2600       986
    40.2800       946
    40.3000       916
    40.3200       892
    40.3400      1000
    40.3600       988
    40.3800      1046
    40.4000      1122
    40.4200      1212
    40.4400      1372
    40.4600      1498
    40.4800      1582
    40.5000      1720
    40.5200      1776
    40.5400      1796
    40.5600      1732
    40.5800      1628
    40.6000      1558
    40.6200      1436
    40.6400      1344
    40.6600      1226
    40.6800      1056
    40.7000       944
    40.7200       862
    40.7400       810
    40.7600       742
    40.7800       692
    40.8000       616
    40.8200       632
    40.8400       590
    40.8600       586
    40.8800       536
    40.9000       562
    40.9200       536
    40.9400       546
    40.9600       590
    40.9800       640
    41.0000       674
    41.0200       656
    41.0400       738
    41.0600       726
    41.0800       894
    41.1000      1000
    41.1200      1132
    41.1400      1216
    41.1600      1446
    41.1800      1620
    41.2000      1872
    41.2200      2098
    41.2400      2232
    41.2600      2526
    41.2800      2570
    41.3000      2716
    41.3200      2816
    41.3400      2894
    41.3600      2766
    41.3800      2920
    41.4000      2926
    41.4200      2978
    41.4400      3060
    41.4600      3126
    41.4800      2826
    41.5000      2824
    41.5200      2648
    41.5400      2260
    41.5600      2006
    41.5800      1942
    41.6000      1692
    41.6200      1448
    41.6400      1306
    41.6600      1180
    41.6800       964
    41.7000       924
    41.7200       836
    41.7400       802
    41.7600       840
    41.7800       840
    41.8000       802
    41.8200       852
    41.8400       888
    41.8600       912
    41.8800       982
    41.9000       950
    41.9200       962
    41.9400       860
    41.9600       854
    41.9800       804
    42.0000       692
    42.0200       684
    42.0400       632
    42.0600       586
    42.0800       578
    42.1000       504
    42.1200       452
    42.1400       454
    42.1600       422
    42.1800       418
    42.2000       384
    42.2200       380
    42.2400       374
    42.2600       356
    42.2800       360
    42.3000       334
    42.3200       334
    42.3400       352
    42.3600       368
    42.3800       342
    42.4000       402
    42.4200       368
    42.4400       374
    42.4600       350
    42.4800       384
    42.5000       348
    42.5200       354
    42.5400       354
    42.5600       334
    42.5800       314
    42.6000       338
    42.6200       340
    42.6400       348
    42.6600       326
    42.6800       350
    42.7000       312
    42.7200       346
    42.7400       340
    42.7600       334
    42.7800       296
    42.8000       314
    42.8200       328
    42.8400       354
    42.8600       344
    42.8800       350
    42.9000       330
    42.9200       374
    42.9400       394
    42.9600       422
    42.9800       402
    43.0000       426
    43.0200       460
    43.0400       446
    43.0600       552
    43.0800       600
    43.1000       706
    43.1200       716
    43.1400       816
    43.1600       886
    43.1800       952
    43.2000       936
    43.2200       964
    43.2400       994
    43.2600      1006
    43.2800       976
    43.3000       890
    43.3200       856
    43.3400       724
    43.3600       676
    43.3800       634
    43.4000       492
    43.4200       498
    43.4400       468
    43.4600       438
    43.4800       454
    43.5000       384
    43.5200       396
    43.5400       362
    43.5600       332
    43.5800       384
    43.6000       354
    43.6200       380
    43.6400       376
    43.6600       354
    43.6800       346
    43.7000       404
    43.7200       362
    43.7400       370
    43.7600       414
    43.7800       414
    43.8000       420
    43.8200       430
    43.8400       450
    43.8600       480
    43.8800       464
    43.9000       422
    43.9200       440
    43.9400       442
    43.9600       430
    43.9800       406
    44.0000       428
    44.0200       430
    44.0400       396
    44.0600       426
    44.0800       422
    44.1000       394
    44.1200       450
    44.1400       440
    44.1600       484
    44.1800       472
    44.2000       488
    44.2200       506
    44.2400       520
    44.2600       552
    44.2800       552
    44.3000       510
    44.3200       524
    44.3400       520
    44.3600       542
    44.3800       502
    44.4000       502
    44.4200       520
    44.4400       520
    44.4600       472
    44.4800       504
    44.5000       440
    44.5200       478
    44.5400       454
    44.5600       512
    44.5800       474
    44.6000       526
    44.6200       550
    44.6400       516
    44.6600       504
    44.6800       578
    44.7000       582
    44.7200       588
    44.7400       592
    44.7600       654
    44.7800       688
    44.8000       780
    44.8200       856
    44.8400       898
    44.8600       918
    44.8800      1052
    44.9000      1300
    44.9200      1386
    44.9400      1622
    44.9600      1824
    44.9800      1988
    45.0000      2236
    45.0200      2524
    45.0400      2684
    45.0600      2762
    45.0800      3000
    45.1000      3040
    45.1200      3066
    45.1400      3272
    45.1600      3224
    45.1800      3310
    45.2000      3366
    45.2200      3496
    45.2400      3468
    45.2600      3548
    45.2800      3102
    45.3000      2922
    45.3200      2806
    45.3400      2658
    45.3600      2414
    45.3800      2312
    45.4000      2160
    45.4200      1978
    45.4400      1962
    45.4600      1920
    45.4800      1720
    45.5000      1734
    45.5200      1656
    45.5400      1570
    45.5600      1442
    45.5800      1342
    45.6000      1358
    45.6200      1094
    45.6400      1082
    45.6600       970
    45.6800       882
    45.7000       806
    45.7200       748
    45.7400       694
    45.7600       624
    45.7800       664
    45.8000       576
    45.8200       556
    45.8400       572
    45.8600       580
    45.8800       504
    45.9000       570
    45.9200       512
    45.9400       556
    45.9600       516
    45.9800       520
    46.0000       508
    46.0200       514
    46.0400       494
    46.0600       502
    46.0800       474
    46.1000       486
    46.1200       504
    46.1400       540
    46.1600       566
    46.1800       536
    46.2000       576
    46.2200       530
    46.2400       598
    46.2600       616
    46.2800       644
    46.3000       704
    46.3200       696
    46.3400       788
    46.3600       860
    46.3800       972
    46.4000      1002
    46.4200      1126
    46.4400      1270
    46.4600      1450
    46.4800      1506
    46.5000      1700
    46.5200      1782
    46.5400      1990
    46.5600      2082
    46.5800      2342
    46.6000      2524
    46.6200      2730
    46.6400      2960
    46.6600      3336
    46.6800      3532
    46.7000      3534
    46.7200      3670
    46.7400      3552
    46.7600      3304
    46.7800      3200
    46.8000      2938
    46.8200      2612
    46.8400      2436
    46.8600      2160
    46.8800      1924
    46.9000      1738
    46.9200      1452
    46.9400      1302
    46.9600      1122
    46.9800      1000
    47.0000       842
    47.0200       740
    47.0400       686
    47.0600       646
    47.0800       604
    47.1000       528
    47.1200       578
    47.1400       500
    47.1600       476
    47.1800       464
    47.2000       452
    47.2200       428
    47.2400       382
    47.2600       424
    47.2800       456
    47.3000       402
    47.3200       398
    47.3400       390
    47.3600       402
    47.3800       402
    47.4000       372
    47.4200       408
    47.4400       362
    47.4600       328
    47.4800       354
    47.5000       370
    47.5200       360
    47.5400       334
    47.5600       352
    47.5800       364
    47.6000       364
    47.6200       382
    47.6400       376
    47.6600       366
    47.6800       374
    47.7000       366
    47.7200       406
    47.7400       424
    47.7600       410
    47.7800       468
    47.8000       504
    47.8200       498
    47.8400       460
    47.8600       486
    47.8800       480
    47.9000       486
    47.9200       464
    47.9400       468
    47.9600       478
    47.9800       470
    48.0000       502
    48.0200       500
    48.0400       474
    48.0600       514
    48.0800       492
    48.1000       486
    48.1200       518
    48.1400       534
    48.1600       524
    48.1800       552
    48.2000       564
    48.2200       588
    48.2400       652
    48.2600       600
    48.2800       664
    48.3000       690
    48.3200       692
    48.3400       662
    48.3600       714
    48.3800       750
    48.4000       816
    48.4200       842
    48.4400       946
    48.4600      1004
    48.4800      1154
    48.5000      1254
    48.5200      1346
    48.5400      1436
    48.5600      1540
    48.5800      1662
    48.6000      1716
    48.6200      1650
    48.6400      1728
    48.6600      1608
    48.6800      1576
    48.7000      1580
    48.7200      1512
    48.7400      1326
    48.7600      1280
    48.7800      1088
    48.8000      1042
    48.8200       998
    48.8400       880
    48.8600       772
    48.8800       728
    48.9000       666
    48.9200       628
    48.9400       582
    48.9600       522
    48.9800       498
    49.0000       450
    49.0200       446
    49.0400       386
    49.0600       386
    49.0800       360
    49.1000       378
    49.1200       334
    49.1400       344
    49.1600       342
    49.1800       360
    49.2000       320
    49.2200       322
    49.2400       286
    49.2600       296
    49.2800       308
    49.3000       314
    49.3200       340
    49.3400       330
    49.3600       322
    49.3800       246
    49.4000       308
    49.4200       304
    49.4400       298
    49.4600       278
    49.4800       288
    49.5000       286
    49.5200       286
    49.5400       280
    49.5600       308
    49.5800       304
    49.6000       310
    49.6200       290
    49.6400       324
    49.6600       296
    49.6800       296
    49.7000       308
    49.7200       300
    49.7400       352
    49.7600       318
    49.7800       308
    49.8000       364
    49.8200       336
    49.8400       338
    49.8600       336
    49.8800       408
    49.9000       380
    49.9200       420
    49.9400       440
    49.9600       434
    49.9800       470
    50.0000       510
    50.0200       568
    50.0400       624
    50.0600       684
    50.0800       718
    50.1000       810
    50.1200       948
    50.1400       936
    50.1600      1102
    50.1800      1230
    50.2000      1398
    50.2200      1508
    50.2400      1590
    50.2600      1754
    50.2800      1858
    50.3000      1888
    50.3200      1966
    50.3400      1924
    50.3600      1986
    50.3800      1946
    50.4000      1914
    50.4200      1888
    50.4400      1792
    50.4600      1740
    50.4800      1572
    50.5000      1530
    50.5200      1512
    50.5400      1370
    50.5600      1398
    50.5800      1400
    50.6000      1392
    50.6200      1516
    50.6400      1608
    50.6600      1770
    50.6800      1980
    50.7000      2100
    50.7200      2338
    50.7400      2660
    50.7600      2880
    50.7800      3146
    50.8000      3152
    50.8200      3024
    50.8400      3060
    50.8600      2880
    50.8800      2692
    50.9000      2592
    50.9200      2398
    50.9400      2222
    50.9600      2042
    50.9800      1704
    51.0000      1570
    51.0200      1370
    51.0400      1190
    51.0600      1086
    51.0800      1000
    51.1000       860
    51.1200       828
    51.1400       758
    51.1600       702
    51.1800       666
    51.2000       624
    51.2200       692
    51.2400       630
    51.2600       586
    51.2800       578
    51.3000       578
    51.3200       630
    51.3400       604
    51.3600       626
    51.3800       674
    51.4000       658
    51.4200       642
    51.4400       570
    51.4600       592
    51.4800       700
    51.5000       626
    51.5200       644
    51.5400       592
    51.5600       634
    51.5800       684
    51.6000       720
    51.6200       738
    51.6400       768
    51.6600       776
    51.6800       818
    51.7000       934
    51.7200       960
    51.7400      1054
    51.7600      1166
    51.7800      1346
    51.8000      1418
    51.8200      1574
    51.8400      1764
    51.8600      2072
    51.8800      2110
    51.9000      2484
    51.9200      2660
    51.9400      2678
    51.9600      2738
    51.9800      2592
    52.0000      2532
    52.0200      2432
    52.0400      2130
    52.0600      2050
    52.0800      1900
    52.1000      1726
    52.1200      1572
    52.1400      1346
    52.1600      1196
    52.1800      1030
    52.2000       884
    52.2200       814
    52.2400       724
    52.2600       676
    52.2800       610
    52.3000       578
    52.3200       566
    52.3400       548
    52.3600       552
    52.3800       542
    52.4000       520
    52.4200       490
    52.4400       532
    52.4600       570
    52.4800       556
    52.5000       652
    52.5200       692
    52.5400       690
    52.5600       692
    52.5800       758
    52.6000       846
    52.6200       826
    52.6400       838
    52.6600       848
    52.6800       854
    52.7000       898
    52.7200       954
    52.7400      1030
    52.7600       990
    52.7800       938
    52.8000       910
    52.8200       974
    52.8400       878
    52.8600       858
    52.8800       782
    52.9000       818
    52.9200       734
    52.9400       682
    52.9600       652
    52.9800       664
    53.0000       592
    53.0200       580
    53.0400       506
    53.0600       552
    53.0800       564
    53.1000       562
    53.1200       590
    53.1400       600
    53.1600       658
    53.1800       680
    53.2000       748
    53.2200       782
    53.2400       834
    53.2600       826
    53.2800       872
    53.3000       848
    53.3200       828
    53.3400       798
    53.3600       778
    53.3800       766
    53.4000       736
    53.4200       716
    53.4400       704
    53.4600       660
    53.4800       674
    53.5000       636
    53.5200       602
    53.5400       590
    53.5600       618
    53.5800       612
    53.6000       648
    53.6200       600
    53.6400       662
    53.6600       620
    53.6800       554
    53.7000       600
    53.7200       574
    53.7400       580
    53.7600       556
    53.7800       540
    53.8000       550
    53.8200       470
    53.8400       492
    53.8600       476
    53.8800       516
    53.9000       442
    53.9200       482
    53.9400       482
    53.9600       458
    53.9800       474
    54.0000       462
    54.0200       442
    54.0400       448
    54.0600       452
    54.0800       468
    54.1000       520
    54.1200       510
    54.1400       542
    54.1600       564
    54.1800       612
    54.2000       662
    54.2200       684
    54.2400       692
    54.2600       710
    54.2800       784
    54.3000       778
    54.3200       816
    54.3400       830
    54.3600       884
    54.3800       890
    54.4000       994
    54.4200       980
    54.4400      1014
    54.4600       974
    54.4800       954
    54.5000       900
    54.5200       836
    54.5400       820
    54.5600       856
    54.5800       786
    54.6000       780
    54.6200       754
    54.6400       698
    54.6600       664
    54.6800       682
    54.7000       660
    54.7200       648
    54.7400       620
    54.7600       608
    54.7800       610
    54.8000       594
    54.8200       624
    54.8400       630
    54.8600       640
    54.8800       618
    54.9000       630
    54.9200       714
    54.9400       724
    54.9600       744
    54.9800       796
    55.0000       836
    55.0200       916
    55.0400       976
    55.0600      1038
    55.0800      1094
    55.1000      1164
    55.1200      1256
    55.1400      1338
    55.1600      1296
    55.1800      1388
    55.2000      1388
    55.2200      1430
    55.2400      1458
    55.2600      1366
    55.2800      1424
    55.3000      1330
    55.3200      1292
    55.3400      1260
    55.3600      1190
    55.3800      1100
    55.4000      1022
    55.4200       944
    55.4400       892
    55.4600       826
    55.4800       782
    55.5000       740
    55.5200       630
    55.5400       658
    55.5600       546
    55.5800       568
    55.6000       492
    55.6200       466
    55.6400       466
    55.6600       444
    55.6800       392
    55.7000       380
    55.7200       380
    55.7400       372
    55.7600       370
    55.7800       404
    55.8000       338
    55.8200       362
    55.8400       316
    55.8600       354
    55.8800       354
    55.9000       314
    55.9200       342
    55.9400       342
    55.9600       284
    55.9800       300
    56.0000       320
    56.0200       310
    56.0400       298
    56.0600       292
    56.0800       330
    56.1000       328
    56.1200       314
    56.1400       302
    56.1600       348
    56.1800       308
    56.2000       334
    56.2200       316
    56.2400       356
    56.2600       354
    56.2800       354
    56.3000       350
    56.3200       342
    56.3400       318
    56.3600       342
    56.3800       376
    56.4000       366
    56.4200       384
    56.4400       358
    56.4600       380
    56.4800       392
    56.5000       384
    56.5200       458
    56.5400       464
    56.5600       494
    56.5800       494
    56.6000       540
    56.6200       558
    56.6400       644
    56.6600       664
    56.6800       778
    56.7000       824
    56.7200       834
    56.7400       888
    56.7600       884
    56.7800       856
    56.8000       794
    56.8200       760
    56.8400       712
    56.8600       692
    56.8800       694
    56.9000       656
    56.9200       632
    56.9400       608
    56.9600       532
    56.9800       480
    57.0000       434
    57.0200       448
    57.0400       454
    57.0600       414
    57.0800       390
    57.1000       374
    57.1200       400
    57.1400       402
    57.1600       400
    57.1800       454
    57.2000       446
    57.2200       488
    57.2400       506
    57.2600       582
    57.2800       580
    57.3000       644
    57.3200       602
    57.3400       740
    57.3600       762
    57.3800       706
    57.4000       718
    57.4200       766
    57.4400       700
    57.4600       722
    57.4800       710
    57.5000       684
    57.5200       698
    57.5400       636
    57.5600       636
    57.5800       690
    57.6000       646
    57.6200       688
    57.6400       650
    57.6600       682
    57.6800       706
    57.7000       732
    57.7200       746
    57.7400       716
    57.7600       752
    57.7800       746
    57.8000       718
    57.8200       648
    57.8400       670
    57.8600       618
    57.8800       608
    57.9000       580
    57.9200       562
    57.9400       578
    57.9600       536
    57.9800       488
    58.0000       468
    58.0200       440
    58.0400       440
    58.0600       470
    58.0800       434
    58.1000       488
    58.1200       472
    58.1400       484
    58.1600       524
    58.1800       536
    58.2000       524
    58.2200       588
    58.2400       592
    58.2600       638
    58.2800       626
    58.3000       672
    58.3200       690
    58.3400       686
    58.3600       766
    58.3800       820
    58.4000       822
    58.4200       878
    58.4400       908
    58.4600       930
    58.4800       968
    58.5000       942
    58.5200       998
    58.5400       980
    58.5600      1048
    58.5800      1108
    58.6000      1208
    58.6200      1188
    58.6400      1276
    58.6600      1314
    58.6800      1360
    58.7000      1390
    58.7200      1358
    58.7400      1326
    58.7600      1378
    58.7800      1406
    58.8000      1286
    58.8200      1378
    58.8400      1276
    58.8600      1264
    58.8800      1202
    58.9000      1074
    58.9200      1014
    58.9400      1004
    58.9600       906
    58.9800       850
    59.0000       810
    59.0200       810
    59.0400       744
    59.0600       706
    59.0800       726
    59.1000       692
    59.1200       666
    59.1400       708
    59.1600       782
    59.1800       850
    59.2000       790
    59.2200       842
    59.2400       924
    59.2600      1084
    59.2800      1118
    59.3000      1256
    59.3200      1372
    59.3400      1554
    59.3600      1746
    59.3800      1818
    59.4000      2082
    59.4200      2120
    59.4400      2286
    59.4600      2386
    59.4800      2306
    59.5000      2352
    59.5200      2276
    59.5400      2140
    59.5600      1988
    59.5800      2052
    59.6000      1902
    59.6200      1796
    59.6400      1766
    59.6600      1700
    59.6800      1658
    59.7000      1578
    59.7200      1466
    59.7400      1358
    59.7600      1358
    59.7800      1278
    59.8000      1264
    59.8200      1198
    59.8400      1200
    59.8600      1114
    59.8800      1064
    59.9000      1016
    59.9200      1006
    59.9400       986
    59.9600       924
    59.9800       864
    60.0000       788
    60.0200       784
    60.0400       736
    60.0600       674
    60.0800       660
    60.1000       622
    60.1200       586
    60.1400       596
    60.1600       516
    60.1800       524
    60.2000       494
    60.2200       478
    60.2400       456
    60.2600       428
    60.2800       452
    60.3000       396
    60.3200       402
    60.3400       408
    60.3600       358
    60.3800       368
    60.4000       406
    60.4200       356
    60.4400       378
    60.4600       356
    60.4800       390
    60.5000       362
    60.5200       370
    60.5400       376
    60.5600       350
    60.5800       334
    60.6000       348
    60.6200       356
    60.6400       376
    60.6600       320
    60.6800       368
    60.7000       358
    60.7200       334
    60.7400       348
    60.7600       366
    60.7800       342
    60.8000       380
    60.8200       378
    60.8400       340
    60.8600       370
    60.8800       404
    60.9000       406
    60.9200       406
    60.9400       428
    60.9600       426
    60.9800       462
    61.0000       478
    61.0200       510
    61.0400       490
    61.0600       540
    61.0800       492
    61.1000       550
    61.1200       590
    61.1400       638
    61.1600       672
    61.1800       682
    61.2000       738
    61.2200       796
    61.2400       846
    61.2600       842
    61.2800       896
    61.3000       934
    61.3200       984
    61.3400      1054
    61.3600      1136
    61.3800      1156
    61.4000      1314
    61.4200      1380
    61.4400      1504
    61.4600      1666
    61.4800      1776
    61.5000      2006
    61.5200      2044
    61.5400      2090
    61.5600      2012
    61.5800      2054
    61.6000      1954
    61.6200      1862
    61.6400      1720
    61.6600      1538
    61.6800      1506
    61.7000      1444
    61.7200      1374
    61.7400      1266
    61.7600      1182
    61.7800      1118
    61.8000       972
    61.8200       818
    61.8400       730
    61.8600       700
    61.8800       626
    61.9000       544
    61.9200       524
    61.9400       500
    61.9600       514
    61.9800       490
    62.0000       456
    62.0200       436
    62.0400       444
    62.0600       438
    62.0800       376
    62.1000       390
    62.1200       422
    62.1400       386
    62.1600       394
    62.1800       414
    62.2000       360
    62.2200       402
    62.2400       382
    62.2600       378
    62.2800       320
    62.3000       352
    62.3200       358
    62.3400       354
    62.3600       360
    62.3800       364
    62.4000       376
    62.4200       354
    62.4400       382
    62.4600       318
    62.4800       348
    62.5000       342
    62.5200       340
    62.5400       406
    62.5600       368
    62.5800       384
    62.6000       370
    62.6200       418
    62.6400       400
    62.6600       412
    62.6800       402
    62.7000       440
    62.7200       486
    62.7400       436
    62.7600       430
    62.7800       394
    62.8000       396
    62.8200       412
    62.8400       444
    62.8600       410
    62.8800       390
    62.9000       408
    62.9200       386
    62.9400       364
    62.9600       330
    62.9800       326
    63.0000       324
    63.0200       328
    63.0400       278
    63.0600       302
    63.0800       290
    63.1000       268
    63.1200       242
    63.1400       252
    63.1600       260
    63.1800       264
    63.2000       274
    63.2200       254
    63.2400       242
    63.2600       288
    63.2800       254
    63.3000       236
    63.3200       220
    63.3400       248
    63.3600       246
    63.3800       274
    63.4000       292
    63.4200       250
    63.4400       260
    63.4600       284
    63.4800       330
    63.5000       306
    63.5200       314
    63.5400       348
    63.5600       314
    63.5800       366
    63.6000       366
    63.6200       362
    63.6400       392
    63.6600       442
    63.6800       504
    63.7000       472
    63.7200       556
    63.7400       606
    63.7600       690
    63.7800       776
    63.8000       832
    63.8200       906
    63.8400       988
    63.8600      1030
    63.8800      1078
    63.9000       968
    63.9200       972
    63.9400       934
    63.9600       844
    63.9800       876
    64.0000       804
    64.0200       780
    64.0400       782
    64.0600       766
    64.0800       702
    64.1000       674
    64.1200       620
    64.1400       548
    64.1600       526
    64.1800       504
    64.2000       438
    64.2200       420
    64.2400       434
    64.2600       374
    64.2800       374
    64.3000       382
    64.3200       342
    64.3400       326
    64.3600       362
    64.3800       330
    64.4000       328
    64.4200       256
    64.4400       302
    64.4600       282
    64.4800       246
    64.5000       240
    64.5200       252
    64.5400       254
    64.5600       232
    64.5800       254
    64.6000       254
    64.6200       246
    64.6400       250
    64.6600       258
    64.6800       250
    64.7000       246
    64.7200       230
    64.7400       236
    64.7600       242
    64.7800       236
    64.8000       308
    64.8200       272
    64.8400       268
    64.8600       248
    64.8800       246
    64.9000       274
    64.9200       268
    64.9400       290
    64.9600       332
    64.9800       314
    65.0000       334
    65.0200       322
    65.0400       336
    65.0600       346
    65.0800       350
    65.1000       320
    65.1200       364
    65.1400       354
    65.1600       372
    65.1800       348
    65.2000       340
    65.2200       332
    65.2400       360
    65.2600       362
    65.2800       380
    65.3000       364
    65.3200       386
    65.3400       358
    65.3600       336
    65.3800       354
    65.4000       358
    65.4200       354
    65.4400       380
    65.4600       354
    65.4800       394
    65.5000       410
    65.5200       382
    65.5400       340
    65.5600       422
    65.5800       430
    65.6000       466
    65.6200       420
    65.6400       442
    65.6600       450
    65.6800       426
    65.7000       430
    65.7200       376
    65.7400       374
    65.7600       358
    65.7800       370
    65.8000       366
    65.8200       356
    65.8400       368
    65.8600       370
    65.8800       304
    65.9000       358
    65.9200       300
    65.9400       292
    65.9600       290
    65.9800       268
    66.0000       246
    66.0200       270
    66.0400       240
    66.0600       266
    66.0800       256
    66.1000       250
    66.1200       264
    66.1400       272
    66.1600       280
    66.1800       272
    66.2000       260
    66.2200       294
    66.2400       276
    66.2600       262
    66.2800       270
    66.3000       308
    66.3200       322
    66.3400       342
    66.3600       278
    66.3800       362
    66.4000       328
    66.4200       312
    66.4400       334
    66.4600       354
    66.4800       350
    66.5000       360
    66.5200       358
    66.5400       398
    66.5600       360
    66.5800       356
    66.6000       380
    66.6200       374
    66.6400       430
    66.6600       406
    66.6800       434
    66.7000       424
    66.7200       482
    66.7400       474
    66.7600       520
    66.7800       548
    66.8000       552
    66.8200       628
    66.8400       710
    66.8600       720
    66.8800       728
    66.9000       752
    66.9200       802
    66.9400       776
    66.9600       786
    66.9800       800
    67.0000       784
    67.0200       772
    67.0400       700
    67.0600       728
    67.0800       690
    67.1000       702
    67.1200       630
    67.1400       604
    67.1600       636
    67.1800       592
    67.2000       508
    67.2200       500
    67.2400       492
    67.2600       416
    67.2800       422
    67.3000       426
    67.3200       412
    67.3400       408
    67.3600       350
    67.3800       390
    67.4000       348
    67.4200       350
    67.4400       316
    67.4600       290
    67.4800       280
    67.5000       310
    67.5200       260
    67.5400       288
    67.5600       272
    67.5800       268
    67.6000       282
    67.6200       278
    67.6400       256
    67.6600       274
    67.6800       250
    67.7000       282
    67.7200       246
    67.7400       236
    67.7600       278
    67.7800       310
    67.8000       294
    67.8200       294
    67.8400       288
    67.8600       306
    67.8800       308
    67.9000       356
    67.9200       282
    67.9400       392
    67.9600       384
    67.9800       388
    68.0000       382
    68.0200       484
    68.0400       432
    68.0600       452
    68.0800       522
    68.1000       530
    68.1200       524
    68.1400       552
    68.1600       566
    68.1800       596
    68.2000       634
    68.2200       540
    68.2400       584
    68.2600       588
    68.2800       602
    68.3000       566
    68.3200       598
    68.3400       618
    68.3600       580
    68.3800       600
    68.4000       556
    68.4200       520
    68.4400       628
    68.4600       548
    68.4800       538
    68.5000       558
    68.5200       558
    68.5400       508
    68.5600       520
    68.5800       484
    68.6000       468
    68.6200       488
    68.6400       440
    68.6600       428
    68.6800       396
    68.7000       396
    68.7200       370
    68.7400       346
    68.7600       346
    68.7800       380
    68.8000       376
    68.8200       298
    68.8400       312
    68.8600       330
    68.8800       312
    68.9000       322
    68.9200       306
    68.9400       330
    68.9600       296
    68.9800       332
    69.0000       362
    69.0200       334
    69.0400       374
    69.0600       396
    69.0800       380
    69.1000       418
    69.1200       384
    69.1400       388
    69.1600       382
    69.1800       390
    69.2000       378
    69.2200       402
    69.2400       384
    69.2600       360
    69.2800       380
    69.3000       404
    69.3200       380
    69.3400       388
    69.3600       402
    69.3800       426
    69.4000       392
    69.4200       400
    69.4400       368
    69.4600       364
    69.4800       414
    69.5000       380
    69.5200       348
    69.5400       352
    69.5600       360
    69.5800       354
    69.6000       360
    69.6200       356
    69.6400       356
    69.6600       382
    69.6800       366
    69.7000       416
    69.7200       414
    69.7400       414
    69.7600       458
    69.7800       456
    69.8000       490
    69.8200       466
    69.8400       496
    69.8600       538
    69.8800       514
    69.9000       488
    69.9200       476
    69.9400       504
    69.9600       432
    69.9800       462
    70.0000       414
    70.0200       440
    70.0400       414
    70.0600       398
    70.0800       390
    70.1000       388
    70.1200       412
    70.1400       350
    70.1600       328
    70.1800       310
    70.2000       306
    70.2200       270
    70.2400       248
    70.2600       234
    70.2800       252
    70.3000       236
    70.3200       242
    70.3400       212
    70.3600       226
    70.3800       222
    70.4000       206
    70.4200       226
    70.4400       208
    70.4600       226
    70.4800       186
    70.5000       224
    70.5200       236
    70.5400       208
    70.5600       192
    70.5800       212
    70.6000       232
    70.6200       226
    70.6400       218
    70.6600       216
    70.6800       206
    70.7000       216
    70.7200       196
    70.7400       178
    70.7600       190
    70.7800       212
    70.8000       212
    70.8200       198
    70.8400       200
    70.8600       198
    70.8800       194
    70.9000       186
    70.9200       214
    70.9400       182
    70.9600       184
    70.9800       182
    71.0000       200
    71.0200       198
    71.0400       190
    71.0600       178
    71.0800       182
    71.1000       194
    71.1200       184
    71.1400       176
    71.1600       220
    71.1800       178
    71.2000       212
    71.2200       230
    71.2400       222
    71.2600       216
    71.2800       222
    71.3000       236
    71.3200       252
    71.3400       252
    71.3600       272
    71.3800       286
    71.4000       276
    71.4200       326
    71.4400       328
    71.4600       318
    71.4800       352
    71.5000       374
    71.5200       332
    71.5400       330
    71.5600       336
    71.5800       320
    71.6000       302
    71.6200       356
    71.6400       354
    71.6600       372
    71.6800       318
    71.7000       292
    71.7200       364
    71.7400       314
    71.7600       352
    71.7800       312
    71.8000       304
    71.8200       330
    71.8400       328
    71.8600       306
    71.8800       316
    71.9000       286
    71.9200       250
    71.9400       270
    71.9600       292
    71.9800       252
    72.0000       254
    72.0200       280
    72.0400       290
    72.0600       294
    72.0800       270
    72.1000       298
    72.1200       282
    72.1400       276
    72.1600       284
    72.1800       282
    72.2000       300
    72.2200       302
    72.2400       330
    72.2600       344
    72.2800       340
    72.3000       404
    72.3200       390
    72.3400       386
    72.3600       430
    72.3800       398
    72.4000       418
    72.4200       396
    72.4400       442
    72.4600       500
    72.4800       464
    72.5000       502
    72.5200       494
    72.5400       518
    72.5600       504
    72.5800       574
    72.6000       546
    72.6200       524
    72.6400       546
    72.6600       608
    72.6800       606
    72.7000       642
    72.7200       646
    72.7400       690
    72.7600       668
    72.7800       740
    72.8000       760
    72.8200       742
    72.8400       734
    72.8600       746
    72.8800       748
    72.9000       710
    72.9200       712
    72.9400       684
    72.9600       638
    72.9800       658
    73.0000       638
    73.0200       536
    73.0400       562
    73.0600       540
    73.0800       534
    73.1000       492
    73.1200       464
    73.1400       406
    73.1600       420
    73.1800       390
    73.2000       350
    73.2200       364
    73.2400       290
    73.2600       312
    73.2800       254
    73.3000       284
    73.3200       272
    73.3400       260
    73.3600       246
    73.3800       256
    73.4000       224
    73.4200       254
    73.4400       234
    73.4600       232
    73.4800       244
    73.5000       260
    73.5200       216
    73.5400       242
    73.5600       232
    73.5800       232
    73.6000       252
    73.6200       252
    73.6400       222
    73.6600       258
    73.6800       232
    73.7000       224
    73.7200       244
    73.7400       254
    73.7600       270
    73.7800       238
    73.8000       278
    73.8200       274
    73.8400       262
    73.8600       264
    73.8800       250
    73.9000       260
    73.9200       258
    73.9400       252
    73.9600       268
    73.9800       278
    74.0000       262
    74.0200       234
    74.0400       296
    74.0600       302
    74.0800       244
    74.1000       220
    74.1200       264
    74.1400       254
    74.1600       260
    74.1800       240
    74.2000       254
    74.2200       274
    74.2400       242
    74.2600       222
    74.2800       238
    74.3000       250
    74.3200       228
    74.3400       232
    74.3600       240
    74.3800       208
    74.4000       212
    74.4200       238
    74.4400       240
    74.4600       220
    74.4800       214
    74.5000       210
    74.5200       186
    74.5400       180
    74.5600       194
    74.5800       174
    74.6000       206
    74.6200       182
    74.6400       186
    74.6600       168
    74.6800       200
    74.7000       184
    74.7200       192
    74.7400       198
    74.7600       154
    74.7800       188
    74.8000       168
    74.8200       200
    74.8400       186
    74.8600       192
    74.8800       164
    74.9000       192
    74.9200       196
    74.9400       208
    74.9600       196
    74.9800       208
    75.0000       226
    75.0200       226
    75.0400       190
    75.0600       232
    75.0800       192
    75.1000       224
    75.1200       240
    75.1400       222
    75.1600       250
    75.1800       232
    75.2000       218
    75.2200       250
    75.2400       260
    75.2600       244
    75.2800       288
    75.3000       272
    75.3200       276
    75.3400       262
    75.3600       282
    75.3800       244
    75.4000       268
    75.4200       248
    75.4400       258
    75.4600       264
    75.4800       232
    75.5000       292
    75.5200       286
    75.5400       256
    75.5600       294
    75.5800       270
    75.6000       290
    75.6200       318
    75.6400       292
    75.6600       342
    75.6800       322
    75.7000       324
    75.7200       320
    75.7400       324
    75.7600       324
    75.7800       318
    75.8000       308
    75.8200       294
    75.8400       288
    75.8600       276
    75.8800       260
    75.9000       274
    75.9200       278
    75.9400       270
    75.9600       276
    75.9800       262
    76.0000       288
    76.0200       266
    76.0400       256
    76.0600       252
    76.0800       272
    76.1000       264
    76.1200       274
    76.1400       220
    76.1600       268
    76.1800       248
    76.2000       238
    76.2200       250
    76.2400       244
    76.2600       276
    76.2800       274
    76.3000       282
    76.3200       308
    76.3400       306
    76.3600       330
    76.3800       304
    76.4000       338
    76.4200       324
    76.4400       380
    76.4600       356
    76.4800       358
    76.5000       418
    76.5200       366
    76.5400       416
    76.5600       430
    76.5800       424
    76.6000       398
    76.6200       418
    76.6400       388
    76.6600       412
    76.6800       380
    76.7000       410
    76.7200       408
    76.7400       394
    76.7600       392
    76.7800       336
    76.8000       366
    76.8200       346
    76.8400       358
    76.8600       318
    76.8800       312
    76.9000       328
    76.9200       284
    76.9400       328
    76.9600       282
    76.9800       278
    77.0000       302
    77.0200       270
    77.0400       274
    77.0600       278
    77.0800       254
    77.1000       296
    77.1200       286
    77.1400       306
    77.1600       286
    77.1800       292
    77.2000       334
    77.2200       314
    77.2400       334
    77.2600       316
    77.2800       330
    77.3000       350
    77.3200       342
    77.3400       350
    77.3600       318
    77.3800       334
    77.4000       360
    77.4200       362
    77.4400       376
    77.4600       412
    77.4800       404
    77.5000       400
    77.5200       418
    77.5400       440
    77.5600       454
    77.5800       456
    77.6000       466
    77.6200       470
    77.6400       468
    77.6600       482
    77.6800       428
    77.7000       480
    77.7200       442
    77.7400       468
    77.7600       406
    77.7800       440
    77.8000       452
    77.8200       442
    77.8400       418
    77.8600       408
    77.8800       422
    77.9000       440
    77.9200       428
    77.9400       394
    77.9600       376
    77.9800       402
    78.0000       366
    78.0200       392
    78.0400       380
    78.0600       374
    78.0800       356
    78.1000       356
    78.1200       352
    78.1400       338
    78.1600       328
    78.1800       322
    78.2000       292
    78.2200       276
    78.2400       310
    78.2600       310
    78.2800       312
    78.3000       280
    78.3200       278
    78.3400       292
    78.3600       294
    78.3800       264
    78.4000       322
    78.4200       322
    78.4400       280
    78.4600       310
    78.4800       296
    78.5000       316
    78.5200       304
    78.5400       344
    78.5600       336
    78.5800       350
    78.6000       358
    78.6200       330
    78.6400       360
    78.6600       416
    78.6800       372
    78.7000       364
    78.7200       336
    78.7400       370
    78.7600       386
    78.7800       342
    78.8000       336
    78.8200       344
    78.8400       370
    78.8600       336
    78.8800       322
    78.9000       278
    78.9200       328
    78.9400       336
    78.9600       282
    78.9800       296
    79.0000       328
    79.0200       288
    79.0400       282
    79.0600       262
    79.0800       296
    79.1000       294
    79.1200       256
    79.1400       276
    79.1600       300
    79.1800       266
    79.2000       232
    79.2200       224
    79.2400       242
    79.2600       262
    79.2800       260
    79.3000       256
    79.3200       244
    79.3400       254
    79.3600       228
    79.3800       238
    79.4000       254
    79.4200       222
    79.4400       220
    79.4600       242
    79.4800       252
    79.5000       228
    79.5200       226
    79.5400       242
    79.5600       268
    79.5800       234
    79.6000       240
    79.6200       268
    79.6400       208
    79.6600       226
    79.6800       238
    79.7000       226
    79.7200       246
    79.7400       236
    79.7600       258
    79.7800       232
    79.8000       196
    79.8200       254
    79.8400       252
    79.8600       222
    79.8800       212
    79.9000       240
    79.9200       202
    79.9400       232
    79.9600       246
    79.9800       232
    80.0000       226
    80.0200       230
    80.0400       266
    80.0600       262
    80.0800       234
    80.1000       214
    80.1200       238
    80.1400       238
    80.1600       248
    80.1800       222
    80.2000       240
    80.2200       260
    80.2400       262
    80.2600       254
    80.2800       246
    80.3000       250
    80.3200       252
    80.3400       242
    80.3600       252
    80.3800       282
    80.4000       270
    80.4200       274
    80.4400       276
    80.4600       306
    80.4800       290
    80.5000       258
    80.5200       312
    80.5400       282
    80.5600       318
    80.5800       296
    80.6000       290
    80.6200       296
    80.6400       290
    80.6600       260
    80.6800       292
    80.7000       290
    80.7200       268
    80.7400       276
    80.7600       288
    80.7800       268
    80.8000       288
    80.8200       286
    80.8400       286
    80.8600       242
    80.8800       256
    80.9000       248
    80.9200       230
    80.9400       238
    80.9600       242
    80.9800       244
    81.0000       208
    81.0200       216
    81.0400       210
    81.0600       216
    81.0800       198
    81.1000       204
    81.1200       206
    81.1400       232
    81.1600       212
    81.1800       222
    81.2000       192
    81.2200       210
    81.2400       208
    81.2600       206
    81.2800       196
    81.3000       196
    81.3200       208
    81.3400       226
    81.3600       212
    81.3800       222
    81.4000       240
    81.4200       206
    81.4400       200
    81.4600       230
    81.4800       228
    81.5000       208
    81.5200       214
    81.5400       214
    81.5600       236
    81.5800       214
    81.6000       256
    81.6200       232
    81.6400       220
    81.6600       250
    81.6800       256
    81.7000       260
    81.7200       266
    81.7400       246
    81.7600       302
    81.7800       302
    81.8000       286
    81.8200       280
    81.8400       296
    81.8600       306
    81.8800       312
    81.9000       316
    81.9200       280
    81.9400       322
    81.9600       308
    81.9800       320
    82.0000       338
    82.0200       302
    82.0400       314
    82.0600       280
    82.0800       330
    82.1000       320
    82.1200       294
    82.1400       342
    82.1600       342
    82.1800       336
    82.2000       308
    82.2200       358
    82.2400       334
    82.2600       344
    82.2800       324
    82.3000       314
    82.3200       358
    82.3400       350
    82.3600       364
    82.3800       338
    82.4000       324
    82.4200       380
    82.4400       342
    82.4600       390
    82.4800       368
    82.5000       382
    82.5200       392
    82.5400       396
    82.5600       438
    82.5800       480
    82.6000       500
    82.6200       524
    82.6400       500
    82.6600       580
    82.6800       552
    82.7000       628
    82.7200       644
    82.7400       732
    82.7600       776
    82.7800       766
    82.8000       828
    82.8200       906
    82.8400       950
    82.8600       884
    82.8800       954
    82.9000       984
    82.9200       926
    82.9400       916
    82.9600       892
    82.9800       808
    83.0000       770
    83.0200       746
    83.0400       720
    83.0600       770
    83.0800       756
    83.1000       682
    83.1200       750
    83.1400       670
    83.1600       654
    83.1800       636
    83.2000       586
    83.2200       546
    83.2400       550
    83.2600       456
    83.2800       464
    83.3000       444
    83.3200       438
    83.3400       446
    83.3600       372
    83.3800       392
    83.4000       366
    83.4200       364
    83.4400       334
    83.4600       328
    83.4800       336
    83.5000       284
    83.5200       286
    83.5400       320
    83.5600       264
    83.5800       278
    83.6000       276
    83.6200       296
    83.6400       274
    83.6600       304
    83.6800       276
    83.7000       262
    83.7200       232
    83.7400       254
    83.7600       308
    83.7800       274
    83.8000       274
    83.8200       254
    83.8400       234
    83.8600       284
    83.8800       244
    83.9000       258
    83.9200       256
    83.9400       296
    83.9600       234
    83.9800       278
    84.0000       276
    84.0200       292
    84.0400       284
    84.0600       298
    84.0800       282
    84.1000       320
    84.1200       312
    84.1400       284
    84.1600       314
    84.1800       292
    84.2000       302
    84.2200       324
    84.2400       300
    84.2600       312
    84.2800       320
    84.3000       298
    84.3200       280
    84.3400       346
    84.3600       354
    84.3800       340
    84.4000       388
    84.4200       354
    84.4400       288
    84.4600       316
    84.4800       360
    84.5000       356
    84.5200       330
    84.5400       372
    84.5600       312
    84.5800       312
    84.6000       316
    84.6200       350
    84.6400       320
    84.6600       344
    84.6800       338
    84.7000       314
    84.7200       310
    84.7400       352
    84.7600       306
    84.7800       294
    84.8000       296
    84.8200       316
    84.8400       304
    84.8600       308
    84.8800       286
    84.9000       282
    84.9200       306
    84.9400       292
    84.9600       266
    84.9800       282
    85.0000       262
    85.0200       266
    85.0400       266
    85.0600       230
    85.0800       282
    85.1000       256
    85.1200       252
    85.1400       282
    85.1600       246
    85.1800       250
    85.2000       240
    85.2200       252
    85.2400       260
    85.2600       226
    85.2800       246
    85.3000       240
    85.3200       288
    85.3400       254
    85.3600       234
    85.3800       228
    85.4000       224
    85.4200       238
    85.4400       268
    85.4600       254
    85.4800       280
    85.5000       230
    85.5200       252
    85.5400       240
    85.5600       250
    85.5800       230
    85.6000       276
    85.6200       270
    85.6400       256
    85.6600       248
    85.6800       292
    85.7000       256
    85.7200       232
    85.7400       278
    85.7600       290
    85.7800       276
    85.8000       286
    85.8200       276
    85.8400       258
    85.8600       238
    85.8800       248
    85.9000       254
    85.9200       296
    85.9400       254
    85.9600       252
    85.9800       258
    86.0000       244
    86.0200       240
    86.0400       262
    86.0600       274
    86.0800       248
    86.1000       250
    86.1200       268
    86.1400       250
    86.1600       260
    86.1800       234
    86.2000       282
    86.2200       244
    86.2400       248
    86.2600       248
    86.2800       226
    86.3000       222
    86.3200       262
    86.3400       212
    86.3600       234
    86.3800       250
    86.4000       246
    86.4200       256
    86.4400       252
    86.4600       246
    86.4800       228
    86.5000       236
    86.5200       264
    86.5400       266
    86.5600       252
    86.5800       292
    86.6000       270
    86.6200       316
    86.6400       276
    86.6600       272
    86.6800       316
    86.7000       332
    86.7200       354
    86.7400       318
    86.7600       390
    86.7800       374
    86.8000       354
    86.8200       386
    86.8400       376
    86.8600       360
    86.8800       362
    86.9000       388
    86.9200       390
    86.9400       394
    86.9600       372
    86.9800       362
    87.0000       350
    87.0200       386
    87.0400       408
    87.0600       384
    87.0800       330
    87.1000       402
    87.1200       362
    87.1400       338
    87.1600       332
    87.1800       338
    87.2000       320
    87.2200       310
    87.2400       306
    87.2600       382
    87.2800       310
    87.3000       352
    87.3200       336
    87.3400       310
    87.3600       292
    87.3800       348
    87.4000       326
    87.4200       334
    87.4400       316
    87.4600       322
    87.4800       364
    87.5000       322
    87.5200       374
    87.5400       356
    87.5600       392
    87.5800       406
    87.6000       398
    87.6200       432
    87.6400       434
    87.6600       436
    87.6800       442
    87.7000       434
    87.7200       418
    87.7400       448
    87.7600       448
    87.7800       422
    87.8000       396
    87.8200       410
    87.8400       400
    87.8600       404
    87.8800       410
    87.9000       382
    87.9200       384
    87.9400       362
    87.9600       414
    87.9800       388
    88.0000       350
    88.0200       386
    88.0400       388
    88.0600       378
    88.0800       354
    88.1000       336
    88.1200       372
    88.1400       370
    88.1600       390
    88.1800       406
    88.2000       382
    88.2200       396
    88.2400       360
    88.2600       396
    88.2800       384
    88.3000       398
    88.3200       434
    88.3400       432
    88.3600       426
    88.3800       428
    88.4000       428
    88.4200       442
    88.4400       424
    88.4600       472
    88.4800       410
    88.5000       412
    88.5200       408
    88.5400       390
    88.5600       392
    88.5800       398
    88.6000       350
    88.6200       412
    88.6400       380
    88.6600       378
    88.6800       366
    88.7000       344
    88.7200       326
    88.7400       334
    88.7600       348
    88.7800       316
    88.8000       280
    88.8200       326
    88.8400       296
    88.8600       276
    88.8800       268
    88.9000       280
    88.9200       254
    88.9400       252
    88.9600       248
    88.9800       284
    89.0000       248
    89.0200       244
    89.0400       224
    89.0600       242
    89.0800       252
    89.1000       206
    89.1200       214
    89.1400       210
    89.1600       194
    89.1800       222
    89.2000       204
    89.2200       216
    89.2400       214
    89.2600       180
    89.2800       222
    89.3000       212
    89.3200       218
    89.3400       244
    89.3600       246
    89.3800       212
    89.4000       214
    89.4200       240
    89.4400       204
    89.4600       214
    89.4800       232
    89.5000       260
    89.5200       242
    89.5400       228
    89.5600       234
    89.5800       254
    89.6000       244
    89.6200       260
    89.6400       262
    89.6600       252
    89.6800       248
    89.7000       282
    89.7200       254
    89.7400       272
    89.7600       264
    89.7800       292
    89.8000       264
    89.8200       246
    89.8400       272
    89.8600       282
    89.8800       256
    89.9000       240
    89.9200       246
    89.9400       252
    89.9600       256
    89.9800       234
    90.0000       262
