    10.0000       404
    10.0200       358
    10.0400       378
    10.0600       356
    10.0800       354
    10.1000       342
    10.1200       378
    10.1400       366
    10.1600       372
    10.1800       348
    10.2000       370
    10.2200       368
    10.2400       352
    10.2600       356
    10.2800       346
    10.3000       374
    10.3200       376
    10.3400       338
    10.3600       348
    10.3800       374
    10.4000       392
    10.4200       382
    10.4400       372
    10.4600       356
    10.4800       378
    10.5000       340
    10.5200       386
    10.5400       386
    10.5600       310
    10.5800       352
    10.6000       324
    10.6200       312
    10.6400       316
    10.6600       352
    10.6800       370
    10.7000       342
    10.7200       364
    10.7400       374
    10.7600       362
    10.7800       348
    10.8000       344
    10.8200       342
    10.8400       352
    10.8600       340
    10.8800       362
    10.9000       346
    10.9200       360
    10.9400       338
    10.9600       334
    10.9800       352
    11.0000       358
    11.0200       354
    11.0400       320
    11.0600       360
    11.0800       344
    11.1000       354
    11.1200       340
    11.1400       358
    11.1600       370
    11.1800       330
    11.2000       336
    11.2200       368
    11.2400       326
    11.2600       352
    11.2800       358
    11.3000       318
    11.3200       346
    11.3400       370
    11.3600       338
    11.3800       352
    11.4000       338
    11.4200       320
    11.4400       308
    11.4600       332
    11.4800       318
    11.5000       332
    11.5200       352
    11.5400       314
    11.5600       328
    11.5800       338
    11.6000       344
    11.6200       346
    11.6400       328
    11.6600       348
    11.6800       360
    11.7000       374
    11.7200       344
    11.7400       360
    11.7600       348
    11.7800       364
    11.8000       348
    11.8200       354
    11.8400       406
    11.8600       338
    11.8800       352
    11.9000       358
    11.9200       416
    11.9400       394
    11.9600       352
    11.9800       438
    12.0000       428
    12.0200       448
    12.0400       452
    12.0600       548
    12.0800       526
    12.1000       540
    12.1200       576
    12.1400       630
    12.1600       670
    12.1800       686
    12.2000       712
    12.2200       700
    12.2400       602
    12.2600       572
    12.2800       496
    12.3000       446
    12.3200       394
    12.3400       382
    12.3600       370
    12.3800       306
    12.4000       364
    12.4200       314
    12.4400       300
    12.4600       352
    12.4800       358
    12.5000       320
    12.5200       302
    12.5400       304
    12.5600       302
    12.5800       278
    12.6000       260
    12.6200       322
    12.6400       320
    12.6600       318
    12.6800       320
    12.7000       296
    12.7200       306
    12.7400       294
    12.7600       302
    12.7800       298
    12.8000       298
    12.8200       294
    12.8400       294
    12.8600       278
    12.8800       280
    12.9000       296
    12.9200       290
    12.9400       290
    12.9600       312
    12.9800       290
    13.0000       296
    13.0200       324
    13.0400       272
    13.0600       336
    13.0800       330
    13.1000       300
    13.1200       332
    13.1400       274
    13.1600       256
    13.1800       278
    13.2000       278
    13.2200       282
    13.2400       312
    13.2600       276
    13.2800       298
    13.3000       298
    13.3200       250
    13.3400       268
    13.3600       284
    13.3800       280
    13.4000       274
    13.4200       290
    13.4400       298
    13.4600       258
    13.4800       264
    13.5000       268
    13.5200       336
    13.5400       284
    13.5600       258
    13.5800       270
    13.6000       256
    13.6200       254
    13.6400       262
    13.6600       270
    13.6800       284
    13.7000       268
    13.7200       272
    13.7400       276
    13.7600       288
    13.7800       298
    13.8000       278
    13.8200       284
    13.8400       244
    13.8600       284
    13.8800       266
    13.9000       284
    13.9200       306
    13.9400       264
    13.9600       308
    13.9800       284
    14.0000       306
    14.0200       276
    14.0400       312
    14.0600       240
    14.0800       270
    14.1000       288
    14.1200       262
    14.1400       290
    14.1600       274
    14.1800       284
    14.2000       282
    14.2200       288
    14.2400       298
    14.2600       284
    14.2800       256
    14.3000       276
    14.3200       272
    14.3400       278
    14.3600       314
    14.3800       298
    14.4000       252
    14.4200       280
    14.4400       330
    14.4600       286
    14.4800       288
    14.5000       284
    14.5200       278
    14.5400       304
    14.5600       282
    14.5800       280
    14.6000       308
    14.6200       316
    14.6400       318
    14.6600       310
    14.6800       366
    14.7000       342
    14.7200       354
    14.7400       370
    14.7600       414
    14.7800       386
    14.8000       428
    14.8200       430
    14.8400       496
    14.8600       494
    14.8800       510
    14.9000       608
    14.9200       594
    14.9400       712
    14.9600       706
    14.9800       766
    15.0000       876
    15.0200       896
    15.0400      1078
    15.0600      1160
    15.0800      1150
    15.1000      1374
    15.1200      1504
    15.1400      1660
    15.1600      1858
    15.1800      1918
    15.2000      2016
    15.2200      1850
    15.2400      1748
    15.2600      1412
    15.2800      1082
    15.3000       894
    15.3200       674
    15.3400       588
    15.3600       526
    15.3800       474
    15.4000       404
    15.4200       398
    15.4400       356
    15.4600       346
    15.4800       332
    15.5000       376
    15.5200       332
    15.5400       354
    15.5600       320
    15.5800       334
    15.6000       300
    15.6200       268
    15.6400       324
    15.6600       284
    15.6800       282
    15.7000       302
    15.7200       280
    15.7400       292
    15.7600       314
    15.7800       294
    15.8000       280
    15.8200       316
    15.8400       280
    15.8600       282
    15.8800       302
    15.9000       294
    15.9200       284
    15.9400       298
    15.9600       304
    15.9800       336
    16.0000       318
    16.0200       302
    16.0400       308
    16.0600       312
    16.0800       310
    16.1000       370
    16.1200       328
    16.1400       354
    16.1600       350
    16.1800       372
    16.2000       386
    16.2200       374
    16.2400       430
    16.2600       418
    16.2800       402
    16.3000       426
    16.3200       418
    16.3400       392
    16.3600       388
    16.3800       366
    16.4000       404
    16.4200       370
    16.4400       350
    16.4600       352
    16.4800       382
    16.5000       338
    16.5200       354
    16.5400       408
    16.5600       372
    16.5800       370
    16.6000       416
    16.6200       438
    16.6400       436
    16.6600       456
    16.6800       478
    16.7000       512
    16.7200       566
    16.7400       588
    16.7600       638
    16.7800       748
    16.8000       746
    16.8200       784
    16.8400       882
    16.8600      1024
    16.8800      1140
    16.9000      1292
    16.9200      1478
    16.9400      1718
    16.9600      1902
    16.9800      2246
    17.0000      2548
    17.0200      2978
    17.0400      3178
    17.0600      3192
    17.0800      3170
    17.1000      2852
    17.1200      2344
    17.1400      1928
    17.1600      1590
    17.1800      1322
    17.2000      1128
    17.2200      1116
    17.2400       970
    17.2600       992
    17.2800       912
    17.3000       850
    17.3200       794
    17.3400       730
    17.3600       718
    17.3800       656
    17.4000       612
    17.4200       576
    17.4400       564
    17.4600       530
    17.4800       508
    17.5000       510
    17.5200       528
    17.5400       560
    17.5600       516
    17.5800       504
    17.6000       524
    17.6200       538
    17.6400       622
    17.6600       642
    17.6800       654
    17.7000       762
    17.7200       776
    17.7400       868
    17.7600       894
    17.7800      1028
    17.8000      1044
    17.8200       982
    17.8400      1040
    17.8600       894
    17.8800       804
    17.9000       626
    17.9200       538
    17.9400       436
    17.9600       434
    17.9800       338
    18.0000       348
    18.0200       332
    18.0400       330
    18.0600       308
    18.0800       292
    18.1000       280
    18.1200       304
    18.1400       274
    18.1600       272
    18.1800       288
    18.2000       268
    18.2200       258
    18.2400       282
    18.2600       292
    18.2800       230
    18.3000       250
    18.3200       240
    18.3400       260
    18.3600       262
    18.3800       246
    18.4000       256
    18.4200       254
    18.4400       246
    18.4600       250
    18.4800       264
    18.5000       216
    18.5200       256
    18.5400       264
    18.5600       236
    18.5800       240
    18.6000       248
    18.6200       258
    18.6400       260
    18.6600       250
    18.6800       256
    18.7000       242
    18.7200       266
    18.7400       264
    18.7600       272
    18.7800       248
    18.8000       260
    18.8200       302
    18.8400       278
    18.8600       274
    18.8800       298
    18.9000       312
    18.9200       296
    18.9400       320
    18.9600       314
    18.9800       278
    19.0000       304
    19.0200       306
    19.0400       274
    19.0600       318
    19.0800       324
    19.1000       320
    19.1200       330
    19.1400       320
    19.1600       340
    19.1800       348
    19.2000       380
    19.2200       386
    19.2400       422
    19.2600       466
    19.2800       486
    19.3000       540
    19.3200       644
    19.3400       592
    19.3600       714
    19.3800       732
    19.4000       868
    19.4200       996
    19.4400      1056
    19.4600      1244
    19.4800      1458
    19.5000      1654
    19.5200      1854
    19.5400      1834
    19.5600      1870
    19.5800      1716
    19.6000      1496
    19.6200      1360
    19.6400      1116
    19.6600       888
    19.6800       742
    19.7000       674
    19.7200       630
    19.7400       700
    19.7600       708
    19.7800       676
    19.8000       730
    19.8200       758
    19.8400       814
    19.8600       930
    19.8800       998
    19.9000      1062
    19.9200      1216
    19.9400      1318
    19.9600      1384
    19.9800      1498
    20.0000      1448
    20.0200      1260
    20.0400      1204
    20.0600       988
    20.0800       898
    20.1000       710
    20.1200       550
    20.1400       482
    20.1600       404
    20.1800       390
    20.2000       352
    20.2200       324
    20.2400       312
    20.2600       344
    20.2800       266
    20.3000       306
    20.3200       306
    20.3400       324
    20.3600       300
    20.3800       282
    20.4000       286
    20.4200       256
    20.4400       276
    20.4600       276
    20.4800       270
    20.5000       236
    20.5200       288
    20.5400       270
    20.5600       274
    20.5800       260
    20.6000       284
    20.6200       264
    20.6400       250
    20.6600       258
    20.6800       254
    20.7000       242
    20.7200       276
    20.7400       300
    20.7600       342
    20.7800       300
    20.8000       318
    20.8200       326
    20.8400       374
    20.8600       366
    20.8800       384
    20.9000       400
    20.9200       462
    20.9400       452
    20.9600       516
    20.9800       554
    21.0000       562
    21.0200       752
    21.0400       776
    21.0600       882
    21.0800       962
    21.1000      1128
    21.1200      1274
    21.1400      1476
    21.1600      1654
    21.1800      1792
    21.2000      1948
    21.2200      1972
    21.2400      1894
    21.2600      1700
    21.2800      1544
    21.3000      1256
    21.3200      1118
    21.3400       922
    21.3600       706
    21.3800       638
    21.4000       578
    21.4200       464
    21.4400       426
    21.4600       408
    21.4800       376
    21.5000       356
    21.5200       332
    21.5400       304
    21.5600       306
    21.5800       290
    21.6000       268
    21.6200       264
    21.6400       296
    21.6600       248
    21.6800       256
    21.7000       260
    21.7200       264
    21.7400       242
    21.7600       260
    21.7800       250
    21.8000       244
    21.8200       232
    21.8400       266
    21.8600       294
    21.8800       242
    21.9000       262
    21.9200       224
    21.9400       220
    21.9600       228
    21.9800       262
    22.0000       244
    22.0200       238
    22.0400       280
    22.0600       262
    22.0800       242
    22.1000       226
    22.1200       238
    22.1400       240
    22.1600       242
    22.1800       250
    22.2000       236
    22.2200       248
    22.2400       236
    22.2600       246
    22.2800       230
    22.3000       286
    22.3200       274
    22.3400       268
    22.3600       262
    22.3800       290
    22.4000       286
    22.4200       324
    22.4400       332
    22.4600       352
    22.4800       348
    22.5000       346
    22.5200       406
    22.5400       448
    22.5600       448
    22.5800       512
    22.6000       530
    22.6200       560
    22.6400       660
    22.6600       724
    22.6800       898
    22.7000       904
    22.7200      1088
    22.7400      1292
    22.7600      1490
    22.7800      1784
    22.8000      2112
    22.8200      2228
    22.8400      2548
    22.8600      2552
    22.8800      2426
    22.9000      2344
    22.9200      1992
    22.9400      1600
    22.9600      1456
    22.9800      1166
    23.0000       946
    23.0200       740
    23.0400       620
    23.0600       554
    23.0800       486
    23.1000       474
    23.1200       434
    23.1400       372
    23.1600       364
    23.1800       382
    23.2000       384
    23.2200       314
    23.2400       350
    23.2600       332
    23.2800       286
    23.3000       308
    23.3200       292
    23.3400       282
    23.3600       274
    23.3800       296
    23.4000       242
    23.4200       266
    23.4400       290
    23.4600       286
    23.4800       262
    23.5000       294
    23.5200       290
    23.5400       266
    23.5600       262
    23.5800       260
    23.6000       276
    23.6200       262
    23.6400       272
    23.6600       268
    23.6800       258
    23.7000       274
    23.7200       262
    23.7400       254
    23.7600       246
    23.7800       258
    23.8000       286
    23.8200       252
    23.8400       266
    23.8600       258
    23.8800       300
    23.9000       252
    23.9200       276
    23.9400       266
    23.9600       308
    23.9800       262
    24.0000       276
    24.0200       292
    24.0400       268
    24.0600       300
    24.0800       282
    24.1000       290
    24.1200       274
    24.1400       308
    24.1600       298
    24.1800       332
    24.2000       340
    24.2200       360
    24.2400       380
    24.2600       398
    24.2800       410
    24.3000       422
    24.3200       464
    24.3400       548
    24.3600       578
    24.3800       616
    24.4000       658
    24.4200       772
    24.4400       824
    24.4600       890
    24.4800       962
    24.5000      1076
    24.5200      1198
    24.5400      1262
    24.5600      1182
    24.5800      1302
    24.6000      1220
    24.6200      1094
    24.6400      1068
    24.6600      1000
    24.6800       994
    24.7000       878
    24.7200       870
    24.7400       872
    24.7600       802
    24.7800       824
    24.8000       804
    24.8200       854
    24.8400       702
    24.8600       674
    24.8800       702
    24.9000       578
    24.9200       564
    24.9400       586
    24.9600       574
    24.9800       578
    25.0000       602
    25.0200       628
    25.0400       612
    25.0600       684
    25.0800       646
    25.1000       688
    25.1200       794
    25.1400       844
    25.1600       902
    25.1800      1082
    25.2000      1112
    25.2200      1256
    25.2400      1340
    25.2600      1544
    25.2800      1660
    25.3000      1742
    25.3200      1642
    25.3400      1570
    25.3600      1460
    25.3800      1260
    25.4000      1054
    25.4200       984
    25.4400       952
    25.4600       790
    25.4800       716
    25.5000       758
    25.5200       762
    25.5400       768
    25.5600       820
    25.5800       850
    25.6000       848
    25.6200       846
    25.6400       724
    25.6600       746
    25.6800       648
    25.7000       604
    25.7200       536
    25.7400       540
    25.7600       474
    25.7800       442
    25.8000       492
    25.8200       398
    25.8400       402
    25.8600       348
    25.8800       402
    25.9000       404
    25.9200       392
    25.9400       362
    25.9600       386
    25.9800       348
    26.0000       354
    26.0200       360
    26.0400       374
    26.0600       342
    26.0800       326
    26.1000       328
    26.1200       316
    26.1400       322
    26.1600       316
    26.1800       316
    26.2000       304
    26.2200       326
    26.2400       290
    26.2600       336
    26.2800       322
    26.3000       316
    26.3200       334
    26.3400       310
    26.3600       298
    26.3800       286
    26.4000       276
    26.4200       290
    26.4400       280
    26.4600       296
    26.4800       324
    26.5000       302
    26.5200       284
    26.5400       314
    26.5600       328
    26.5800       282
    26.6000       280
    26.6200       320
    26.6400       268
    26.6600       294
    26.6800       290
    26.7000       340
    26.7200       278
    26.7400       294
    26.7600       288
    26.7800       270
    26.8000       298
    26.8200       316
    26.8400       276
    26.8600       290
    26.8800       294
    26.9000       274
    26.9200       278
    26.9400       276
    26.9600       272
    26.9800       304
    27.0000       276
    27.0200       292
    27.0400       300
    27.0600       318
    27.0800       324
    27.1000       318
    27.1200       338
    27.1400       350
    27.1600       332
    27.1800       406
    27.2000       376
    27.2200       456
    27.2400       432
    27.2600       484
    27.2800       518
    27.3000       568
    27.3200       622
    27.3400       696
    27.3600       772
    27.3800       868
    27.4000       916
    27.4200      1032
    27.4400      1074
    27.4600      1218
    27.4800      1242
    27.5000      1226
    27.5200      1220
    27.5400      1156
    27.5600      1150
    27.5800      1048
    27.6000       922
    27.6200       810
    27.6400       774
    27.6600       612
    27.6800       636
    27.7000       512
    27.7200       454
    27.7400       442
    27.7600       436
    27.7800       378
    27.8000       358
    27.8200       350
    27.8400       320
    27.8600       340
    27.8800       386
    27.9000       308
    27.9200       314
    27.9400       368
    27.9600       332
    27.9800       334
    28.0000       302
    28.0200       298
    28.0400       284
    28.0600       270
    28.0800       270
    28.1000       286
    28.1200       310
    28.1400       322
    28.1600       318
    28.1800       318
    28.2000       284
    28.2200       280
    28.2400       332
    28.2600       328
    28.2800       336
    28.3000       356
    28.3200       348
    28.3400       334
    28.3600       352
    28.3800       362
    28.4000       344
    28.4200       362
    28.4400       356
    28.4600       350
    28.4800       348
    28.5000       310
    28.5200       312
    28.5400       396
    28.5600       370
    28.5800       378
    28.6000       368
    28.6200       430
    28.6400       436
    28.6600       464
    28.6800       490
    28.7000       544
    28.7200       492
    28.7400       526
    28.7600       522
    28.7800       544
    28.8000       466
    28.8200       456
    28.8400       400
    28.8600       418
    28.8800       446
    28.9000       348
    28.9200       378
    28.9400       360
    28.9600       318
    28.9800       330
    29.0000       320
    29.0200       328
    29.0400       338
    29.0600       334
    29.0800       350
    29.1000       374
    29.1200       356
    29.1400       364
    29.1600       362
    29.1800       348
    29.2000       384
    29.2200       410
    29.2400       356
    29.2600       426
    29.2800       462
    29.3000       468
    29.3200       460
    29.3400       500
    29.3600       526
    29.3800       540
    29.4000       614
    29.4200       644
    29.4400       670
    29.4600       744
    29.4800       780
    29.5000       972
    29.5200       946
    29.5400      1054
    29.5600      1162
    29.5800      1284
    29.6000      1442
    29.6200      1532
    29.6400      1606
    29.6600      1574
    29.6800      1596
    29.7000      1478
    29.7200      1346
    29.7400      1234
    29.7600      1136
    29.7800       982
    29.8000       892
    29.8200       820
    29.8400       742
    29.8600       690
    29.8800       764
    29.9000       762
    29.9200       796
    29.9400       768
    29.9600       834
    29.9800       876
    30.0000      1022
    30.0200      1090
    30.0400      1152
    30.0600      1338
    30.0800      1472
    30.1000      1604
    30.1200      1894
    30.1400      1938
    30.1600      2118
    30.1800      2256
    30.2000      2302
    30.2200      2440
    30.2400      2400
    30.2600      2310
    30.2800      2158
    30.3000      2134
    30.3200      2094
    30.3400      2108
    30.3600      2130
    30.3800      2164
    30.4000      2252
    30.4200      2366
    30.4400      2658
    30.4600      2850
    30.4800      3150
    30.5000      3520
    30.5200      4016
    30.5400      4568
    30.5600      5154
    30.5800      5870
    30.6000      6706
    30.6200      7484
    30.6400      8470
    30.6600      9076
    30.6800      9186
    30.7000      9138
    30.7200      8456
    30.7400      7792
    30.7600      6724
    30.7800      5812
    30.8000      4852
    30.8200      4012
    30.8400      3240
    30.8600      2718
    30.8800      2276
    30.9000      1932
    30.9200      1748
    30.9400      1544
    30.9600      1420
    30.9800      1304
    31.0000      1296
    31.0200      1164
    31.0400      1038
    31.0600      1052
    31.0800       964
    31.1000       956
    31.1200       918
    31.1400       824
    31.1600       838
    31.1800       760
    31.2000       750
    31.2200       714
    31.2400       628
    31.2600       666
    31.2800       652
    31.3000       610
    31.3200       598
    31.3400       518
    31.3600       486
    31.3800       470
    31.4000       456
    31.4200       454
    31.4400       422
    31.4600       462
    31.4800       438
    31.5000       418
    31.5200       400
    31.5400       394
    31.5600       430
    31.5800       442
    31.6000       394
    31.6200       416
    31.6400       396
    31.6600       440
    31.6800       478
    31.7000       430
    31.7200       508
    31.7400       562
    31.7600       514
    31.7800       568
    31.8000       608
    31.8200       654
    31.8400       660
    31.8600       754
    31.8800       832
    31.9000       922
    31.9200      1028
    31.9400      1138
    31.9600      1308
    31.9800      1384
    32.0000      1434
    32.0200      1484
    32.0400      1390
    32.0600      1368
    32.0800      1172
    32.1000      1158
    32.1200      1088
    32.1400       992
    32.1600       916
    32.1800       880
    32.2000       904
    32.2200       880
    32.2400       914
    32.2600       880
    32.2800      1034
    32.3000      1072
    32.3200      1202
    32.3400      1390
    32.3600      1468
    32.3800      1750
    32.4000      2038
    32.4200      2254
    32.4400      2600
    32.4600      2972
    32.4800      3332
    32.5000      3804
    32.5200      4038
    32.5400      4326
    32.5600      4408
    32.5800      4396
    32.6000      4170
    32.6200      3876
    32.6400      3532
    32.6600      3172
    32.6800      2780
    32.7000      2466
    32.7200      2010
    32.7400      1716
    32.7600      1552
    32.7800      1350
    32.8000      1224
    32.8200      1114
    32.8400      1006
    32.8600       930
    32.8800       922
    32.9000       844
    32.9200       910
    32.9400       844
    32.9600       926
    32.9800       884
    33.0000       878
    33.0200      1006
    33.0400       980
    33.0600       988
    33.0800      1040
    33.1000      1084
    33.1200       984
    33.1400       952
    33.1600       858
    33.1800       806
    33.2000       740
    33.2200       680
    33.2400       618
    33.2600       542
    33.2800       512
    33.3000       482
    33.3200       422
    33.3400       424
    33.3600       370
    33.3800       338
    33.4000       362
    33.4200       350
    33.4400       334
    33.4600       324
    33.4800       284
    33.5000       316
    33.5200       304
    33.5400       302
    33.5600       288
    33.5800       300
    33.6000       290
    33.6200       282
    33.6400       278
    33.6600       266
    33.6800       242
    33.7000       290
    33.7200       270
    33.7400       274
    33.7600       264
    33.7800       238
    33.8000       284
    33.8200       244
    33.8400       252
    33.8600       238
    33.8800       264
    33.9000       250
    33.9200       230
    33.9400       236
    33.9600       270
    33.9800       280
    34.0000       302
    34.0200       286
    34.0400       264
    34.0600       296
    34.0800       294
    34.1000       280
    34.1200       310
    34.1400       282
    34.1600       306
    34.1800       304
    34.2000       312
    34.2200       282
    34.2400       356
    34.2600       320
    34.2800       340
    34.3000       338
    34.3200       378
    34.3400       424
    34.3600       462
    34.3800       466
    34.4000       572
    34.4200       592
    34.4400       668
    34.4600       748
    34.4800       768
    34.5000       802
    34.5200       850
    34.5400       836
    34.5600       820
    34.5800       784
    34.6000       692
    34.6200       664
    34.6400       634
    34.6600       522
    34.6800       514
    34.7000       458
    34.7200       406
    34.7400       384
    34.7600       438
    34.7800       382
    34.8000       402
    34.8200       374
    34.8400       382
    34.8600       376
    34.8800       380
    34.9000       386
    34.9200       356
    34.9400       338
    34.9600       338
    34.9800       320
    35.0000       332
    35.0200       320
    35.0400       310
    35.0600       350
    35.0800       290
    35.1000       338
    35.1200       322
    35.1400       332
    35.1600       278
    35.1800       300
    35.2000       286
    35.2200       294
    35.2400       300
    35.2600       270
    35.2800       276
    35.3000       290
    35.3200       294
    35.3400       288
    35.3600       284
    35.3800       280
    35.4000       272
    35.4200       282
    35.4400       292
    35.4600       290
    35.4800       296
    35.5000       318
    35.5200       280
    35.5400       314
    35.5600       298
    35.5800       318
    35.6000       318
    35.6200       320
    35.6400       320
    35.6600       368
    35.6800       374
    35.7000       346
    35.7200       348
    35.7400       360
    35.7600       360
    35.7800       382
    35.8000       440
    35.8200       416
    35.8400       452
    35.8600       480
    35.8800       520
    35.9000       542
    35.9200       596
    35.9400       656
    35.9600       642
    35.9800       742
    36.0000       768
    36.0200       850
    36.0400       972
    36.0600       984
    36.0800      1078
    36.1000      1076
    36.1200      1062
    36.1400      1016
    36.1600      1012
    36.1800       934
    36.2000       874
    36.2200       804
    36.2400       742
    36.2600       636
    36.2800       664
    36.3000       568
    36.3200       546
    36.3400       468
    36.3600       454
    36.3800       434
    36.4000       432
    36.4200       400
    36.4400       412
    36.4600       380
    36.4800       372
    36.5000       386
    36.5200       418
    36.5400       424
    36.5600       450
    36.5800       428
    36.6000       450
    36.6200       468
    36.6400       462
    36.6600       478
    36.6800       596
    36.7000       634
    36.7200       630
    36.7400       676
    36.7600       788
    36.7800       872
    36.8000       924
    36.8200      1050
    36.8400      1108
    36.8600      1146
    36.8800      1208
    36.9000      1162
    36.9200      1230
    36.9400      1202
    36.9600      1094
    36.9800      1074
    37.0000      1040
    37.0200      1000
    37.0400       960
    37.0600       908
    37.0800       906
    37.1000       830
    37.1200       862
    37.1400       846
    37.1600       896
    37.1800       870
    37.2000       814
    37.2200       820
    37.2400       846
    37.2600       744
    37.2800       740
    37.3000       736
    37.3200       662
    37.3400       610
    37.3600       618
    37.3800       572
    37.4000       524
    37.4200       516
    37.4400       544
    37.4600       500
    37.4800       492
    37.5000       524
    37.5200       490
    37.5400       472
    37.5600       466
    37.5800       526
    37.6000       476
    37.6200       504
    37.6400       512
    37.6600       484
    37.6800       506
    37.7000       546
    37.7200       584
    37.7400       572
    37.7600       614
    37.7800       608
    37.8000       642
    37.8200       690
    37.8400       766
    37.8600       764
    37.8800       844
    37.9000       898
    37.9200       982
    37.9400      1070
    37.9600      1138
    37.9800      1238
    38.0000      1370
    38.0200      1398
    38.0400      1422
    38.0600      1418
    38.0800      1456
    38.1000      1382
    38.1200      1346
    38.1400      1310
    38.1600      1256
    38.1800      1280
    38.2000      1278
    38.2200      1310
    38.2400      1330
    38.2600      1454
    38.2800      1406
    38.3000      1572
    38.3200      1752
    38.3400      1980
    38.3600      2224
    38.3800      2452
    38.4000      2624
    38.4200      3030
    38.4400      3254
    38.4600      3578
    38.4800      3856
    38.5000      3978
    38.5200      4332
    38.5400      4708
    38.5600      5086
    38.5800      5426
    38.6000      5614
    38.6200      5674
    38.6400      5912
    38.6600      6096
    38.6800      6008
    38.7000      5574
    38.7200      5360
    38.7400      4990
    38.7600      4636
    38.7800      4208
    38.8000      3742
    38.8200      3364
    38.8400      2874
    38.8600      2590
    38.8800      2182
    38.9000      1982
    38.9200      1806
    38.9400      1604
    38.9600      1500
    38.9800      1496
    39.0000      1370
    39.0200      1268
    39.0400      1394
    39.0600      1326
    39.0800      1398
    39.1000      1414
    39.1200      1354
    39.1400      1268
    39.1600      1394
    39.1800      1300
    39.2000      1364
    39.2200      1382
    39.2400      1354
    39.2600      1392
    39.2800      1456
    39.3000      1462
    39.3200      1482
    39.3400      1442
    39.3600      1490
    39.3800      1490
    39.4000      1418
    39.4200      1358
    39.4400      1276
    39.4600      1270
    39.4800      1238
    39.5000      1164
    39.5200      1268
    39.5400      1186
    39.5600      1080
    39.5800      1242
    39.6000      1220
    39.6200      1394
    39.6400      1454
    39.6600      1514
    39.6800      1616
    39.7000      1542
    39.7200      1528
    39.7400      1372
    39.7600      1434
    39.7800      1284
    39.8000      1182
    39.8200      1180
    39.8400      1044
    39.8600       968
    39.8800       884
    39.9000       882
    39.9200       826
    39.9400       780
    39.9600       746
    39.9800       764
    40.0000       802
    40.0200       802
    40.0400       792
    40.0600       852
    40.0800       866
    40.1000       992
    40.1200       934
    40.1400       948
    40.1600      1018
    40.1800       992
    40.2000      1066
    40.2200      1130
    40.2400      1064
    40.2600      1038
    40.2800      1006
    40.3000      1040
    40.3200      1040
    40.3400      1056
    40.3600      1080
    40.3800      1172
    40.4000      1230
    40.4200      1354
    40.4400      1342
    40.4600      1482
    40.4800      1544
    40.5000      1614
    40.5200      1698
    40.5400      1724
    40.5600      1678
    40.5800      1704
    40.6000      1730
    40.6200      1614
    40.6400      1430
    40.6600      1356
    40.6800      1296
    40.7000      1168
    40.7200      1138
    40.7400      1000
    40.7600       914
    40.7800       878
    40.8000       868
    40.8200       784
    40.8400       780
    40.8600       742
    40.8800       652
    40.9000       658
    40.9200       696
    40.9400       666
    40.9600       662
    40.9800       676
    41.0000       704
    41.0200       728
    41.0400       796
    41.0600       810
    41.0800       898
    41.1000       914
    41.1200       980
    41.1400      1106
    41.1600      1176
    41.1800      1318
    41.2000      1470
    41.2200      1506
    41.2400      1614
    41.2600      1768
    41.2800      1828
    41.3000      1930
    41.3200      1944
    41.3400      2024
    41.3600      2130
    41.3800      2188
    41.4000      2334
    41.4200      2308
    41.4400      2368
    41.4600      2396
    41.4800      2410
    41.5000      2272
    41.5200      2242
    41.5400      2054
    41.5600      1994
    41.5800      1866
    41.6000      1778
    41.6200      1638
    41.6400      1404
    41.6600      1360
    41.6800      1304
    41.7000      1176
    41.7200      1124
    41.7400      1104
    41.7600      1082
    41.7800      1122
    41.8000      1110
    41.8200      1234
    41.8400      1228
    41.8600      1190
    41.8800      1240
    41.9000      1216
    41.9200      1176
    41.9400      1226
    41.9600      1062
    41.9800      1024
    42.0000       978
    42.0200       936
    42.0400       900
    42.0600       760
    42.0800       746
    42.1000       674
    42.1200       638
    42.1400       562
    42.1600       584
    42.1800       560
    42.2000       478
    42.2200       480
    42.2400       488
    42.2600       488
    42.2800       468
    42.3000       450
    42.3200       398
    42.3400       436
    42.3600       450
    42.3800       442
    42.4000       426
    42.4200       404
    42.4400       436
    42.4600       406
    42.4800       412
    42.5000       404
    42.5200       354
    42.5400       402
    42.5600       388
    42.5800       390
    42.6000       396
    42.6200       402
    42.6400       380
    42.6600       388
    42.6800       390
    42.7000       416
    42.7200       408
    42.7400       394
    42.7600       412
    42.7800       394
    42.8000       406
    42.8200       388
    42.8400       468
    42.8600       452
    42.8800       436
    42.9000       436
    42.9200       486
    42.9400       492
    42.9600       502
    42.9800       530
    43.0000       582
    43.0200       644
    43.0400       668
    43.0600       748
    43.0800       820
    43.1000       882
    43.1200       968
    43.1400      1024
    43.1600      1148
    43.1800      1106
    43.2000      1262
    43.2200      1090
    43.2400      1208
    43.2600      1166
    43.2800      1082
    43.3000       986
    43.3200       946
    43.3400       886
    43.3600       790
    43.3800       762
    43.4000       684
    43.4200       658
    43.4400       624
    43.4600       604
    43.4800       554
    43.5000       558
    43.5200       480
    43.5400       474
    43.5600       510
    43.5800       454
    43.6000       494
    43.6200       438
    43.6400       484
    43.6600       502
    43.6800       478
    43.7000       470
    43.7200       502
    43.7400       520
    43.7600       496
    43.7800       510
    43.8000       574
    43.8200       558
    43.8400       556
    43.8600       538
    43.8800       544
    43.9000       526
    43.9200       528
    43.9400       504
    43.9600       528
    43.9800       522
    44.0000       532
    44.0200       458
    44.0400       468
    44.0600       440
    44.0800       468
    44.1000       444
    44.1200       452
    44.1400       440
    44.1600       458
    44.1800       498
    44.2000       504
    44.2200       500
    44.2400       540
    44.2600       538
    44.2800       550
    44.3000       524
    44.3200       532
    44.3400       534
    44.3600       526
    44.3800       578
    44.4000       512
    44.4200       556
    44.4400       578
    44.4600       554
    44.4800       554
    44.5000       542
    44.5200       606
    44.5400       570
    44.5600       558
    44.5800       612
    44.6000       612
    44.6200       618
    44.6400       640
    44.6600       678
    44.6800       654
    44.7000       670
    44.7200       718
    44.7400       706
    44.7600       800
    44.7800       858
    44.8000       818
    44.8200       846
    44.8400       954
    44.8600      1002
    44.8800      1092
    44.9000      1150
    44.9200      1196
    44.9400      1286
    44.9600      1468
    44.9800      1620
    45.0000      1672
    45.0200      1820
    45.0400      1914
    45.0600      1976
    45.0800      2102
    45.1000      2182
    45.1200      2234
    45.1400      2380
    45.1600      2414
    45.1800      2514
    45.2000      2550
    45.2200      2692
    45.2400      2670
    45.2600      2610
    45.2800      2598
    45.3000      2492
    45.3200      2474
    45.3400      2294
    45.3600      2282
    45.3800      2156
    45.4000      2028
    45.4200      2006
    45.4400      1910
    45.4600      1968
    45.4800      1782
    45.5000      1672
    45.5200      1606
    45.5400      1526
    45.5600      1474
    45.5800      1440
    45.6000      1296
    45.6200      1282
    45.6400      1148
    45.6600      1008
    45.6800      1080
    45.7000       998
    45.7200       972
    45.7400       932
    45.7600       864
    45.7800       786
    45.8000       778
    45.8200       786
    45.8400       822
    45.8600       770
    45.8800       740
    45.9000       774
    45.9200       722
    45.9400       752
    45.9600       720
    45.9800       690
    46.0000       700
    46.0200       712
    46.0400       734
    46.0600       706
    46.0800       698
    46.1000       690
    46.1200       714
    46.1400       758
    46.1600       786
    46.1800       786
    46.2000       834
    46.2200       780
    46.2400       824
    46.2600       872
    46.2800       918
    46.3000       996
    46.3200      1086
    46.3400      1090
    46.3600      1206
    46.3800      1250
    46.4000      1374
    46.4200      1440
    46.4400      1548
    46.4600      1764
    46.4800      1952
    46.5000      2074
    46.5200      2290
    46.5400      2504
    46.5600      2842
    46.5800      2964
    46.6000      3274
    46.6200      3674
    46.6400      3864
    46.6600      4252
    46.6800      4434
    46.7000      4560
    46.7200      4578
    46.7400      4558
    46.7600      4438
    46.7800      4016
    46.8000      3810
    46.8200      3600
    46.8400      3266
    46.8600      2984
    46.8800      2606
    46.9000      2338
    46.9200      2064
    46.9400      1744
    46.9600      1564
    46.9800      1354
    47.0000      1300
    47.0200      1152
    47.0400      1066
    47.0600       916
    47.0800       930
    47.1000       866
    47.1200       810
    47.1400       734
    47.1600       664
    47.1800       634
    47.2000       628
    47.2200       612
    47.2400       568
    47.2600       602
    47.2800       566
    47.3000       572
    47.3200       520
    47.3400       516
    47.3600       492
    47.3800       498
    47.4000       476
    47.4200       478
    47.4400       470
    47.4600       484
    47.4800       476
    47.5000       412
    47.5200       486
    47.5400       478
    47.5600       456
    47.5800       452
    47.6000       440
    47.6200       426
    47.6400       414
    47.6600       460
    47.6800       498
    47.7000       452
    47.7200       472
    47.7400       514
    47.7600       526
    47.7800       520
    47.8000       586
    47.8200       598
    47.8400       608
    47.8600       584
    47.8800       562
    47.9000       620
    47.9200       554
    47.9400       564
    47.9600       560
    47.9800       572
    48.0000       524
    48.0200       560
    48.0400       552
    48.0600       522
    48.0800       544
    48.1000       570
    48.1200       604
    48.1400       582
    48.1600       604
    48.1800       606
    48.2000       640
    48.2200       652
    48.2400       652
    48.2600       682
    48.2800       724
    48.3000       718
    48.3200       692
    48.3400       700
    48.3600       692
    48.3800       718
    48.4000       736
    48.4200       776
    48.4400       776
    48.4600       852
    48.4800       842
    48.5000       952
    48.5200      1004
    48.5400      1032
    48.5600      1118
    48.5800      1050
    48.6000      1154
    48.6200      1120
    48.6400      1090
    48.6600      1094
    48.6800      1064
    48.7000      1100
    48.7200       988
    48.7400       920
    48.7600       856
    48.7800       908
    48.8000       842
    48.8200       768
    48.8400       764
    48.8600       644
    48.8800       648
    48.9000       608
    48.9200       582
    48.9400       564
    48.9600       550
    48.9800       524
    49.0000       480
    49.0200       462
    49.0400       436
    49.0600       404
    49.0800       438
    49.1000       406
    49.1200       402
    49.1400       380
    49.1600       376
    49.1800       386
    49.2000       402
    49.2200       362
    49.2400       404
    49.2600       382
    49.2800       332
    49.3000       348
    49.3200       354
    49.3400       342
    49.3600       330
    49.3800       380
    49.4000       330
    49.4200       338
    49.4400       374
    49.4600       328
    49.4800       338
    49.5000       364
    49.5200       378
    49.5400       324
    49.5600       344
    49.5800       356
    49.6000       366
    49.6200       374
    49.6400       358
    49.6600       372
    49.6800       368
    49.7000       344
    49.7200       392
    49.7400       386
    49.7600       372
    49.7800       396
    49.8000       370
    49.8200       404
    49.8400       410
    49.8600       398
    49.8800       416
    49.9000       476
    49.9200       488
    49.9400       496
    49.9600       498
    49.9800       520
    50.0000       516
    50.0200       536
    50.0400       622
    50.0600       568
    50.0800       666
    50.1000       668
    50.1200       776
    50.1400       792
    50.1600       840
    50.1800       938
    50.2000       968
    50.2200       990
    50.2400      1114
    50.2600      1196
    50.2800      1268
    50.3000      1232
    50.3200      1320
    50.3400      1390
    50.3600      1376
    50.3800      1396
    50.4000      1366
    50.4200      1392
    50.4400      1350
    50.4600      1312
    50.4800      1316
    50.5000      1342
    50.5200      1320
    50.5400      1314
    50.5600      1412
    50.5800      1360
    50.6000      1426
    50.6200      1540
    50.6400      1578
    50.6600      1722
    50.6800      1760
    50.7000      1932
    50.7200      2024
    50.7400      2196
    50.7600      2410
    50.7800      2578
    50.8000      2596
    50.8200      2720
    50.8400      2584
    50.8600      2524
    50.8800      2440
    50.9000      2328
    50.9200      2196
    50.9400      2064
    50.9600      1982
    50.9800      1952
    51.0000      1652
    51.0200      1534
    51.0400      1420
    51.0600      1368
    51.0800      1160
    51.1000      1134
    51.1200      1032
    51.1400      1026
    51.1600       984
    51.1800       930
    51.2000       832
    51.2200       896
    51.2400       900
    51.2600       860
    51.2800       864
    51.3000       794
    51.3200       846
    51.3400       794
    51.3600       796
    51.3800       844
    51.4000       878
    51.4200       882
    51.4400       850
    51.4600       842
    51.4800       880
    51.5000       850
    51.5200       826
    51.5400       876
    51.5600       870
    51.5800       954
    51.6000       912
    51.6200       924
    51.6400       946
    51.6600      1000
    51.6800      1040
    51.7000      1102
    51.7200      1130
    51.7400      1228
    51.7600      1258
    51.7800      1480
    51.8000      1490
    51.8200      1620
    51.8400      1744
    51.8600      1858
    51.8800      2006
    51.9000      2306
    51.9200      2282
    51.9400      2378
    51.9600      2402
    51.9800      2468
    52.0000      2398
    52.0200      2224
    52.0400      2178
    52.0600      2070
    52.0800      1894
    52.1000      1834
    52.1200      1690
    52.1400      1586
    52.1600      1440
    52.1800      1238
    52.2000      1186
    52.2200      1068
    52.2400      1006
    52.2600       926
    52.2800       856
    52.3000       760
    52.3200       848
    52.3400       804
    52.3600       818
    52.3800       766
    52.4000       742
    52.4200       782
    52.4400       776
    52.4600       860
    52.4800       928
    52.5000       966
    52.5200       980
    52.5400      1018
    52.5600      1018
    52.5800      1100
    52.6000      1040
    52.6200      1158
    52.6400      1046
    52.6600      1140
    52.6800      1096
    52.7000      1108
    52.7200      1164
    52.7400      1106
    52.7600      1090
    52.7800      1100
    52.8000      1064
    52.8200      1066
    52.8400       954
    52.8600       972
    52.8800       938
    52.9000       912
    52.9200       948
    52.9400       820
    52.9600       808
    52.9800       776
    53.0000       756
    53.0200       774
    53.0400       718
    53.0600       738
    53.0800       766
    53.1000       788
    53.1200       846
    53.1400       842
    53.1600       926
    53.1800       906
    53.2000      1018
    53.2200       952
    53.2400      1070
    53.2600      1052
    53.2800      1050
    53.3000      1038
    53.3200       992
    53.3400      1082
    53.3600      1000
    53.3800       940
    53.4000       916
    53.4200       934
    53.4400       904
    53.4600       874
    53.4800       736
    53.5000       770
    53.5200       738
    53.5400       704
    53.5600       668
    53.5800       658
    53.6000       636
    53.6200       612
    53.6400       670
    53.6600       610
    53.6800       630
    53.7000       600
    53.7200       600
    53.7400       622
    53.7600       610
    53.7800       594
    53.8000       576
    53.8200       582
    53.8400       540
    53.8600       538
    53.8800       516
    53.9000       566
    53.9200       544
    53.9400       516
    53.9600       514
    53.9800       546
    54.0000       530
    54.0200       498
    54.0400       532
    54.0600       564
    54.0800       586
    54.1000       554
    54.1200       564
    54.1400       610
    54.1600       660
    54.1800       650
    54.2000       700
    54.2200       704
    54.2400       722
    54.2600       744
    54.2800       816
    54.3000       786
    54.3200       798
    54.3400       842
    54.3600       818
    54.3800       886
    54.4000       906
    54.4200       904
    54.4400       900
    54.4600       934
    54.4800      1014
    54.5000       952
    54.5200       926
    54.5400       898
    54.5600       824
    54.5800       902
    54.6000       862
    54.6200       800
    54.6400       900
    54.6600       860
    54.6800       770
    54.7000       816
    54.7200       786
    54.7400       776
    54.7600       752
    54.7800       782
    54.8000       824
    54.8200       730
    54.8400       692
    54.8600       730
    54.8800       794
    54.9000       688
    54.9200       744
    54.9400       800
    54.9600       734
    54.9800       816
    55.0000       768
    55.0200       754
    55.0400       868
    55.0600       868
    55.0800       988
    55.1000       960
    55.1200       988
    55.1400       980
    55.1600      1034
    55.1800      1012
    55.2000      1020
    55.2200       996
    55.2400      1040
    55.2600      1046
    55.2800       996
    55.3000      1046
    55.3200       988
    55.3400       934
    55.3600       946
    55.3800       954
    55.4000       830
    55.4200       774
    55.4400       750
    55.4600       746
    55.4800       696
    55.5000       678
    55.5200       666
    55.5400       616
    55.5600       584
    55.5800       608
    55.6000       548
    55.6200       496
    55.6400       470
    55.6600       454
    55.6800       458
    55.7000       456
    55.7200       432
    55.7400       368
    55.7600       394
    55.7800       370
    55.8000       358
    55.8200       378
    55.8400       386
    55.8600       352
    55.8800       336
    55.9000       374
    55.9200       330
    55.9400       328
    55.9600       382
    55.9800       340
    56.0000       332
    56.0200       316
    56.0400       338
    56.0600       332
    56.0800       318
    56.1000       368
    56.1200       326
    56.1400       346
    56.1600       394
    56.1800       342
    56.2000       374
    56.2200       364
    56.2400       374
    56.2600       386
    56.2800       412
    56.3000       358
    56.3200       370
    56.3400       366
    56.3600       378
    56.3800       364
    56.4000       390
    56.4200       398
    56.4400       410
    56.4600       452
    56.4800       436
    56.5000       416
    56.5200       472
    56.5400       458
    56.5600       486
    56.5800       510
    56.6000       548
    56.6200       586
    56.6400       608
    56.6600       650
    56.6800       672
    56.7000       710
    56.7200       742
    56.7400       736
    56.7600       804
    56.7800       746
    56.8000       742
    56.8200       752
    56.8400       704
    56.8600       686
    56.8800       676
    56.9000       670
    56.9200       640
    56.9400       616
    56.9600       620
    56.9800       596
    57.0000       538
    57.0200       548
    57.0400       558
    57.0600       522
    57.0800       528
    57.1000       586
    57.1200       528
    57.1400       550
    57.1600       598
    57.1800       612
    57.2000       664
    57.2200       676
    57.2400       760
    57.2600       736
    57.2800       808
    57.3000       798
    57.3200       870
    57.3400       910
    57.3600       978
    57.3800      1014
    57.4000       992
    57.4200       964
    57.4400       990
    57.4600       938
    57.4800       886
    57.5000       928
    57.5200       942
    57.5400       922
    57.5600       980
    57.5800       896
    57.6000       912
    57.6200       926
    57.6400       890
    57.6600       940
    57.6800      1002
    57.7000       960
    57.7200      1000
    57.7400       956
    57.7600       996
    57.7800       950
    57.8000       956
    57.8200       912
    57.8400       882
    57.8600       858
    57.8800       762
    57.9000       806
    57.9200       768
    57.9400       732
    57.9600       744
    57.9800       750
    58.0000       688
    58.0200       658
    58.0400       628
    58.0600       620
    58.0800       640
    58.1000       632
    58.1200       594
    58.1400       632
    58.1600       622
    58.1800       638
    58.2000       688
    58.2200       680
    58.2400       720
    58.2600       784
    58.2800       814
    58.3000       804
    58.3200       846
    58.3400       870
    58.3600       990
    58.3800       992
    58.4000      1018
    58.4200      1130
    58.4400      1194
    58.4600      1208
    58.4800      1214
    58.5000      1236
    58.5200      1368
    58.5400      1378
    58.5600      1448
    58.5800      1522
    58.6000      1588
    58.6200      1670
    58.6400      1636
    58.6600      1740
    58.6800      1814
    58.7000      1936
    58.7200      1814
    58.7400      1842
    58.7600      1808
    58.7800      1778
    58.8000      1840
    58.8200      1708
    58.8400      1718
    58.8600      1642
    58.8800      1522
    58.9000      1492
    58.9200      1464
    58.9400      1258
    58.9600      1212
    58.9800      1216
    59.0000      1152
    59.0200      1064
    59.0400      1050
    59.0600      1058
    59.0800      1028
    59.1000       932
    59.1200       948
    59.1400       956
    59.1600       970
    59.1800      1006
    59.2000      1054
    59.2200      1078
    59.2400      1166
    59.2600      1176
    59.2800      1242
    59.3000      1362
    59.3200      1450
    59.3400      1576
    59.3600      1650
    59.3800      1744
    59.4000      1894
    59.4200      1946
    59.4400      1992
    59.4600      2106
    59.4800      2142
    59.5000      2012
    59.5200      1990
    59.5400      1920
    59.5600      1888
    59.5800      1862
    59.6000      1812
    59.6200      1658
    59.6400      1592
    59.6600      1566
    59.6800      1498
    59.7000      1412
    59.7200      1288
    59.7400      1266
    59.7600      1178
    59.7800      1176
    59.8000      1138
    59.8200      1020
    59.8400      1114
    59.8600       974
    59.8800       928
    59.9000       928
    59.9200       854
    59.9400       826
    59.9600       810
    59.9800       808
    60.0000       750
    60.0200       782
    60.0400       682
    60.0600       678
    60.0800       616
    60.1000       618
    60.1200       638
    60.1400       580
    60.1600       608
    60.1800       576
    60.2000       548
    60.2200       562
    60.2400       472
    60.2600       482
    60.2800       442
    60.3000       490
    60.3200       438
    60.3400       432
    60.3600       440
    60.3800       424
    60.4000       414
    60.4200       394
    60.4400       426
    60.4600       442
    60.4800       428
    60.5000       410
    60.5200       428
    60.5400       404
    60.5600       474
    60.5800       386
    60.6000       444
    60.6200       404
    60.6400       450
    60.6600       404
    60.6800       404
    60.7000       424
    60.7200       442
    60.7400       476
    60.7600       394
    60.7800       482
    60.8000       438
    60.8200       432
    60.8400       488
    60.8600       472
    60.8800       518
    60.9000       458
    60.9200       542
    60.9400       524
    60.9600       574
    60.9800       588
    61.0000       562
    61.0200       588
    61.0400       642
    61.0600       668
    61.0800       678
    61.1000       700
    61.1200       726
    61.1400       676
    61.1600       748
    61.1800       814
    61.2000       828
    61.2200       850
    61.2400       890
    61.2600       928
    61.2800       888
    61.3000       980
    61.3200      1004
    61.3400      1040
    61.3600      1128
    61.3800      1224
    61.4000      1212
    61.4200      1292
    61.4400      1396
    61.4600      1486
    61.4800      1546
    61.5000      1550
    61.5200      1610
    61.5400      1772
    61.5600      1740
    61.5800      1740
    61.6000      1684
    61.6200      1742
    61.6400      1636
    61.6600      1592
    61.6800      1500
    61.7000      1404
    61.7200      1292
    61.7400      1268
    61.7600      1280
    61.7800      1158
    61.8000      1046
    61.8200      1030
    61.8400       960
    61.8600       838
    61.8800       888
    61.9000       782
    61.9200       706
    61.9400       660
    61.9600       696
    61.9800       646
    62.0000       614
    62.0200       612
    62.0400       548
    62.0600       564
    62.0800       548
    62.1000       554
    62.1200       560
    62.1400       482
    62.1600       530
    62.1800       478
    62.2000       502
    62.2200       428
    62.2400       500
    62.2600       474
    62.2800       414
    62.3000       480
    62.3200       424
    62.3400       472
    62.3600       440
    62.3800       458
    62.4000       438
    62.4200       406
    62.4400       412
    62.4600       376
    62.4800       422
    62.5000       382
    62.5200       400
    62.5400       418
    62.5600       404
    62.5800       416
    62.6000       410
    62.6200       396
    62.6400       386
    62.6600       382
    62.6800       382
    62.7000       394
    62.7200       382
    62.7400       416
    62.7600       470
    62.7800       408
    62.8000       384
    62.8200       420
    62.8400       388
    62.8600       366
    62.8800       374
    62.9000       364
    62.9200       348
    62.9400       330
    62.9600       314
    62.9800       320
    63.0000       336
    63.0200       328
    63.0400       342
    63.0600       326
    63.0800       302
    63.1000       306
    63.1200       328
    63.1400       348
    63.1600       298
    63.1800       304
    63.2000       334
    63.2200       332
    63.2400       304
    63.2600       332
    63.2800       308
    63.3000       286
    63.3200       324
    63.3400       320
    63.3600       332
    63.3800       306
    63.4000       338
    63.4200       336
    63.4400       364
    63.4600       380
    63.4800       352
    63.5000       370
    63.5200       396
    63.5400       390
    63.5600       394
    63.5800       450
    63.6000       412
    63.6200       490
    63.6400       494
    63.6600       500
    63.6800       516
    63.7000       570
    63.7200       610
    63.7400       628
    63.7600       660
    63.7800       696
    63.8000       774
    63.8200       878
    63.8400       832
    63.8600       876
    63.8800       876
    63.9000       894
    63.9200       902
    63.9400       858
    63.9600       820
    63.9800       818
    64.0000       796
    64.0200       758
    64.0400       746
    64.0600       724
    64.0800       678
    64.1000       692
    64.1200       604
    64.1400       586
    64.1600       608
    64.1800       496
    64.2000       516
    64.2200       468
    64.2400       464
    64.2600       424
    64.2800       410
    64.3000       408
    64.3200       426
    64.3400       362
    64.3600       374
    64.3800       374
    64.4000       350
    64.4200       342
    64.4400       348
    64.4600       314
    64.4800       314
    64.5000       294
    64.5200       328
    64.5400       308
    64.5600       306
    64.5800       304
    64.6000       276
    64.6200       292
    64.6400       302
    64.6600       308
    64.6800       306
    64.7000       298
    64.7200       294
    64.7400       302
    64.7600       314
    64.7800       330
    64.8000       294
    64.8200       300
    64.8400       304
    64.8600       324
    64.8800       332
    64.9000       338
    64.9200       380
    64.9400       342
    64.9600       362
    64.9800       332
    65.0000       374
    65.0200       398
    65.0400       408
    65.0600       396
    65.0800       430
    65.1000       412
    65.1200       394
    65.1400       404
    65.1600       398
    65.1800       400
    65.2000       396
    65.2200       390
    65.2400       426
    65.2600       432
    65.2800       436
    65.3000       402
    65.3200       424
    65.3400       414
    65.3600       426
    65.3800       462
    65.4000       418
    65.4200       434
    65.4400       428
    65.4600       398
    65.4800       358
    65.5000       396
    65.5200       408
    65.5400       416
    65.5600       388
    65.5800       426
    65.6000       434
    65.6200       404
    65.6400       460
    65.6600       418
    65.6800       408
    65.7000       390
    65.7200       382
    65.7400       378
    65.7600       366
    65.7800       402
    65.8000       402
    65.8200       376
    65.8400       308
    65.8600       308
    65.8800       350
    65.9000       360
    65.9200       348
    65.9400       310
    65.9600       298
    65.9800       314
    66.0000       346
    66.0200       302
    66.0400       312
    66.0600       302
    66.0800       318
    66.1000       276
    66.1200       298
    66.1400       278
    66.1600       330
    66.1800       318
    66.2000       316
    66.2200       296
    66.2400       318
    66.2600       316
    66.2800       318
    66.3000       324
    66.3200       336
    66.3400       362
    66.3600       330
    66.3800       356
    66.4000       334
    66.4200       360
    66.4400       360
    66.4600       378
    66.4800       400
    66.5000       406
    66.5200       444
    66.5400       396
    66.5600       418
    66.5800       400
    66.6000       450
    66.6200       442
    66.6400       454
    66.6600       496
    66.6800       498
    66.7000       502
    66.7200       546
    66.7400       560
    66.7600       622
    66.7800       642
    66.8000       654
    66.8200       688
    66.8400       680
    66.8600       718
    66.8800       798
    66.9000       828
    66.9200       878
    66.9400       842
    66.9600       808
    66.9800       786
    67.0000       802
    67.0200       816
    67.0400       750
    67.0600       746
    67.0800       676
    67.1000       750
    67.1200       678
    67.1400       682
    67.1600       622
    67.1800       626
    67.2000       568
    67.2200       570
    67.2400       518
    67.2600       532
    67.2800       544
    67.3000       482
    67.3200       490
    67.3400       476
    67.3600       414
    67.3800       426
    67.4000       398
    67.4200       432
    67.4400       330
    67.4600       374
    67.4800       372
    67.5000       332
    67.5200       368
    67.5400       340
    67.5600       324
    67.5800       380
    67.6000       328
    67.6200       326
    67.6400       318
    67.6600       344
    67.6800       330
    67.7000       334
    67.7200       350
    67.7400       318
    67.7600       400
    67.7800       368
    67.8000       372
    67.8200       364
    67.8400       344
    67.8600       456
    67.8800       440
    67.9000       426
    67.9200       438
    67.9400       442
    67.9600       468
    67.9800       534
    68.0000       536
    68.0200       564
    68.0400       586
    68.0600       596
    68.0800       590
    68.1000       740
    68.1200       672
    68.1400       724
    68.1600       730
    68.1800       766
    68.2000       704
    68.2200       698
    68.2400       762
    68.2600       738
    68.2800       750
    68.3000       750
    68.3200       756
    68.3400       688
    68.3600       626
    68.3800       706
    68.4000       646
    68.4200       606
    68.4400       610
    68.4600       590
    68.4800       556
    68.5000       606
    68.5200       600
    68.5400       544
    68.5600       514
    68.5800       502
    68.6000       518
    68.6200       474
    68.6400       462
    68.6600       454
    68.6800       398
    68.7000       436
    68.7200       430
    68.7400       402
    68.7600       354
    68.7800       404
    68.8000       348
    68.8200       388
    68.8400       374
    68.8600       368
    68.8800       364
    68.9000       404
    68.9200       358
    68.9400       368
    68.9600       370
    68.9800       366
    69.0000       358
    69.0200       414
    69.0400       390
    69.0600       390
    69.0800       450
    69.1000       374
    69.1200       390
    69.1400       462
    69.1600       412
    69.1800       418
    69.2000       424
    69.2200       398
    69.2400       388
    69.2600       428
    69.2800       416
    69.3000       418
    69.3200       508
    69.3400       460
    69.3600       454
    69.3800       478
    69.4000       488
    69.4200       468
    69.4400       482
    69.4600       450
    69.4800       408
    69.5000       442
    69.5200       394
    69.5400       448
    69.5600       438
    69.5800       404
    69.6000       414
    69.6200       428
    69.6400       406
    69.6600       460
    69.6800       418
    69.7000       416
    69.7200       446
    69.7400       428
    69.7600       434
    69.7800       430
    69.8000       482
    69.8200       472
    69.8400       496
    69.8600       460
    69.8800       506
    69.9000       436
    69.9200       452
    69.9400       448
    69.9600       430
    69.9800       420
    70.0000       444
    70.0200       432
    70.0400       434
    70.0600       368
    70.0800       392
    70.1000       416
    70.1200       380
    70.1400       370
    70.1600       360
    70.1800       308
    70.2000       312
    70.2200       288
    70.2400       320
    70.2600       296
    70.2800       286
    70.3000       280
    70.3200       268
    70.3400       290
    70.3600       286
    70.3800       278
    70.4000       266
    70.4200       280
    70.4400       260
    70.4600       268
    70.4800       290
    70.5000       282
    70.5200       272
    70.5400       258
    70.5600       256
    70.5800       306
    70.6000       268
    70.6200       274
    70.6400       238
    70.6600       264
    70.6800       246
    70.7000       228
    70.7200       238
    70.7400       250
    70.7600       236
    70.7800       248
    70.8000       262
    70.8200       244
    70.8400       256
    70.8600       252
    70.8800       236
    70.9000       246
    70.9200       210
    70.9400       206
    70.9600       222
    70.9800       266
    71.0000       254
    71.0200       230
    71.0400       240
    71.0600       264
    71.0800       218
    71.1000       248
    71.1200       256
    71.1400       250
    71.1600       236
    71.1800       258
    71.2000       284
    71.2200       246
    71.2400       252
    71.2600       282
    71.2800       266
    71.3000       328
    71.3200       316
    71.3400       314
    71.3600       352
    71.3800       356
    71.4000       350
    71.4200       350
    71.4400       374
    71.4600       426
    71.4800       406
    71.5000       444
    71.5200       436
    71.5400       394
    71.5600       400
    71.5800       464
    71.6000       432
    71.6200       436
    71.6400       392
    71.6600       442
    71.6800       424
    71.7000       426
    71.7200       432
    71.7400       412
    71.7600       426
    71.7800       412
    71.8000       370
    71.8200       380
    71.8400       370
    71.8600       346
    71.8800       366
    71.9000       360
    71.9200       376
    71.9400       356
    71.9600       362
    71.9800       364
    72.0000       308
    72.0200       324
    72.0400       368
    72.0600       340
    72.0800       366
    72.1000       360
    72.1200       368
    72.1400       336
    72.1600       376
    72.1800       378
    72.2000       422
    72.2200       358
    72.2400       422
    72.2600       426
    72.2800       438
    72.3000       436
    72.3200       430
    72.3400       442
    72.3600       450
    72.3800       458
    72.4000       470
    72.4200       422
    72.4400       466
    72.4600       456
    72.4800       490
    72.5000       516
    72.5200       474
    72.5400       478
    72.5600       464
    72.5800       528
    72.6000       534
    72.6200       556
    72.6400       582
    72.6600       540
    72.6800       604
    72.7000       618
    72.7200       652
    72.7400       616
    72.7600       624
    72.7800       650
    72.8000       686
    72.8200       658
    72.8400       680
    72.8600       652
    72.8800       646
    72.9000       632
    72.9200       634
    72.9400       592
    72.9600       648
    72.9800       586
    73.0000       604
    73.0200       508
    73.0400       546
    73.0600       492
    73.0800       464
    73.1000       466
    73.1200       440
    73.1400       420
    73.1600       400
    73.1800       442
    73.2000       434
    73.2200       352
    73.2400       400
    73.2600       354
    73.2800       322
    73.3000       334
    73.3200       304
    73.3400       296
    73.3600       288
    73.3800       316
    73.4000       298
    73.4200       298
    73.4400       284
    73.4600       254
    73.4800       270
    73.5000       234
    73.5200       246
    73.5400       266
    73.5600       258
    73.5800       278
    73.6000       258
    73.6200       302
    73.6400       284
    73.6600       278
    73.6800       276
    73.7000       268
    73.7200       296
    73.7400       258
    73.7600       284
    73.7800       274
    73.8000       278
    73.8200       260
    73.8400       282
    73.8600       256
    73.8800       262
    73.9000       266
    73.9200       254
    73.9400       266
    73.9600       294
    73.9800       286
    74.0000       298
    74.0200       282
    74.0400       282
    74.0600       268
    74.0800       284
    74.1000       280
    74.1200       294
    74.1400       280
    74.1600       272
    74.1800       278
    74.2000       280
    74.2200       276
    74.2400       256
    74.2600       254
    74.2800       280
    74.3000       254
    74.3200       252
    74.3400       242
    74.3600       278
    74.3800       224
    74.4000       248
    74.4200       220
    74.4400       230
    74.4600       242
    74.4800       208
    74.5000       230
    74.5200       230
    74.5400       234
    74.5600       230
    74.5800       218
    74.6000       210
    74.6200       240
    74.6400       206
    74.6600       216
    74.6800       216
    74.7000       182
    74.7200       212
    74.7400       202
    74.7600       214
    74.7800       216
    74.8000       224
    74.8200       228
    74.8400       206
    74.8600       212
    74.8800       204
    74.9000       214
    74.9200       204
    74.9400       204
    74.9600       214
    74.9800       220
    75.0000       220
    75.0200       220
    75.0400       206
    75.0600       230
    75.0800       242
    75.1000       228
    75.1200       240
    75.1400       230
    75.1600       222
    75.1800       260
    75.2000       248
    75.2200       256
    75.2400       234
    75.2600       240
    75.2800       256
    75.3000       244
    75.3200       222
    75.3400       220
    75.3600       266
    75.3800       254
    75.4000       242
    75.4200       292
    75.4400       266
    75.4600       248
    75.4800       266
    75.5000       306
    75.5200       270
    75.5400       294
    75.5600       298
    75.5800       260
    75.6000       282
    75.6200       264
    75.6400       286
    75.6600       298
    75.6800       292
    75.7000       280
    75.7200       298
    75.7400       288
    75.7600       324
    75.7800       322
    75.8000       312
    75.8200       294
    75.8400       264
    75.8600       316
    75.8800       292
    75.9000       276
    75.9200       286
    75.9400       292
    75.9600       304
    75.9800       300
    76.0000       288
    76.0200       282
    76.0400       278
    76.0600       282
    76.0800       270
    76.1000       274
    76.1200       282
    76.1400       266
    76.1600       286
    76.1800       292
    76.2000       292
    76.2200       314
    76.2400       270
    76.2600       276
    76.2800       274
    76.3000       290
    76.3200       334
    76.3400       310
    76.3600       304
    76.3800       352
    76.4000       364
    76.4200       360
    76.4400       352
    76.4600       378
    76.4800       370
    76.5000       408
    76.5200       390
    76.5400       436
    76.5600       422
    76.5800       378
    76.6000       394
    76.6200       352
    76.6400       408
    76.6600       426
    76.6800       416
    76.7000       406
    76.7200       396
    76.7400       428
    76.7600       378
    76.7800       362
    76.8000       418
    76.8200       338
    76.8400       368
    76.8600       392
    76.8800       356
    76.9000       316
    76.9200       356
    76.9400       324
    76.9600       322
    76.9800       322
    77.0000       296
    77.0200       326
    77.0400       314
    77.0600       340
    77.0800       322
    77.1000       332
    77.1200       338
    77.1400       330
    77.1600       330
    77.1800       392
    77.2000       314
    77.2200       376
    77.2400       394
    77.2600       382
    77.2800       352
    77.3000       440
    77.3200       380
    77.3400       418
    77.3600       434
    77.3800       418
    77.4000       442
    77.4200       424
    77.4400       458
    77.4600       478
    77.4800       474
    77.5000       510
    77.5200       528
    77.5400       520
    77.5600       478
    77.5800       510
    77.6000       516
    77.6200       578
    77.6400       566
    77.6600       546
    77.6800       560
    77.7000       508
    77.7200       528
    77.7400       496
    77.7600       518
    77.7800       504
    77.8000       524
    77.8200       562
    77.8400       488
    77.8600       488
    77.8800       484
    77.9000       488
    77.9200       448
    77.9400       456
    77.9600       438
    77.9800       436
    78.0000       416
    78.0200       442
    78.0400       424
    78.0600       396
    78.0800       352
    78.1000       332
    78.1200       370
    78.1400       350
    78.1600       372
    78.1800       388
    78.2000       362
    78.2200       302
    78.2400       334
    78.2600       330
    78.2800       346
    78.3000       338
    78.3200       328
    78.3400       316
    78.3600       326
    78.3800       352
    78.4000       308
    78.4200       344
    78.4400       374
    78.4600       336
    78.4800       354
    78.5000       334
    78.5200       372
    78.5400       352
    78.5600       398
    78.5800       400
    78.6000       400
    78.6200       400
    78.6400       390
    78.6600       394
    78.6800       432
    78.7000       394
    78.7200       420
    78.7400       388
    78.7600       386
    78.7800       372
    78.8000       400
    78.8200       384
    78.8400       374
    78.8600       344
    78.8800       350
    78.9000       356
    78.9200       344
    78.9400       336
    78.9600       332
    78.9800       348
    79.0000       326
    79.0200       312
    79.0400       342
    79.0600       306
    79.0800       304
    79.1000       274
    79.1200       276
    79.1400       288
    79.1600       290
    79.1800       302
    79.2000       278
    79.2200       288
    79.2400       296
    79.2600       278
    79.2800       308
    79.3000       254
    79.3200       244
    79.3400       270
    79.3600       272
    79.3800       274
    79.4000       252
    79.4200       280
    79.4400       270
    79.4600       228
    79.4800       284
    79.5000       242
    79.5200       250
    79.5400       256
    79.5600       238
    79.5800       270
    79.6000       228
    79.6200       258
    79.6400       250
    79.6600       256
    79.6800       266
    79.7000       252
    79.7200       260
    79.7400       230
    79.7600       240
    79.7800       274
    79.8000       242
    79.8200       254
    79.8400       258
    79.8600       268
    79.8800       240
    79.9000       240
    79.9200       252
    79.9400       236
    79.9600       278
    79.9800       256
    80.0000       296
    80.0200       248
    80.0400       256
    80.0600       254
    80.0800       242
    80.1000       244
    80.1200       238
    80.1400       262
    80.1600       246
    80.1800       258
    80.2000       244
    80.2200       260
    80.2400       254
    80.2600       288
    80.2800       270
    80.3000       238
    80.3200       264
    80.3400       254
    80.3600       256
    80.3800       274
    80.4000       276
    80.4200       282
    80.4400       276
    80.4600       268
    80.4800       274
    80.5000       252
    80.5200       256
    80.5400       312
    80.5600       260
    80.5800       262
    80.6000       274
    80.6200       284
    80.6400       264
    80.6600       256
    80.6800       294
    80.7000       244
    80.7200       274
    80.7400       286
    80.7600       248
    80.7800       274
    80.8000       226
    80.8200       240
    80.8400       270
    80.8600       244
    80.8800       240
    80.9000       230
    80.9200       232
    80.9400       218
    80.9600       256
    80.9800       256
    81.0000       238
    81.0200       220
    81.0400       248
    81.0600       222
    81.0800       244
    81.1000       228
    81.1200       224
    81.1400       250
    81.1600       234
    81.1800       228
    81.2000       222
    81.2200       236
    81.2400       242
    81.2600       264
    81.2800       262
    81.3000       266
    81.3200       250
    81.3400       260
    81.3600       226
    81.3800       232
    81.4000       258
    81.4200       278
    81.4400       274
    81.4600       240
    81.4800       282
    81.5000       232
    81.5200       272
    81.5400       280
    81.5600       284
    81.5800       280
    81.6000       258
    81.6200       292
    81.6400       302
    81.6600       294
    81.6800       312
    81.7000       290
    81.7200       282
    81.7400       296
    81.7600       298
    81.7800       304
    81.8000       310
    81.8200       282
    81.8400       328
    81.8600       332
    81.8800       324
    81.9000       350
    81.9200       318
    81.9400       352
    81.9600       336
    81.9800       332
    82.0000       348
    82.0200       332
    82.0400       354
    82.0600       364
    82.0800       326
    82.1000       346
    82.1200       370
    82.1400       364
    82.1600       334
    82.1800       388
    82.2000       368
    82.2200       456
    82.2400       368
    82.2600       428
    82.2800       378
    82.3000       392
    82.3200       362
    82.3400       450
    82.3600       436
    82.3800       408
    82.4000       432
    82.4200       434
    82.4400       442
    82.4600       458
    82.4800       450
    82.5000       448
    82.5200       488
    82.5400       470
    82.5600       486
    82.5800       504
    82.6000       558
    82.6200       536
    82.6400       588
    82.6600       626
    82.6800       616
    82.7000       642
    82.7200       634
    82.7400       738
    82.7600       704
    82.7800       738
    82.8000       762
    82.8200       792
    82.8400       830
    82.8600       788
    82.8800       818
    82.9000       806
    82.9200       798
    82.9400       840
    82.9600       878
    82.9800       842
    83.0000       754
    83.0200       790
    83.0400       766
    83.0600       738
    83.0800       674
    83.1000       714
    83.1200       716
    83.1400       698
    83.1600       692
    83.1800       612
    83.2000       638
    83.2200       598
    83.2400       536
    83.2600       548
    83.2800       496
    83.3000       512
    83.3200       486
    83.3400       480
    83.3600       446
    83.3800       420
    83.4000       452
    83.4200       414
    83.4400       396
    83.4600       372
    83.4800       364
    83.5000       374
    83.5200       370
    83.5400       352
    83.5600       354
    83.5800       342
    83.6000       358
    83.6200       330
    83.6400       326
    83.6600       334
    83.6800       324
    83.7000       310
    83.7200       294
    83.7400       316
    83.7600       324
    83.7800       352
    83.8000       308
    83.8200       294
    83.8400       302
    83.8600       290
    83.8800       294
    83.9000       294
    83.9200       374
    83.9400       302
    83.9600       290
    83.9800       320
    84.0000       332
    84.0200       352
    84.0400       366
    84.0600       306
    84.0800       304
    84.1000       314
    84.1200       344
    84.1400       336
    84.1600       292
    84.1800       342
    84.2000       334
    84.2200       366
    84.2400       340
    84.2600       400
    84.2800       348
    84.3000       332
    84.3200       326
    84.3400       340
    84.3600       326
    84.3800       336
    84.4000       334
    84.4200       332
    84.4400       302
    84.4600       298
    84.4800       328
    84.5000       338
    84.5200       298
    84.5400       336
    84.5600       298
    84.5800       346
    84.6000       310
    84.6200       322
    84.6400       312
    84.6600       328
    84.6800       352
    84.7000       330
    84.7200       350
    84.7400       322
    84.7600       322
    84.7800       314
    84.8000       298
    84.8200       302
    84.8400       284
    84.8600       314
    84.8800       286
    84.9000       294
    84.9200       288
    84.9400       316
    84.9600       292
    84.9800       268
    85.0000       288
    85.0200       294
    85.0400       282
    85.0600       290
    85.0800       272
    85.1000       274
    85.1200       316
    85.1400       284
    85.1600       308
    85.1800       282
    85.2000       274
    85.2200       276
    85.2400       246
    85.2600       276
    85.2800       254
    85.3000       266
    85.3200       274
    85.3400       252
    85.3600       260
    85.3800       294
    85.4000       288
    85.4200       248
    85.4400       262
    85.4600       262
    85.4800       270
    85.5000       284
    85.5200       274
    85.5400       268
    85.5600       284
    85.5800       270
    85.6000       294
    85.6200       294
    85.6400       286
    85.6600       270
    85.6800       270
    85.7000       294
    85.7200       260
    85.7400       288
    85.7600       294
    85.7800       262
    85.8000       288
    85.8200       288
    85.8400       280
    85.8600       276
    85.8800       274
    85.9000       280
    85.9200       280
    85.9400       260
    85.9600       262
    85.9800       256
    86.0000       270
    86.0200       288
    86.0400       286
    86.0600       280
    86.0800       262
    86.1000       262
    86.1200       256
    86.1400       268
    86.1600       272
    86.1800       274
    86.2000       258
    86.2200       248
    86.2400       256
    86.2600       282
    86.2800       270
    86.3000       262
    86.3200       272
    86.3400       244
    86.3600       284
    86.3800       252
    86.4000       262
    86.4200       268
    86.4400       268
    86.4600       242
    86.4800       272
    86.5000       272
    86.5200       304
    86.5400       232
    86.5600       268
    86.5800       324
    86.6000       322
    86.6200       326
    86.6400       304
    86.6600       308
    86.6800       330
    86.7000       310
    86.7200       352
    86.7400       372
    86.7600       400
    86.7800       350
    86.8000       364
    86.8200       342
    86.8400       376
    86.8600       374
    86.8800       390
    86.9000       384
    86.9200       386
    86.9400       398
    86.9600       390
    86.9800       362
    87.0000       388
    87.0200       408
    87.0400       362
    87.0600       368
    87.0800       406
    87.1000       378
    87.1200       344
    87.1400       408
    87.1600       352
    87.1800       366
    87.2000       326
    87.2200       384
    87.2400       340
    87.2600       318
    87.2800       362
    87.3000       314
    87.3200       352
    87.3400       318
    87.3600       370
    87.3800       344
    87.4000       304
    87.4200       322
    87.4400       358
    87.4600       340
    87.4800       346
    87.5000       348
    87.5200       328
    87.5400       336
    87.5600       400
    87.5800       396
    87.6000       376
    87.6200       426
    87.6400       382
    87.6600       404
    87.6800       410
    87.7000       432
    87.7200       410
    87.7400       434
    87.7600       416
    87.7800       400
    87.8000       412
    87.8200       452
    87.8400       412
    87.8600       416
    87.8800       396
    87.9000       394
    87.9200       404
    87.9400       396
    87.9600       400
    87.9800       388
    88.0000       396
    88.0200       370
    88.0400       416
    88.0600       394
    88.0800       370
    88.1000       392
    88.1200       378
    88.1400       394
    88.1600       366
    88.1800       380
    88.2000       372
    88.2200       392
    88.2400       362
    88.2600       384
    88.2800       368
    88.3000       358
    88.3200       370
    88.3400       352
    88.3600       362
    88.3800       372
    88.4000       376
    88.4200       356
    88.4400       396
    88.4600       368
    88.4800       388
    88.5000       314
    88.5200       326
    88.5400       384
    88.5600       354
    88.5800       326
    88.6000       356
    88.6200       372
    88.6400       326
    88.6600       320
    88.6800       320
    88.7000       284
    88.7200       348
    88.7400       324
    88.7600       326
    88.7800       332
    88.8000       314
    88.8200       266
    88.8400       296
    88.8600       296
    88.8800       300
    88.9000       282
    88.9200       262
    88.9400       312
    88.9600       288
    88.9800       290
    89.0000       248
    89.0200       248
    89.0400       278
    89.0600       230
    89.0800       236
    89.1000       248
    89.1200       254
    89.1400       266
    89.1600       264
    89.1800       252
    89.2000       264
    89.2200       228
    89.2400       256
    89.2600       254
    89.2800       234
    89.3000       250
    89.3200       270
    89.3400       228
    89.3600       248
    89.3800       234
    89.4000       236
    89.4200       282
    89.4400       262
    89.4600       246
    89.4800       242
    89.5000       266
    89.5200       252
    89.5400       266
    89.5600       256
    89.5800       292
    89.6000       268
    89.6200       280
    89.6400       232
    89.6600       284
    89.6800       294
    89.7000       330
    89.7200       284
    89.7400       296
    89.7600       292
    89.7800       282
    89.8000       284
    89.8200       288
    89.8400       302
    89.8600       296
    89.8800       292
    89.9000       282
    89.9200       294
    89.9400       288
    89.9600       302
    89.9800       300
    90.0000       316
