    10.0000       398
    10.0200       348
    10.0400       354
    10.0600       388
    10.0800       350
    10.1000       374
    10.1200       360
    10.1400       388
    10.1600       382
    10.1800       310
    10.2000       336
    10.2200       366
    10.2400       352
    10.2600       366
    10.2800       404
    10.3000       380
    10.3200       332
    10.3400       354
    10.3600       358
    10.3800       352
    10.4000       344
    10.4200       386
    10.4400       352
    10.4600       368
    10.4800       344
    10.5000       384
    10.5200       364
    10.5400       368
    10.5600       390
    10.5800       342
    10.6000       372
    10.6200       360
    10.6400       358
    10.6600       334
    10.6800       382
    10.7000       334
    10.7200       362
    10.7400       340
    10.7600       356
    10.7800       392
    10.8000       356
    10.8200       358
    10.8400       338
    10.8600       324
    10.8800       340
    10.9000       354
    10.9200       320
    10.9400       350
    10.9600       358
    10.9800       334
    11.0000       296
    11.0200       364
    11.0400       334
    11.0600       360
    11.0800       328
    11.1000       348
    11.1200       332
    11.1400       328
    11.1600       296
    11.1800       344
    11.2000       320
    11.2200       326
    11.2400       360
    11.2600       356
    11.2800       344
    11.3000       358
    11.3200       324
    11.3400       316
    11.3600       348
    11.3800       350
    11.4000       334
    11.4200       350
    11.4400       346
    11.4600       360
    11.4800       368
    11.5000       324
    11.5200       340
    11.5400       328
    11.5600       348
    11.5800       350
    11.6000       324
    11.6200       344
    11.6400       314
    11.6600       364
    11.6800       320
    11.7000       350
    11.7200       356
    11.7400       338
    11.7600       348
    11.7800       392
    11.8000       372
    11.8200       414
    11.8400       376
    11.8600       386
    11.8800       386
    11.9000       412
    11.9200       416
    11.9400       422
    11.9600       374
    11.9800       428
    12.0000       442
    12.0200       476
    12.0400       520
    12.0600       550
    12.0800       540
    12.1000       592
    12.1200       624
    12.1400       676
    12.1600       724
    12.1800       738
    12.2000       710
    12.2200       732
    12.2400       674
    12.2600       542
    12.2800       518
    12.3000       468
    12.3200       420
    12.3400       370
    12.3600       368
    12.3800       324
    12.4000       330
    12.4200       348
    12.4400       374
    12.4600       328
    12.4800       322
    12.5000       314
    12.5200       304
    12.5400       324
    12.5600       290
    12.5800       304
    12.6000       312
    12.6200       294
    12.6400       314
    12.6600       288
    12.6800       290
    12.7000       316
    12.7200       310
    12.7400       296
    12.7600       320
    12.7800       334
    12.8000       302
    12.8200       310
    12.8400       318
    12.8600       318
    12.8800       312
    12.9000       298
    12.9200       294
    12.9400       276
    12.9600       330
    12.9800       254
    13.0000       290
    13.0200       324
    13.0400       310
    13.0600       316
    13.0800       300
    13.1000       278
    13.1200       320
    13.1400       302
    13.1600       328
    13.1800       310
    13.2000       308
    13.2200       314
    13.2400       280
    13.2600       274
    13.2800       294
    13.3000       288
    13.3200       300
    13.3400       308
    13.3600       282
    13.3800       286
    13.4000       298
    13.4200       296
    13.4400       288
    13.4600       300
    13.4800       280
    13.5000       276
    13.5200       284
    13.5400       302
    13.5600       294
    13.5800       286
    13.6000       334
    13.6200       292
    13.6400       282
    13.6600       268
    13.6800       294
    13.7000       286
    13.7200       296
    13.7400       284
    13.7600       266
    13.7800       294
    13.8000       288
    13.8200       260
    13.8400       270
    13.8600       268
    13.8800       260
    13.9000       298
    13.9200       272
    13.9400       292
    13.9600       232
    13.9800       300
    14.0000       288
    14.0200       260
    14.0400       288
    14.0600       276
    14.0800       276
    14.1000       284
    14.1200       252
    14.1400       292
    14.1600       286
    14.1800       290
    14.2000       272
    14.2200       292
    14.2400       278
    14.2600       274
    14.2800       276
    14.3000       276
    14.3200       292
    14.3400       284
    14.3600       286
    14.3800       278
    14.4000       286
    14.4200       294
    14.4400       248
    14.4600       290
    14.4800       282
    14.5000       300
    14.5200       304
    14.5400       286
    14.5600       290
    14.5800       324
    14.6000       318
    14.6200       342
    14.6400       326
    14.6600       336
    14.6800       366
    14.7000       342
    14.7200       338
    14.7400       334
    14.7600       372
    14.7800       358
    14.8000       396
    14.8200       438
    14.8400       456
    14.8600       468
    14.8800       490
    14.9000       516
    14.9200       580
    14.9400       654
    14.9600       704
    14.9800       734
    15.0000       786
    15.0200       850
    15.0400       938
    15.0600       974
    15.0800      1100
    15.1000      1160
    15.1200      1304
    15.1400      1364
    15.1600      1442
    15.1800      1522
    15.2000      1472
    15.2200      1356
    15.2400      1258
    15.2600      1050
    15.2800       814
    15.3000       674
    15.3200       606
    15.3400       528
    15.3600       458
    15.3800       426
    15.4000       392
    15.4200       416
    15.4400       386
    15.4600       354
    15.4800       322
    15.5000       338
    15.5200       348
    15.5400       316
    15.5600       328
    15.5800       322
    15.6000       304
    15.6200       320
    15.6400       274
    15.6600       298
    15.6800       286
    15.7000       304
    15.7200       282
    15.7400       290
    15.7600       286
    15.7800       280
    15.8000       290
    15.8200       304
    15.8400       268
    15.8600       302
    15.8800       304
    15.9000       330
    15.9200       300
    15.9400       296
    15.9600       292
    15.9800       318
    16.0000       290
    16.0200       276
    16.0400       266
    16.0600       302
    16.0800       336
    16.1000       322
    16.1200       312
    16.1400       342
    16.1600       332
    16.1800       358
    16.2000       402
    16.2200       386
    16.2400       366
    16.2600       400
    16.2800       370
    16.3000       418
    16.3200       388
    16.3400       374
    16.3600       336
    16.3800       374
    16.4000       374
    16.4200       378
    16.4400       374
    16.4600       328
    16.4800       334
    16.5000       346
    16.5200       356
    16.5400       346
    16.5600       390
    16.5800       378
    16.6000       394
    16.6200       410
    16.6400       430
    16.6600       448
    16.6800       472
    16.7000       534
    16.7200       538
    16.7400       560
    16.7600       614
    16.7800       684
    16.8000       676
    16.8200       744
    16.8400       878
    16.8600       894
    16.8800      1012
    16.9000      1094
    16.9200      1324
    16.9400      1494
    16.9600      1708
    16.9800      1950
    17.0000      2210
    17.0200      2430
    17.0400      2550
    17.0600      2540
    17.0800      2444
    17.1000      2078
    17.1200      1768
    17.1400      1524
    17.1600      1354
    17.1800      1198
    17.2000      1044
    17.2200      1032
    17.2400       970
    17.2600       912
    17.2800       862
    17.3000       854
    17.3200       786
    17.3400       678
    17.3600       684
    17.3800       626
    17.4000       558
    17.4200       554
    17.4400       544
    17.4600       530
    17.4800       570
    17.5000       506
    17.5200       522
    17.5400       496
    17.5600       498
    17.5800       486
    17.6000       552
    17.6200       600
    17.6400       596
    17.6600       564
    17.6800       604
    17.7000       672
    17.7200       700
    17.7400       714
    17.7600       842
    17.7800       784
    17.8000       850
    17.8200       816
    17.8400       796
    17.8600       740
    17.8800       654
    17.9000       574
    17.9200       476
    17.9400       428
    17.9600       398
    17.9800       392
    18.0000       322
    18.0200       346
    18.0400       304
    18.0600       298
    18.0800       280
    18.1000       246
    18.1200       280
    18.1400       270
    18.1600       292
    18.1800       252
    18.2000       272
    18.2200       256
    18.2400       230
    18.2600       260
    18.2800       238
    18.3000       240
    18.3200       248
    18.3400       264
    18.3600       246
    18.3800       234
    18.4000       260
    18.4200       252
    18.4400       246
    18.4600       270
    18.4800       238
    18.5000       234
    18.5200       290
    18.5400       248
    18.5600       258
    18.5800       254
    18.6000       250
    18.6200       280
    18.6400       258
    18.6600       262
    18.6800       262
    18.7000       244
    18.7200       252
    18.7400       248
    18.7600       284
    18.7800       248
    18.8000       300
    18.8200       256
    18.8400       296
    18.8600       278
    18.8800       322
    18.9000       310
    18.9200       306
    18.9400       322
    18.9600       320
    18.9800       304
    19.0000       312
    19.0200       336
    19.0400       308
    19.0600       352
    19.0800       358
    19.1000       344
    19.1200       384
    19.1400       352
    19.1600       370
    19.1800       422
    19.2000       410
    19.2200       434
    19.2400       492
    19.2600       520
    19.2800       614
    19.3000       600
    19.3200       680
    19.3400       766
    19.3600       866
    19.3800       986
    19.4000      1112
    19.4200      1226
    19.4400      1330
    19.4600      1568
    19.4800      1656
    19.5000      2014
    19.5200      2054
    19.5400      2210
    19.5600      2090
    19.5800      1966
    19.6000      1650
    19.6200      1380
    19.6400      1166
    19.6600       968
    19.6800       868
    19.7000       774
    19.7200       720
    19.7400       720
    19.7600       790
    19.7800       800
    19.8000       852
    19.8200       848
    19.8400       996
    19.8600      1040
    19.8800      1178
    19.9000      1386
    19.9200      1416
    19.9400      1580
    19.9600      1630
    19.9800      1712
    20.0000      1598
    20.0200      1390
    20.0400      1230
    20.0600      1092
    20.0800       894
    20.1000       748
    20.1200       638
    20.1400       532
    20.1600       476
    20.1800       438
    20.2000       394
    20.2200       368
    20.2400       378
    20.2600       360
    20.2800       352
    20.3000       324
    20.3200       330
    20.3400       284
    20.3600       300
    20.3800       298
    20.4000       274
    20.4200       274
    20.4400       268
    20.4600       298
    20.4800       266
    20.5000       258
    20.5200       272
    20.5400       264
    20.5600       262
    20.5800       298
    20.6000       262
    20.6200       262
    20.6400       286
    20.6600       290
    20.6800       296
    20.7000       288
    20.7200       316
    20.7400       308
    20.7600       338
    20.7800       320
    20.8000       338
    20.8200       374
    20.8400       378
    20.8600       402
    20.8800       408
    20.9000       422
    20.9200       482
    20.9400       504
    20.9600       604
    20.9800       642
    21.0000       740
    21.0200       784
    21.0400       860
    21.0600       974
    21.0800      1174
    21.1000      1268
    21.1200      1450
    21.1400      1576
    21.1600      1808
    21.1800      1950
    21.2000      2000
    21.2200      1878
    21.2400      1860
    21.2600      1724
    21.2800      1556
    21.3000      1298
    21.3200      1184
    21.3400       940
    21.3600       774
    21.3800       656
    21.4000       558
    21.4200       494
    21.4400       430
    21.4600       408
    21.4800       386
    21.5000       342
    21.5200       288
    21.5400       286
    21.5600       312
    21.5800       280
    21.6000       304
    21.6200       300
    21.6400       276
    21.6600       262
    21.6800       244
    21.7000       274
    21.7200       258
    21.7400       250
    21.7600       242
    21.7800       254
    21.8000       272
    21.8200       206
    21.8400       252
    21.8600       256
    21.8800       256
    21.9000       248
    21.9200       242
    21.9400       268
    21.9600       250
    21.9800       244
    22.0000       248
    22.0200       248
    22.0400       234
    22.0600       228
    22.0800       268
    22.1000       250
    22.1200       262
    22.1400       250
    22.1600       242
    22.1800       266
    22.2000       240
    22.2200       268
    22.2400       236
    22.2600       278
    22.2800       248
    22.3000       264
    22.3200       272
    22.3400       290
    22.3600       294
    22.3800       294
    22.4000       298
    22.4200       330
    22.4400       372
    22.4600       386
    22.4800       426
    22.5000       430
    22.5200       452
    22.5400       502
    22.5600       534
    22.5800       620
    22.6000       670
    22.6200       722
    22.6400       870
    22.6600       958
    22.6800      1012
    22.7000      1196
    22.7200      1414
    22.7400      1580
    22.7600      1884
    22.7800      2190
    22.8000      2390
    22.8200      2758
    22.8400      2884
    22.8600      2880
    22.8800      2774
    22.9000      2512
    22.9200      2212
    22.9400      1792
    22.9600      1494
    22.9800      1196
    23.0000      1026
    23.0200       820
    23.0400       732
    23.0600       670
    23.0800       616
    23.1000       542
    23.1200       464
    23.1400       414
    23.1600       414
    23.1800       402
    23.2000       384
    23.2200       386
    23.2400       362
    23.2600       326
    23.2800       284
    23.3000       318
    23.3200       332
    23.3400       310
    23.3600       326
    23.3800       290
    23.4000       298
    23.4200       292
    23.4400       254
    23.4600       312
    23.4800       276
    23.5000       254
    23.5200       266
    23.5400       266
    23.5600       274
    23.5800       280
    23.6000       264
    23.6200       262
    23.6400       252
    23.6600       268
    23.6800       232
    23.7000       246
    23.7200       286
    23.7400       252
    23.7600       256
    23.7800       272
    23.8000       266
    23.8200       264
    23.8400       242
    23.8600       260
    23.8800       250
    23.9000       274
    23.9200       226
    23.9400       252
    23.9600       282
    23.9800       256
    24.0000       298
    24.0200       258
    24.0400       308
    24.0600       284
    24.0800       280
    24.1000       282
    24.1200       312
    24.1400       296
    24.1600       352
    24.1800       354
    24.2000       344
    24.2200       390
    24.2400       392
    24.2600       410
    24.2800       450
    24.3000       468
    24.3200       504
    24.3400       566
    24.3600       562
    24.3800       654
    24.4000       754
    24.4200       808
    24.4400       878
    24.4600       992
    24.4800      1016
    24.5000      1192
    24.5200      1212
    24.5400      1240
    24.5600      1270
    24.5800      1200
    24.6000      1202
    24.6200      1088
    24.6400      1022
    24.6600       954
    24.6800       840
    24.7000       866
    24.7200       810
    24.7400       806
    24.7600       784
    24.7800       718
    24.8000       680
    24.8200       650
    24.8400       622
    24.8600       606
    24.8800       544
    24.9000       516
    24.9200       608
    24.9400       518
    24.9600       522
    24.9800       538
    25.0000       538
    25.0200       558
    25.0400       570
    25.0600       636
    25.0800       638
    25.1000       672
    25.1200       700
    25.1400       796
    25.1600       868
    25.1800       874
    25.2000       978
    25.2200      1022
    25.2400      1220
    25.2600      1260
    25.2800      1302
    25.3000      1304
    25.3200      1398
    25.3400      1262
    25.3600      1142
    25.3800      1002
    25.4000      1010
    25.4200       822
    25.4400       808
    25.4600       736
    25.4800       774
    25.5000       802
    25.5200       790
    25.5400       834
    25.5600       892
    25.5800       828
    25.6000       854
    25.6200       830
    25.6400       786
    25.6600       712
    25.6800       660
    25.7000       602
    25.7200       470
    25.7400       504
    25.7600       470
    25.7800       488
    25.8000       404
    25.8200       406
    25.8400       440
    25.8600       438
    25.8800       384
    25.9000       370
    25.9200       338
    25.9400       340
    25.9600       338
    25.9800       358
    26.0000       300
    26.0200       306
    26.0400       304
    26.0600       304
    26.0800       296
    26.1000       312
    26.1200       316
    26.1400       270
    26.1600       284
    26.1800       306
    26.2000       284
    26.2200       280
    26.2400       288
    26.2600       268
    26.2800       262
    26.3000       262
    26.3200       276
    26.3400       274
    26.3600       300
    26.3800       276
    26.4000       290
    26.4200       296
    26.4400       278
    26.4600       272
    26.4800       288
    26.5000       322
    26.5200       330
    26.5400       284
    26.5600       252
    26.5800       310
    26.6000       286
    26.6200       274
    26.6400       286
    26.6600       302
    26.6800       264
    26.7000       272
    26.7200       304
    26.7400       280
    26.7600       292
    26.7800       262
    26.8000       298
    26.8200       280
    26.8400       256
    26.8600       268
    26.8800       288
    26.9000       274
    26.9200       310
    26.9400       288
    26.9600       276
    26.9800       280
    27.0000       288
    27.0200       282
    27.0400       308
    27.0600       304
    27.0800       314
    27.1000       344
    27.1200       346
    27.1400       328
    27.1600       378
    27.1800       364
    27.2000       400
    27.2200       440
    27.2400       476
    27.2600       536
    27.2800       622
    27.3000       620
    27.3200       662
    27.3400       726
    27.3600       896
    27.3800       990
    27.4000      1010
    27.4200      1118
    27.4400      1164
    27.4600      1256
    27.4800      1266
    27.5000      1208
    27.5200      1200
    27.5400      1170
    27.5600      1128
    27.5800      1036
    27.6000       900
    27.6200       832
    27.6400       742
    27.6600       642
    27.6800       568
    27.7000       500
    27.7200       488
    27.7400       466
    27.7600       430
    27.7800       430
    27.8000       414
    27.8200       344
    27.8400       348
    27.8600       354
    27.8800       336
    27.9000       330
    27.9200       332
    27.9400       328
    27.9600       294
    27.9800       312
    28.0000       308
    28.0200       296
    28.0400       318
    28.0600       302
    28.0800       306
    28.1000       274
    28.1200       310
    28.1400       296
    28.1600       304
    28.1800       318
    28.2000       300
    28.2200       292
    28.2400       322
    28.2600       298
    28.2800       374
    28.3000       330
    28.3200       322
    28.3400       334
    28.3600       306
    28.3800       310
    28.4000       336
    28.4200       344
    28.4400       302
    28.4600       332
    28.4800       334
    28.5000       340
    28.5200       328
    28.5400       360
    28.5600       304
    28.5800       348
    28.6000       360
    28.6200       392
    28.6400       402
    28.6600       426
    28.6800       456
    28.7000       464
    28.7200       462
    28.7400       476
    28.7600       444
    28.7800       436
    28.8000       412
    28.8200       406
    28.8400       348
    28.8600       382
    28.8800       392
    28.9000       352
    28.9200       374
    28.9400       328
    28.9600       354
    28.9800       354
    29.0000       328
    29.0200       350
    29.0400       358
    29.0600       334
    29.0800       348
    29.1000       366
    29.1200       340
    29.1400       348
    29.1600       364
    29.1800       356
    29.2000       398
    29.2200       418
    29.2400       438
    29.2600       432
    29.2800       448
    29.3000       476
    29.3200       484
    29.3400       488
    29.3600       522
    29.3800       558
    29.4000       582
    29.4200       628
    29.4400       676
    29.4600       722
    29.4800       786
    29.5000       812
    29.5200       860
    29.5400       926
    29.5600      1014
    29.5800      1114
    29.6000      1210
    29.6200      1244
    29.6400      1348
    29.6600      1328
    29.6800      1306
    29.7000      1208
    29.7200      1110
    29.7400      1038
    29.7600       990
    29.7800       880
    29.8000       746
    29.8200       710
    29.8400       744
    29.8600       714
    29.8800       766
    29.9000       806
    29.9200       820
    29.9400       818
    29.9600       882
    29.9800      1028
    30.0000      1040
    30.0200      1102
    30.0400      1330
    30.0600      1450
    30.0800      1510
    30.1000      1770
    30.1200      1970
    30.1400      2194
    30.1600      2274
    30.1800      2454
    30.2000      2430
    30.2200      2328
    30.2400      2338
    30.2600      2364
    30.2800      2306
    30.3000      2226
    30.3200      2156
    30.3400      2164
    30.3600      2160
    30.3800      2160
    30.4000      2324
    30.4200      2366
    30.4400      2556
    30.4600      2676
    30.4800      3000
    30.5000      3258
    30.5200      3702
    30.5400      4076
    30.5600      4688
    30.5800      5076
    30.6000      5676
    30.6200      6360
    30.6400      6718
    30.6600      7058
    30.6800      7154
    30.7000      6930
    30.7200      6322
    30.7400      5828
    30.7600      5042
    30.7800      4522
    30.8000      3654
    30.8200      3180
    30.8400      2524
    30.8600      2242
    30.8800      1914
    30.9000      1752
    30.9200      1522
    30.9400      1400
    30.9600      1314
    30.9800      1222
    31.0000      1144
    31.0200      1102
    31.0400      1010
    31.0600       976
    31.0800       920
    31.1000       912
    31.1200       824
    31.1400       840
    31.1600       844
    31.1800       716
    31.2000       774
    31.2200       654
    31.2400       678
    31.2600       638
    31.2800       610
    31.3000       596
    31.3200       562
    31.3400       524
    31.3600       510
    31.3800       508
    31.4000       478
    31.4200       498
    31.4400       468
    31.4600       432
    31.4800       444
    31.5000       440
    31.5200       456
    31.5400       444
    31.5600       442
    31.5800       432
    31.6000       474
    31.6200       428
    31.6400       500
    31.6600       534
    31.6800       520
    31.7000       520
    31.7200       566
    31.7400       570
    31.7600       588
    31.7800       622
    31.8000       676
    31.8200       738
    31.8400       830
    31.8600       904
    31.8800      1034
    31.9000      1152
    31.9200      1258
    31.9400      1348
    31.9600      1476
    31.9800      1542
    32.0000      1630
    32.0200      1518
    32.0400      1482
    32.0600      1440
    32.0800      1302
    32.1000      1258
    32.1200      1086
    32.1400      1018
    32.1600      1042
    32.1800       988
    32.2000       990
    32.2200      1086
    32.2400      1066
    32.2600      1126
    32.2800      1198
    32.3000      1406
    32.3200      1462
    32.3400      1672
    32.3600      1808
    32.3800      2156
    32.4000      2466
    32.4200      2854
    32.4400      3228
    32.4600      3568
    32.4800      4100
    32.5000      4480
    32.5200      4782
    32.5400      4956
    32.5600      4990
    32.5800      4706
    32.6000      4478
    32.6200      4310
    32.6400      3756
    32.6600      3368
    32.6800      3006
    32.7000      2578
    32.7200      2234
    32.7400      1906
    32.7600      1682
    32.7800      1464
    32.8000      1326
    32.8200      1192
    32.8400      1114
    32.8600      1060
    32.8800      1018
    32.9000      1062
    32.9200       968
    32.9400      1068
    32.9600      1024
    32.9800      1034
    33.0000      1098
    33.0200      1132
    33.0400      1200
    33.0600      1198
    33.0800      1206
    33.1000      1172
    33.1200      1068
    33.1400       992
    33.1600       924
    33.1800       772
    33.2000       790
    33.2200       676
    33.2400       658
    33.2600       570
    33.2800       526
    33.3000       480
    33.3200       454
    33.3400       426
    33.3600       420
    33.3800       388
    33.4000       352
    33.4200       362
    33.4400       328
    33.4600       364
    33.4800       312
    33.5000       310
    33.5200       330
    33.5400       328
    33.5600       298
    33.5800       316
    33.6000       284
    33.6200       294
    33.6400       306
    33.6600       294
    33.6800       284
    33.7000       322
    33.7200       282
    33.7400       234
    33.7600       270
    33.7800       284
    33.8000       286
    33.8200       272
    33.8400       276
    33.8600       278
    33.8800       264
    33.9000       256
    33.9200       284
    33.9400       258
    33.9600       288
    33.9800       264
    34.0000       276
    34.0200       274
    34.0400       278
    34.0600       270
    34.0800       298
    34.1000       280
    34.1200       298
    34.1400       276
    34.1600       284
    34.1800       302
    34.2000       304
    34.2200       330
    34.2400       350
    34.2600       344
    34.2800       372
    34.3000       364
    34.3200       358
    34.3400       406
    34.3600       430
    34.3800       472
    34.4000       456
    34.4200       546
    34.4400       568
    34.4600       646
    34.4800       658
    34.5000       702
    34.5200       686
    34.5400       682
    34.5600       662
    34.5800       636
    34.6000       594
    34.6200       542
    34.6400       452
    34.6600       448
    34.6800       412
    34.7000       392
    34.7200       406
    34.7400       422
    34.7600       394
    34.7800       418
    34.8000       382
    34.8200       356
    34.8400       378
    34.8600       362
    34.8800       378
    34.9000       338
    34.9200       342
    34.9400       334
    34.9600       356
    34.9800       348
    35.0000       332
    35.0200       306
    35.0400       294
    35.0600       344
    35.0800       332
    35.1000       290
    35.1200       316
    35.1400       266
    35.1600       272
    35.1800       306
    35.2000       288
    35.2200       294
    35.2400       292
    35.2600       330
    35.2800       262
    35.3000       296
    35.3200       296
    35.3400       300
    35.3600       252
    35.3800       270
    35.4000       288
    35.4200       310
    35.4400       290
    35.4600       300
    35.4800       296
    35.5000       312
    35.5200       306
    35.5400       334
    35.5600       302
    35.5800       340
    35.6000       338
    35.6200       310
    35.6400       322
    35.6600       358
    35.6800       302
    35.7000       372
    35.7200       362
    35.7400       382
    35.7600       378
    35.7800       388
    35.8000       344
    35.8200       436
    35.8400       490
    35.8600       478
    35.8800       510
    35.9000       526
    35.9200       612
    35.9400       568
    35.9600       612
    35.9800       650
    36.0000       758
    36.0200       732
    36.0400       826
    36.0600       946
    36.0800       978
    36.1000       962
    36.1200       978
    36.1400       924
    36.1600       880
    36.1800       862
    36.2000       818
    36.2200       740
    36.2400       684
    36.2600       596
    36.2800       622
    36.3000       544
    36.3200       526
    36.3400       482
    36.3600       432
    36.3800       468
    36.4000       462
    36.4200       430
    36.4400       416
    36.4600       450
    36.4800       408
    36.5000       414
    36.5200       460
    36.5400       434
    36.5600       468
    36.5800       492
    36.6000       444
    36.6200       482
    36.6400       538
    36.6600       592
    36.6800       592
    36.7000       680
    36.7200       708
    36.7400       778
    36.7600       860
    36.7800       948
    36.8000      1008
    36.8200      1048
    36.8400      1254
    36.8600      1350
    36.8800      1352
    36.9000      1386
    36.9200      1352
    36.9400      1260
    36.9600      1286
    36.9800      1200
    37.0000      1088
    37.0200      1106
    37.0400       994
    37.0600      1020
    37.0800       942
    37.1000       966
    37.1200       898
    37.1400       948
    37.1600       908
    37.1800       944
    37.2000       878
    37.2200       848
    37.2400       850
    37.2600       794
    37.2800       726
    37.3000       726
    37.3200       678
    37.3400       692
    37.3600       604
    37.3800       628
    37.4000       626
    37.4200       516
    37.4400       514
    37.4600       560
    37.4800       562
    37.5000       488
    37.5200       494
    37.5400       522
    37.5600       518
    37.5800       508
    37.6000       522
    37.6200       536
    37.6400       512
    37.6600       524
    37.6800       556
    37.7000       596
    37.7200       620
    37.7400       666
    37.7600       606
    37.7800       648
    37.8000       778
    37.8200       730
    37.8400       830
    37.8600       870
    37.8800       896
    37.9000      1024
    37.9200      1142
    37.9400      1236
    37.9600      1350
    37.9800      1414
    38.0000      1518
    38.0200      1592
    38.0400      1546
    38.0600      1614
    38.0800      1538
    38.1000      1536
    38.1200      1420
    38.1400      1416
    38.1600      1372
    38.1800      1352
    38.2000      1400
    38.2200      1406
    38.2400      1518
    38.2600      1518
    38.2800      1592
    38.3000      1848
    38.3200      1976
    38.3400      2208
    38.3600      2372
    38.3800      2724
    38.4000      2928
    38.4200      3286
    38.4400      3536
    38.4600      3656
    38.4800      4020
    38.5000      4246
    38.5200      4616
    38.5400      4628
    38.5600      4818
    38.5800      5138
    38.6000      5284
    38.6200      5500
    38.6400      5358
    38.6600      5430
    38.6800      5168
    38.7000      5076
    38.7200      4824
    38.7400      4568
    38.7600      4196
    38.7800      3772
    38.8000      3394
    38.8200      3102
    38.8400      2778
    38.8600      2416
    38.8800      2166
    38.9000      2008
    38.9200      1842
    38.9400      1658
    38.9600      1504
    38.9800      1466
    39.0000      1402
    39.0200      1406
    39.0400      1372
    39.0600      1316
    39.0800      1334
    39.1000      1366
    39.1200      1352
    39.1400      1320
    39.1600      1310
    39.1800      1338
    39.2000      1336
    39.2200      1340
    39.2400      1356
    39.2600      1376
    39.2800      1336
    39.3000      1410
    39.3200      1416
    39.3400      1372
    39.3600      1356
    39.3800      1336
    39.4000      1350
    39.4200      1270
    39.4400      1264
    39.4600      1292
    39.4800      1278
    39.5000      1266
    39.5200      1238
    39.5400      1270
    39.5600      1288
    39.5800      1332
    39.6000      1400
    39.6200      1530
    39.6400      1538
    39.6600      1578
    39.6800      1624
    39.7000      1706
    39.7200      1650
    39.7400      1592
    39.7600      1522
    39.7800      1354
    39.8000      1276
    39.8200      1216
    39.8400      1144
    39.8600      1060
    39.8800       946
    39.9000       940
    39.9200       876
    39.9400       818
    39.9600       764
    39.9800       802
    40.0000       816
    40.0200       842
    40.0400       810
    40.0600       864
    40.0800       814
    40.1000       868
    40.1200       946
    40.1400       942
    40.1600       916
    40.1800       960
    40.2000      1000
    40.2200       916
    40.2400       906
    40.2600      1020
    40.2800       974
    40.3000       994
    40.3200       984
    40.3400      1048
    40.3600      1056
    40.3800      1170
    40.4000      1170
    40.4200      1230
    40.4400      1222
    40.4600      1358
    40.4800      1450
    40.5000      1618
    40.5200      1590
    40.5400      1554
    40.5600      1614
    40.5800      1666
    40.6000      1574
    40.6200      1506
    40.6400      1442
    40.6600      1388
    40.6800      1234
    40.7000      1128
    40.7200      1080
    40.7400      1084
    40.7600       938
    40.7800       866
    40.8000       868
    40.8200       794
    40.8400       806
    40.8600       778
    40.8800       728
    40.9000       686
    40.9200       722
    40.9400       708
    40.9600       706
    40.9800       732
    41.0000       748
    41.0200       800
    41.0400       834
    41.0600       864
    41.0800       898
    41.1000      1022
    41.1200      1092
    41.1400      1120
    41.1600      1280
    41.1800      1394
    41.2000      1506
    41.2200      1554
    41.2400      1686
    41.2600      1710
    41.2800      1876
    41.3000      1910
    41.3200      1958
    41.3400      1936
    41.3600      2116
    41.3800      1998
    41.4000      2112
    41.4200      2032
    41.4400      2196
    41.4600      2134
    41.4800      1980
    41.5000      2096
    41.5200      2002
    41.5400      1858
    41.5600      1702
    41.5800      1646
    41.6000      1502
    41.6200      1352
    41.6400      1306
    41.6600      1280
    41.6800      1184
    41.7000      1200
    41.7200      1176
    41.7400      1130
    41.7600      1226
    41.7800      1204
    41.8000      1242
    41.8200      1202
    41.8400      1340
    41.8600      1358
    41.8800      1308
    41.9000      1330
    41.9200      1346
    41.9400      1212
    41.9600      1166
    41.9800      1124
    42.0000      1070
    42.0200      1020
    42.0400       928
    42.0600       914
    42.0800       792
    42.1000       726
    42.1200       678
    42.1400       622
    42.1600       622
    42.1800       560
    42.2000       520
    42.2200       558
    42.2400       530
    42.2600       512
    42.2800       492
    42.3000       480
    42.3200       500
    42.3400       446
    42.3600       444
    42.3800       452
    42.4000       448
    42.4200       438
    42.4400       422
    42.4600       430
    42.4800       462
    42.5000       460
    42.5200       412
    42.5400       420
    42.5600       396
    42.5800       424
    42.6000       406
    42.6200       436
    42.6400       422
    42.6600       432
    42.6800       430
    42.7000       416
    42.7200       416
    42.7400       400
    42.7600       434
    42.7800       450
    42.8000       434
    42.8200       456
    42.8400       432
    42.8600       520
    42.8800       484
    42.9000       496
    42.9200       524
    42.9400       538
    42.9600       596
    42.9800       632
    43.0000       640
    43.0200       674
    43.0400       800
    43.0600       828
    43.0800       896
    43.1000       944
    43.1200      1158
    43.1400      1122
    43.1600      1198
    43.1800      1316
    43.2000      1324
    43.2200      1316
    43.2400      1274
    43.2600      1164
    43.2800      1102
    43.3000      1044
    43.3200       996
    43.3400       896
    43.3600       896
    43.3800       746
    43.4000       732
    43.4200       732
    43.4400       686
    43.4600       582
    43.4800       554
    43.5000       532
    43.5200       528
    43.5400       558
    43.5600       522
    43.5800       518
    43.6000       540
    43.6200       516
    43.6400       532
    43.6600       490
    43.6800       488
    43.7000       528
    43.7200       554
    43.7400       524
    43.7600       586
    43.7800       562
    43.8000       588
    43.8200       618
    43.8400       610
    43.8600       594
    43.8800       596
    43.9000       604
    43.9200       556
    43.9400       534
    43.9600       546
    43.9800       506
    44.0000       524
    44.0200       518
    44.0400       514
    44.0600       482
    44.0800       506
    44.1000       494
    44.1200       474
    44.1400       516
    44.1600       486
    44.1800       490
    44.2000       492
    44.2200       512
    44.2400       538
    44.2600       506
    44.2800       550
    44.3000       536
    44.3200       522
    44.3400       520
    44.3600       564
    44.3800       506
    44.4000       530
    44.4200       546
    44.4400       534
    44.4600       564
    44.4800       556
    44.5000       544
    44.5200       588
    44.5400       588
    44.5600       650
    44.5800       602
    44.6000       644
    44.6200       622
    44.6400       676
    44.6600       712
    44.6800       716
    44.7000       784
    44.7200       798
    44.7400       820
    44.7600       808
    44.7800       846
    44.8000       876
    44.8200       958
    44.8400      1004
    44.8600      1098
    44.8800      1162
    44.9000      1298
    44.9200      1326
    44.9400      1460
    44.9600      1486
    44.9800      1614
    45.0000      1712
    45.0200      1854
    45.0400      1940
    45.0600      2068
    45.0800      2106
    45.1000      2230
    45.1200      2160
    45.1400      2240
    45.1600      2330
    45.1800      2422
    45.2000      2446
    45.2200      2436
    45.2400      2388
    45.2600      2340
    45.2800      2318
    45.3000      2220
    45.3200      2166
    45.3400      2042
    45.3600      1930
    45.3800      1868
    45.4000      1740
    45.4200      1690
    45.4400      1654
    45.4600      1658
    45.4800      1568
    45.5000      1380
    45.5200      1440
    45.5400      1396
    45.5600      1274
    45.5800      1274
    45.6000      1086
    45.6200      1042
    45.6400      1082
    45.6600       988
    45.6800       964
    45.7000       902
    45.7200       828
    45.7400       892
    45.7600       862
    45.7800       760
    45.8000       766
    45.8200       772
    45.8400       754
    45.8600       776
    45.8800       762
    45.9000       752
    45.9200       716
    45.9400       736
    45.9600       738
    45.9800       696
    46.0000       744
    46.0200       734
    46.0400       764
    46.0600       710
    46.0800       728
    46.1000       778
    46.1200       772
    46.1400       790
    46.1600       790
    46.1800       828
    46.2000       814
    46.2200       862
    46.2400       924
    46.2600       914
    46.2800       974
    46.3000      1002
    46.3200      1096
    46.3400      1230
    46.3600      1230
    46.3800      1330
    46.4000      1426
    46.4200      1578
    46.4400      1764
    46.4600      1900
    46.4800      2016
    46.5000      2200
    46.5200      2490
    46.5400      2812
    46.5600      3096
    46.5800      3478
    46.6000      3688
    46.6200      4058
    46.6400      4494
    46.6600      4596
    46.6800      4994
    46.7000      4960
    46.7200      5014
    46.7400      4880
    46.7600      4668
    46.7800      4430
    46.8000      4126
    46.8200      3802
    46.8400      3588
    46.8600      3264
    46.8800      2812
    46.9000      2540
    46.9200      2160
    46.9400      1860
    46.9600      1640
    46.9800      1514
    47.0000      1396
    47.0200      1256
    47.0400      1160
    47.0600      1022
    47.0800       998
    47.1000       840
    47.1200       834
    47.1400       844
    47.1600       742
    47.1800       692
    47.2000       696
    47.2200       690
    47.2400       678
    47.2600       628
    47.2800       580
    47.3000       560
    47.3200       590
    47.3400       536
    47.3600       552
    47.3800       528
    47.4000       520
    47.4200       498
    47.4400       514
    47.4600       508
    47.4800       492
    47.5000       490
    47.5200       500
    47.5400       502
    47.5600       490
    47.5800       498
    47.6000       472
    47.6200       466
    47.6400       470
    47.6600       514
    47.6800       510
    47.7000       538
    47.7200       544
    47.7400       602
    47.7600       586
    47.7800       642
    47.8000       640
    47.8200       660
    47.8400       656
    47.8600       614
    47.8800       632
    47.9000       572
    47.9200       608
    47.9400       620
    47.9600       566
    47.9800       604
    48.0000       620
    48.0200       562
    48.0400       584
    48.0600       604
    48.0800       614
    48.1000       626
    48.1200       666
    48.1400       682
    48.1600       700
    48.1800       684
    48.2000       750
    48.2200       764
    48.2400       742
    48.2600       736
    48.2800       748
    48.3000       716
    48.3200       782
    48.3400       856
    48.3600       786
    48.3800       862
    48.4000       832
    48.4200       860
    48.4400       904
    48.4600       914
    48.4800       952
    48.5000      1046
    48.5200      1116
    48.5400      1052
    48.5600      1154
    48.5800      1110
    48.6000      1146
    48.6200      1138
    48.6400      1090
    48.6600      1122
    48.6800      1060
    48.7000      1074
    48.7200      1022
    48.7400       966
    48.7600       962
    48.7800       872
    48.8000       806
    48.8200       784
    48.8400       792
    48.8600       692
    48.8800       666
    48.9000       590
    48.9200       592
    48.9400       628
    48.9600       560
    48.9800       516
    49.0000       554
    49.0200       470
    49.0400       514
    49.0600       470
    49.0800       406
    49.1000       418
    49.1200       408
    49.1400       420
    49.1600       432
    49.1800       390
    49.2000       334
    49.2200       390
    49.2400       358
    49.2600       366
    49.2800       362
    49.3000       354
    49.3200       376
    49.3400       390
    49.3600       356
    49.3800       332
    49.4000       376
    49.4200       346
    49.4400       350
    49.4600       370
    49.4800       350
    49.5000       326
    49.5200       372
    49.5400       396
    49.5600       384
    49.5800       380
    49.6000       362
    49.6200       356
    49.6400       406
    49.6600       380
    49.6800       400
    49.7000       422
    49.7200       372
    49.7400       416
    49.7600       390
    49.7800       438
    49.8000       402
    49.8200       428
    49.8400       426
    49.8600       428
    49.8800       418
    49.9000       498
    49.9200       510
    49.9400       524
    49.9600       540
    49.9800       512
    50.0000       548
    50.0200       568
    50.0400       634
    50.0600       736
    50.0800       760
    50.1000       676
    50.1200       772
    50.1400       888
    50.1600       902
    50.1800       968
    50.2000      1064
    50.2200      1096
    50.2400      1206
    50.2600      1140
    50.2800      1268
    50.3000      1314
    50.3200      1314
    50.3400      1382
    50.3600      1362
    50.3800      1402
    50.4000      1384
    50.4200      1444
    50.4400      1342
    50.4600      1308
    50.4800      1372
    50.5000      1370
    50.5200      1294
    50.5400      1316
    50.5600      1378
    50.5800      1362
    50.6000      1468
    50.6200      1450
    50.6400      1480
    50.6600      1558
    50.6800      1646
    50.7000      1770
    50.7200      1764
    50.7400      1988
    50.7600      2084
    50.7800      2168
    50.8000      2194
    50.8200      2150
    50.8400      2138
    50.8600      2098
    50.8800      2030
    50.9000      2054
    50.9200      1930
    50.9400      1762
    50.9600      1734
    50.9800      1620
    51.0000      1470
    51.0200      1410
    51.0400      1328
    51.0600      1246
    51.0800      1166
    51.1000      1082
    51.1200      1050
    51.1400       924
    51.1600       988
    51.1800       960
    51.2000       954
    51.2200       914
    51.2400       868
    51.2600       858
    51.2800       882
    51.3000       840
    51.3200       906
    51.3400       908
    51.3600       848
    51.3800       886
    51.4000       934
    51.4200       904
    51.4400       880
    51.4600       846
    51.4800       828
    51.5000       924
    51.5200       904
    51.5400       962
    51.5600       924
    51.5800       848
    51.6000       896
    51.6200       884
    51.6400       930
    51.6600       974
    51.6800      1032
    51.7000      1046
    51.7200      1164
    51.7400      1146
    51.7600      1292
    51.7800      1314
    51.8000      1452
    51.8200      1496
    51.8400      1650
    51.8600      1770
    51.8800      1864
    51.9000      1906
    51.9200      2084
    51.9400      2052
    51.9600      2114
    51.9800      2206
    52.0000      2038
    52.0200      2034
    52.0400      1900
    52.0600      1798
    52.0800      1708
    52.1000      1634
    52.1200      1480
    52.1400      1402
    52.1600      1286
    52.1800      1182
    52.2000      1032
    52.2200      1016
    52.2400       952
    52.2600       912
    52.2800       846
    52.3000       878
    52.3200       784
    52.3400       776
    52.3600       758
    52.3800       788
    52.4000       832
    52.4200       826
    52.4400       892
    52.4600       856
    52.4800       926
    52.5000      1040
    52.5200      1034
    52.5400      1078
    52.5600      1088
    52.5800      1090
    52.6000      1102
    52.6200      1154
    52.6400      1188
    52.6600      1166
    52.6800      1132
    52.7000      1190
    52.7200      1222
    52.7400      1158
    52.7600      1098
    52.7800      1056
    52.8000      1076
    52.8200      1034
    52.8400       930
    52.8600       898
    52.8800       900
    52.9000       794
    52.9200       810
    52.9400       874
    52.9600       822
    52.9800       770
    53.0000       820
    53.0200       802
    53.0400       748
    53.0600       802
    53.0800       836
    53.1000       852
    53.1200       942
    53.1400       880
    53.1600       952
    53.1800      1048
    53.2000      1072
    53.2200      1066
    53.2400      1190
    53.2600      1212
    53.2800      1194
    53.3000      1188
    53.3200      1180
    53.3400      1144
    53.3600      1070
    53.3800      1056
    53.4000      1018
    53.4200       998
    53.4400       968
    53.4600       904
    53.4800       918
    53.5000       826
    53.5200       794
    53.5400       768
    53.5600       674
    53.5800       724
    53.6000       664
    53.6200       686
    53.6400       674
    53.6600       652
    53.6800       614
    53.7000       674
    53.7200       572
    53.7400       580
    53.7600       584
    53.7800       582
    53.8000       556
    53.8200       572
    53.8400       594
    53.8600       548
    53.8800       534
    53.9000       576
    53.9200       560
    53.9400       506
    53.9600       530
    53.9800       524
    54.0000       556
    54.0200       478
    54.0400       506
    54.0600       570
    54.0800       574
    54.1000       556
    54.1200       558
    54.1400       608
    54.1600       586
    54.1800       590
    54.2000       650
    54.2200       640
    54.2400       664
    54.2600       654
    54.2800       778
    54.3000       728
    54.3200       714
    54.3400       752
    54.3600       804
    54.3800       760
    54.4000       744
    54.4200       812
    54.4400       832
    54.4600       968
    54.4800       914
    54.5000       814
    54.5200       840
    54.5400       874
    54.5600       790
    54.5800       820
    54.6000       782
    54.6200       792
    54.6400       822
    54.6600       872
    54.6800       796
    54.7000       808
    54.7200       836
    54.7400       820
    54.7600       830
    54.7800       824
    54.8000       722
    54.8200       814
    54.8400       746
    54.8600       788
    54.8800       770
    54.9000       792
    54.9200       766
    54.9400       798
    54.9600       788
    54.9800       802
    55.0000       818
    55.0200       902
    55.0400       906
    55.0600       908
    55.0800       940
    55.1000       982
    55.1200      1014
    55.1400       974
    55.1600       986
    55.1800      1028
    55.2000      1058
    55.2200       992
    55.2400      1010
    55.2600       990
    55.2800       990
    55.3000       934
    55.3200       920
    55.3400       948
    55.3600       880
    55.3800       880
    55.4000       866
    55.4200       810
    55.4400       806
    55.4600       738
    55.4800       730
    55.5000       740
    55.5200       622
    55.5400       620
    55.5600       552
    55.5800       604
    55.6000       542
    55.6200       520
    55.6400       506
    55.6600       468
    55.6800       472
    55.7000       422
    55.7200       440
    55.7400       416
    55.7600       418
    55.7800       388
    55.8000       386
    55.8200       344
    55.8400       364
    55.8600       362
    55.8800       354
    55.9000       382
    55.9200       362
    55.9400       338
    55.9600       328
    55.9800       324
    56.0000       350
    56.0200       334
    56.0400       376
    56.0600       352
    56.0800       372
    56.1000       374
    56.1200       348
    56.1400       358
    56.1600       340
    56.1800       348
    56.2000       396
    56.2200       368
    56.2400       358
    56.2600       378
    56.2800       424
    56.3000       380
    56.3200       392
    56.3400       406
    56.3600       390
    56.3800       392
    56.4000       400
    56.4200       392
    56.4400       414
    56.4600       424
    56.4800       426
    56.5000       436
    56.5200       448
    56.5400       456
    56.5600       478
    56.5800       490
    56.6000       540
    56.6200       526
    56.6400       568
    56.6600       546
    56.6800       612
    56.7000       640
    56.7200       680
    56.7400       678
    56.7600       690
    56.7800       692
    56.8000       704
    56.8200       680
    56.8400       690
    56.8600       676
    56.8800       588
    56.9000       630
    56.9200       608
    56.9400       594
    56.9600       556
    56.9800       568
    57.0000       576
    57.0200       524
    57.0400       602
    57.0600       572
    57.0800       612
    57.1000       562
    57.1200       600
    57.1400       626
    57.1600       598
    57.1800       688
    57.2000       710
    57.2200       752
    57.2400       792
    57.2600       864
    57.2800       878
    57.3000       960
    57.3200      1026
    57.3400      1022
    57.3600      1038
    57.3800      1048
    57.4000      1122
    57.4200      1164
    57.4400      1088
    57.4600      1076
    57.4800      1060
    57.5000      1074
    57.5200      1048
    57.5400       992
    57.5600      1084
    57.5800      1068
    57.6000      1028
    57.6200      1026
    57.6400      1040
    57.6600      1072
    57.6800      1074
    57.7000      1122
    57.7200      1118
    57.7400      1168
    57.7600      1140
    57.7800      1116
    57.8000      1116
    57.8200      1086
    57.8400       960
    57.8600       906
    57.8800       964
    57.9000       924
    57.9200       828
    57.9400       840
    57.9600       836
    57.9800       776
    58.0000       768
    58.0200       794
    58.0400       726
    58.0600       656
    58.0800       738
    58.1000       714
    58.1200       702
    58.1400       696
    58.1600       716
    58.1800       772
    58.2000       796
    58.2200       792
    58.2400       820
    58.2600       816
    58.2800       900
    58.3000       956
    58.3200       954
    58.3400      1040
    58.3600      1084
    58.3800      1158
    58.4000      1198
    58.4200      1284
    58.4400      1308
    58.4600      1362
    58.4800      1418
    58.5000      1472
    58.5200      1480
    58.5400      1572
    58.5600      1634
    58.5800      1690
    58.6000      1720
    58.6200      1898
    58.6400      1880
    58.6600      1990
    58.6800      2006
    58.7000      2050
    58.7200      2106
    58.7400      2114
    58.7600      2006
    58.7800      2008
    58.8000      1946
    58.8200      1852
    58.8400      1900
    58.8600      1652
    58.8800      1738
    58.9000      1546
    58.9200      1540
    58.9400      1466
    58.9600      1326
    58.9800      1340
    59.0000      1226
    59.0200      1120
    59.0400      1136
    59.0600      1094
    59.0800      1064
    59.1000       980
    59.1200      1036
    59.1400       992
    59.1600       998
    59.1800      1054
    59.2000       914
    59.2200      1030
    59.2400      1072
    59.2600      1182
    59.2800      1222
    59.3000      1272
    59.3200      1306
    59.3400      1328
    59.3600      1472
    59.3800      1532
    59.4000      1610
    59.4200      1622
    59.4400      1696
    59.4600      1676
    59.4800      1664
    59.5000      1630
    59.5200      1698
    59.5400      1568
    59.5600      1558
    59.5800      1524
    59.6000      1478
    59.6200      1458
    59.6400      1404
    59.6600      1296
    59.6800      1288
    59.7000      1266
    59.7200      1224
    59.7400      1178
    59.7600      1092
    59.7800      1056
    59.8000      1030
    59.8200      1008
    59.8400       996
    59.8600       984
    59.8800       942
    59.9000       952
    59.9200       856
    59.9400       874
    59.9600       836
    59.9800       786
    60.0000       770
    60.0200       768
    60.0400       754
    60.0600       762
    60.0800       682
    60.1000       700
    60.1200       612
    60.1400       616
    60.1600       538
    60.1800       604
    60.2000       560
    60.2200       542
    60.2400       544
    60.2600       522
    60.2800       500
    60.3000       518
    60.3200       462
    60.3400       512
    60.3600       426
    60.3800       460
    60.4000       452
    60.4200       448
    60.4400       460
    60.4600       436
    60.4800       440
    60.5000       430
    60.5200       414
    60.5400       396
    60.5600       410
    60.5800       418
    60.6000       434
    60.6200       448
    60.6400       466
    60.6600       410
    60.6800       438
    60.7000       464
    60.7200       496
    60.7400       426
    60.7600       452
    60.7800       468
    60.8000       498
    60.8200       464
    60.8400       464
    60.8600       438
    60.8800       514
    60.9000       504
    60.9200       586
    60.9400       562
    60.9600       558
    60.9800       568
    61.0000       578
    61.0200       576
    61.0400       630
    61.0600       698
    61.0800       734
    61.1000       752
    61.1200       734
    61.1400       758
    61.1600       740
    61.1800       782
    61.2000       798
    61.2200       820
    61.2400       852
    61.2600       872
    61.2800       942
    61.3000       910
    61.3200       900
    61.3400      1014
    61.3600      1024
    61.3800      1052
    61.4000      1154
    61.4200      1110
    61.4400      1168
    61.4600      1238
    61.4800      1290
    61.5000      1354
    61.5200      1372
    61.5400      1376
    61.5600      1448
    61.5800      1446
    61.6000      1362
    61.6200      1324
    61.6400      1320
    61.6600      1300
    61.6800      1236
    61.7000      1216
    61.7200      1158
    61.7400      1094
    61.7600      1060
    61.7800       960
    61.8000       938
    61.8200       902
    61.8400       816
    61.8600       810
    61.8800       764
    61.9000       762
    61.9200       688
    61.9400       706
    61.9600       650
    61.9800       616
    62.0000       622
    62.0200       546
    62.0400       594
    62.0600       612
    62.0800       546
    62.1000       552
    62.1200       542
    62.1400       526
    62.1600       562
    62.1800       522
    62.2000       508
    62.2200       518
    62.2400       490
    62.2600       470
    62.2800       474
    62.3000       466
    62.3200       474
    62.3400       464
    62.3600       450
    62.3800       444
    62.4000       504
    62.4200       452
    62.4400       390
    62.4600       448
    62.4800       416
    62.5000       410
    62.5200       404
    62.5400       370
    62.5600       398
    62.5800       424
    62.6000       400
    62.6200       414
    62.6400       424
    62.6600       362
    62.6800       364
    62.7000       378
    62.7200       394
    62.7400       410
    62.7600       436
    62.7800       398
    62.8000       396
    62.8200       378
    62.8400       400
    62.8600       416
    62.8800       400
    62.9000       386
    62.9200       412
    62.9400       366
    62.9600       360
    62.9800       350
    63.0000       342
    63.0200       330
    63.0400       302
    63.0600       346
    63.0800       334
    63.1000       340
    63.1200       290
    63.1400       324
    63.1600       310
    63.1800       342
    63.2000       302
    63.2200       324
    63.2400       326
    63.2600       322
    63.2800       300
    63.3000       340
    63.3200       336
    63.3400       306
    63.3600       300
    63.3800       346
    63.4000       356
    63.4200       364
    63.4400       322
    63.4600       354
    63.4800       342
    63.5000       402
    63.5200       398
    63.5400       372
    63.5600       368
    63.5800       420
    63.6000       438
    63.6200       446
    63.6400       474
    63.6600       472
    63.6800       546
    63.7000       576
    63.7200       548
    63.7400       584
    63.7600       658
    63.7800       658
    63.8000       662
    63.8200       726
    63.8400       776
    63.8600       754
    63.8800       832
    63.9000       814
    63.9200       788
    63.9400       728
    63.9600       752
    63.9800       698
    64.0000       684
    64.0200       708
    64.0400       694
    64.0600       596
    64.0800       628
    64.1000       614
    64.1200       586
    64.1400       502
    64.1600       504
    64.1800       508
    64.2000       486
    64.2200       464
    64.2400       446
    64.2600       452
    64.2800       448
    64.3000       406
    64.3200       384
    64.3400       360
    64.3600       354
    64.3800       344
    64.4000       358
    64.4200       340
    64.4400       356
    64.4600       308
    64.4800       350
    64.5000       296
    64.5200       300
    64.5400       312
    64.5600       310
    64.5800       320
    64.6000       286
    64.6200       326
    64.6400       296
    64.6600       320
    64.6800       288
    64.7000       304
    64.7200       296
    64.7400       318
    64.7600       310
    64.7800       300
    64.8000       322
    64.8200       326
    64.8400       332
    64.8600       286
    64.8800       364
    64.9000       340
    64.9200       314
    64.9400       338
    64.9600       308
    64.9800       350
    65.0000       382
    65.0200       372
    65.0400       400
    65.0600       386
    65.0800       404
    65.1000       368
    65.1200       396
    65.1400       430
    65.1600       404
    65.1800       404
    65.2000       442
    65.2200       430
    65.2400       442
    65.2600       462
    65.2800       462
    65.3000       434
    65.3200       438
    65.3400       424
    65.3600       424
    65.3800       404
    65.4000       426
    65.4200       416
    65.4400       420
    65.4600       430
    65.4800       468
    65.5000       434
    65.5200       444
    65.5400       408
    65.5600       460
    65.5800       440
    65.6000       412
    65.6200       366
    65.6400       400
    65.6600       374
    65.6800       390
    65.7000       412
    65.7200       360
    65.7400       398
    65.7600       340
    65.7800       348
    65.8000       336
    65.8200       338
    65.8400       332
    65.8600       322
    65.8800       328
    65.9000       340
    65.9200       320
    65.9400       310
    65.9600       314
    65.9800       278
    66.0000       316
    66.0200       272
    66.0400       304
    66.0600       306
    66.0800       334
    66.1000       312
    66.1200       262
    66.1400       270
    66.1600       324
    66.1800       300
    66.2000       312
    66.2200       352
    66.2400       308
    66.2600       306
    66.2800       326
    66.3000       308
    66.3200       334
    66.3400       330
    66.3600       340
    66.3800       374
    66.4000       358
    66.4200       352
    66.4400       368
    66.4600       334
    66.4800       386
    66.5000       372
    66.5200       416
    66.5400       420
    66.5600       390
    66.5800       422
    66.6000       458
    66.6200       434
    66.6400       418
    66.6600       484
    66.6800       478
    66.7000       524
    66.7200       478
    66.7400       558
    66.7600       556
    66.7800       620
    66.8000       606
    66.8200       658
    66.8400       664
    66.8600       652
    66.8800       702
    66.9000       706
    66.9200       784
    66.9400       730
    66.9600       736
    66.9800       742
    67.0000       758
    67.0200       682
    67.0400       678
    67.0600       660
    67.0800       662
    67.1000       644
    67.1200       644
    67.1400       610
    67.1600       596
    67.1800       614
    67.2000       588
    67.2200       534
    67.2400       502
    67.2600       502
    67.2800       518
    67.3000       464
    67.3200       406
    67.3400       426
    67.3600       408
    67.3800       398
    67.4000       388
    67.4200       414
    67.4400       378
    67.4600       378
    67.4800       344
    67.5000       372
    67.5200       354
    67.5400       352
    67.5600       362
    67.5800       318
    67.6000       362
    67.6200       350
    67.6400       332
    67.6600       360
    67.6800       348
    67.7000       348
    67.7200       372
    67.7400       344
    67.7600       338
    67.7800       350
    67.8000       372
    67.8200       410
    67.8400       436
    67.8600       422
    67.8800       434
    67.9000       448
    67.9200       476
    67.9400       488
    67.9600       500
    67.9800       564
    68.0000       562
    68.0200       590
    68.0400       642
    68.0600       668
    68.0800       644
    68.1000       732
    68.1200       770
    68.1400       758
    68.1600       786
    68.1800       872
    68.2000       802
    68.2200       846
    68.2400       824
    68.2600       828
    68.2800       820
    68.3000       726
    68.3200       768
    68.3400       732
    68.3600       702
    68.3800       672
    68.4000       656
    68.4200       654
    68.4400       630
    68.4600       632
    68.4800       594
    68.5000       628
    68.5200       578
    68.5400       548
    68.5600       518
    68.5800       496
    68.6000       534
    68.6200       538
    68.6400       490
    68.6600       478
    68.6800       448
    68.7000       406
    68.7200       458
    68.7400       406
    68.7600       400
    68.7800       410
    68.8000       384
    68.8200       404
    68.8400       394
    68.8600       384
    68.8800       368
    68.9000       384
    68.9200       334
    68.9400       364
    68.9600       400
    68.9800       394
    69.0000       378
    69.0200       400
    69.0400       442
    69.0600       402
    69.0800       342
    69.1000       406
    69.1200       426
    69.1400       378
    69.1600       422
    69.1800       414
    69.2000       386
    69.2200       456
    69.2400       464
    69.2600       446
    69.2800       428
    69.3000       470
    69.3200       450
    69.3400       468
    69.3600       476
    69.3800       462
    69.4000       430
    69.4200       472
    69.4400       474
    69.4600       460
    69.4800       454
    69.5000       428
    69.5200       438
    69.5400       432
    69.5600       396
    69.5800       476
    69.6000       444
    69.6200       400
    69.6400       430
    69.6600       408
    69.6800       426
    69.7000       468
    69.7200       388
    69.7400       448
    69.7600       408
    69.7800       430
    69.8000       420
    69.8200       406
    69.8400       450
    69.8600       430
    69.8800       452
    69.9000       430
    69.9200       414
    69.9400       392
    69.9600       392
    69.9800       400
    70.0000       402
    70.0200       396
    70.0400       358
    70.0600       348
    70.0800       356
    70.1000       344
    70.1200       330
    70.1400       316
    70.1600       318
    70.1800       328
    70.2000       292
    70.2200       306
    70.2400       314
    70.2600       296
    70.2800       290
    70.3000       306
    70.3200       270
    70.3400       302
    70.3600       306
    70.3800       304
    70.4000       254
    70.4200       300
    70.4400       246
    70.4600       284
    70.4800       260
    70.5000       260
    70.5200       264
    70.5400       282
    70.5600       274
    70.5800       268
    70.6000       256
    70.6200       258
    70.6400       256
    70.6600       240
    70.6800       274
    70.7000       260
    70.7200       298
    70.7400       220
    70.7600       254
    70.7800       234
    70.8000       266
    70.8200       264
    70.8400       250
    70.8600       248
    70.8800       234
    70.9000       262
    70.9200       224
    70.9400       226
    70.9600       226
    70.9800       234
    71.0000       260
    71.0200       260
    71.0400       230
    71.0600       256
    71.0800       298
    71.1000       228
    71.1200       242
    71.1400       256
    71.1600       274
    71.1800       240
    71.2000       302
    71.2200       268
    71.2400       296
    71.2600       310
    71.2800       326
    71.3000       346
    71.3200       342
    71.3400       350
    71.3600       378
    71.3800       386
    71.4000       396
    71.4200       452
    71.4400       440
    71.4600       398
    71.4800       474
    71.5000       444
    71.5200       426
    71.5400       420
    71.5600       430
    71.5800       466
    71.6000       474
    71.6200       448
    71.6400       412
    71.6600       462
    71.6800       460
    71.7000       446
    71.7200       480
    71.7400       450
    71.7600       414
    71.7800       472
    71.8000       448
    71.8200       422
    71.8400       430
    71.8600       420
    71.8800       394
    71.9000       380
    71.9200       372
    71.9400       384
    71.9600       346
    71.9800       366
    72.0000       414
    72.0200       402
    72.0400       406
    72.0600       384
    72.0800       392
    72.1000       350
    72.1200       406
    72.1400       400
    72.1600       410
    72.1800       390
    72.2000       390
    72.2200       440
    72.2400       428
    72.2600       392
    72.2800       458
    72.3000       480
    72.3200       472
    72.3400       490
    72.3600       440
    72.3800       450
    72.4000       466
    72.4200       474
    72.4400       488
    72.4600       446
    72.4800       518
    72.5000       464
    72.5200       494
    72.5400       494
    72.5600       500
    72.5800       500
    72.6000       506
    72.6200       548
    72.6400       490
    72.6600       562
    72.6800       550
    72.7000       578
    72.7200       610
    72.7400       568
    72.7600       564
    72.7800       616
    72.8000       588
    72.8200       572
    72.8400       600
    72.8600       538
    72.8800       570
    72.9000       566
    72.9200       540
    72.9400       518
    72.9600       528
    72.9800       488
    73.0000       460
    73.0200       498
    73.0400       458
    73.0600       486
    73.0800       442
    73.1000       432
    73.1200       372
    73.1400       394
    73.1600       388
    73.1800       396
    73.2000       392
    73.2200       346
    73.2400       340
    73.2600       310
    73.2800       326
    73.3000       314
    73.3200       298
    73.3400       302
    73.3600       272
    73.3800       274
    73.4000       270
    73.4200       300
    73.4400       292
    73.4600       258
    73.4800       298
    73.5000       272
    73.5200       266
    73.5400       276
    73.5600       292
    73.5800       260
    73.6000       270
    73.6200       260
    73.6400       266
    73.6600       262
    73.6800       298
    73.7000       288
    73.7200       276
    73.7400       268
    73.7600       302
    73.7800       296
    73.8000       260
    73.8200       288
    73.8400       256
    73.8600       286
    73.8800       290
    73.9000       288
    73.9200       302
    73.9400       272
    73.9600       294
    73.9800       310
    74.0000       322
    74.0200       274
    74.0400       280
    74.0600       270
    74.0800       290
    74.1000       296
    74.1200       304
    74.1400       282
    74.1600       282
    74.1800       292
    74.2000       240
    74.2200       280
    74.2400       266
    74.2600       254
    74.2800       272
    74.3000       272
    74.3200       256
    74.3400       268
    74.3600       226
    74.3800       242
    74.4000       250
    74.4200       222
    74.4400       220
    74.4600       216
    74.4800       272
    74.5000       212
    74.5200       196
    74.5400       236
    74.5600       226
    74.5800       216
    74.6000       206
    74.6200       220
    74.6400       216
    74.6600       206
    74.6800       220
    74.7000       220
    74.7200       220
    74.7400       198
    74.7600       240
    74.7800       206
    74.8000       208
    74.8200       240
    74.8400       210
    74.8600       216
    74.8800       212
    74.9000       230
    74.9200       230
    74.9400       210
    74.9600       214
    74.9800       224
    75.0000       236
    75.0200       198
    75.0400       224
    75.0600       234
    75.0800       264
    75.1000       238
    75.1200       236
    75.1400       238
    75.1600       206
    75.1800       252
    75.2000       242
    75.2200       242
    75.2400       246
    75.2600       238
    75.2800       254
    75.3000       262
    75.3200       244
    75.3400       260
    75.3600       286
    75.3800       284
    75.4000       270
    75.4200       280
    75.4400       278
    75.4600       220
    75.4800       274
    75.5000       262
    75.5200       264
    75.5400       234
    75.5600       278
    75.5800       270
    75.6000       272
    75.6200       262
    75.6400       256
    75.6600       276
    75.6800       268
    75.7000       280
    75.7200       270
    75.7400       272
    75.7600       294
    75.7800       280
    75.8000       284
    75.8200       288
    75.8400       268
    75.8600       304
    75.8800       266
    75.9000       280
    75.9200       298
    75.9400       320
    75.9600       276
    75.9800       272
    76.0000       278
    76.0200       272
    76.0400       274
    76.0600       276
    76.0800       252
    76.1000       258
    76.1200       280
    76.1400       294
    76.1600       282
    76.1800       304
    76.2000       306
    76.2200       334
    76.2400       324
    76.2600       310
    76.2800       330
    76.3000       304
    76.3200       342
    76.3400       362
    76.3600       350
    76.3800       348
    76.4000       316
    76.4200       356
    76.4400       306
    76.4600       388
    76.4800       402
    76.5000       398
    76.5200       356
    76.5400       372
    76.5600       410
    76.5800       374
    76.6000       410
    76.6200       396
    76.6400       376
    76.6600       392
    76.6800       380
    76.7000       408
    76.7200       410
    76.7400       378
    76.7600       386
    76.7800       344
    76.8000       402
    76.8200       354
    76.8400       348
    76.8600       368
    76.8800       372
    76.9000       354
    76.9200       332
    76.9400       344
    76.9600       324
    76.9800       320
    77.0000       346
    77.0200       360
    77.0400       328
    77.0600       302
    77.0800       338
    77.1000       350
    77.1200       344
    77.1400       334
    77.1600       374
    77.1800       328
    77.2000       340
    77.2200       402
    77.2400       352
    77.2600       372
    77.2800       406
    77.3000       406
    77.3200       386
    77.3400       446
    77.3600       420
    77.3800       436
    77.4000       426
    77.4200       434
    77.4400       440
    77.4600       528
    77.4800       524
    77.5000       534
    77.5200       542
    77.5400       558
    77.5600       554
    77.5800       566
    77.6000       610
    77.6200       598
    77.6400       650
    77.6600       660
    77.6800       630
    77.7000       588
    77.7200       580
    77.7400       634
    77.7600       572
    77.7800       570
    77.8000       586
    77.8200       572
    77.8400       552
    77.8600       566
    77.8800       540
    77.9000       494
    77.9200       512
    77.9400       462
    77.9600       448
    77.9800       478
    78.0000       410
    78.0200       392
    78.0400       436
    78.0600       424
    78.0800       406
    78.1000       406
    78.1200       392
    78.1400       368
    78.1600       366
    78.1800       388
    78.2000       358
    78.2200       372
    78.2400       372
    78.2600       370
    78.2800       368
    78.3000       346
    78.3200       336
    78.3400       366
    78.3600       312
    78.3800       352
    78.4000       346
    78.4200       352
    78.4400       346
    78.4600       376
    78.4800       324
    78.5000       372
    78.5200       388
    78.5400       400
    78.5600       392
    78.5800       366
    78.6000       422
    78.6200       378
    78.6400       422
    78.6600       384
    78.6800       418
    78.7000       432
    78.7200       412
    78.7400       384
    78.7600       436
    78.7800       362
    78.8000       350
    78.8200       378
    78.8400       346
    78.8600       368
    78.8800       336
    78.9000       340
    78.9200       328
    78.9400       324
    78.9600       338
    78.9800       302
    79.0000       312
    79.0200       352
    79.0400       286
    79.0600       300
    79.0800       312
    79.1000       294
    79.1200       286
    79.1400       300
    79.1600       286
    79.1800       282
    79.2000       306
    79.2200       294
    79.2400       256
    79.2600       286
    79.2800       248
    79.3000       234
    79.3200       282
    79.3400       250
    79.3600       272
    79.3800       280
    79.4000       250
    79.4200       274
    79.4400       238
    79.4600       220
    79.4800       256
    79.5000       286
    79.5200       262
    79.5400       274
    79.5600       238
    79.5800       256
    79.6000       224
    79.6200       250
    79.6400       242
    79.6600       260
    79.6800       284
    79.7000       274
    79.7200       294
    79.7400       272
    79.7600       230
    79.7800       242
    79.8000       248
    79.8200       262
    79.8400       294
    79.8600       284
    79.8800       284
    79.9000       294
    79.9200       260
    79.9400       246
    79.9600       232
    79.9800       254
    80.0000       260
    80.0200       272
    80.0400       268
    80.0600       258
    80.0800       254
    80.1000       222
    80.1200       262
    80.1400       254
    80.1600       272
    80.1800       242
    80.2000       272
    80.2200       252
    80.2400       254
    80.2600       280
    80.2800       276
    80.3000       288
    80.3200       282
    80.3400       286
    80.3600       270
    80.3800       282
    80.4000       262
    80.4200       260
    80.4400       314
    80.4600       260
    80.4800       244
    80.5000       280
    80.5200       274
    80.5400       262
    80.5600       278
    80.5800       298
    80.6000       284
    80.6200       256
    80.6400       270
    80.6600       284
    80.6800       276
    80.7000       252
    80.7200       268
    80.7400       250
    80.7600       256
    80.7800       270
    80.8000       286
    80.8200       270
    80.8400       248
    80.8600       248
    80.8800       218
    80.9000       270
    80.9200       272
    80.9400       222
    80.9600       252
    80.9800       230
    81.0000       240
    81.0200       232
    81.0400       244
    81.0600       238
    81.0800       248
    81.1000       256
    81.1200       240
    81.1400       242
    81.1600       254
    81.1800       240
    81.2000       226
    81.2200       258
    81.2400       254
    81.2600       216
    81.2800       282
    81.3000       302
    81.3200       264
    81.3400       262
    81.3600       268
    81.3800       302
    81.4000       264
    81.4200       250
    81.4400       248
    81.4600       272
    81.4800       280
    81.5000       228
    81.5200       264
    81.5400       278
    81.5600       276
    81.5800       278
    81.6000       260
    81.6200       312
    81.6400       274
    81.6600       282
    81.6800       288
    81.7000       314
    81.7200       288
    81.7400       302
    81.7600       306
    81.7800       340
    81.8000       292
    81.8200       288
    81.8400       336
    81.8600       322
    81.8800       304
    81.9000       334
    81.9200       310
    81.9400       336
    81.9600       342
    81.9800       348
    82.0000       338
    82.0200       330
    82.0400       340
    82.0600       346
    82.0800       364
    82.1000       360
    82.1200       360
    82.1400       376
    82.1600       394
    82.1800       344
    82.2000       400
    82.2200       384
    82.2400       370
    82.2600       400
    82.2800       428
    82.3000       366
    82.3200       384
    82.3400       402
    82.3600       382
    82.3800       376
    82.4000       428
    82.4200       430
    82.4400       442
    82.4600       444
    82.4800       468
    82.5000       460
    82.5200       490
    82.5400       490
    82.5600       496
    82.5800       506
    82.6000       516
    82.6200       494
    82.6400       580
    82.6600       556
    82.6800       566
    82.7000       636
    82.7200       636
    82.7400       638
    82.7600       616
    82.7800       702
    82.8000       716
    82.8200       720
    82.8400       698
    82.8600       728
    82.8800       728
    82.9000       732
    82.9200       710
    82.9400       690
    82.9600       700
    82.9800       638
    83.0000       660
    83.0200       632
    83.0400       676
    83.0600       670
    83.0800       600
    83.1000       602
    83.1200       616
    83.1400       590
    83.1600       596
    83.1800       608
    83.2000       564
    83.2200       542
    83.2400       512
    83.2600       474
    83.2800       490
    83.3000       476
    83.3200       472
    83.3400       474
    83.3600       468
    83.3800       426
    83.4000       430
    83.4200       426
    83.4400       432
    83.4600       384
    83.4800       406
    83.5000       394
    83.5200       404
    83.5400       362
    83.5600       376
    83.5800       336
    83.6000       352
    83.6200       370
    83.6400       370
    83.6600       326
    83.6800       336
    83.7000       320
    83.7200       318
    83.7400       342
    83.7600       316
    83.7800       296
    83.8000       324
    83.8200       310
    83.8400       324
    83.8600       324
    83.8800       300
    83.9000       336
    83.9200       334
    83.9400       274
    83.9600       312
    83.9800       326
    84.0000       324
    84.0200       306
    84.0400       332
    84.0600       312
    84.0800       314
    84.1000       326
    84.1200       346
    84.1400       306
    84.1600       336
    84.1800       340
    84.2000       332
    84.2200       372
    84.2400       322
    84.2600       340
    84.2800       346
    84.3000       352
    84.3200       292
    84.3400       324
    84.3600       358
    84.3800       332
    84.4000       336
    84.4200       378
    84.4400       318
    84.4600       310
    84.4800       318
    84.5000       336
    84.5200       308
    84.5400       324
    84.5600       284
    84.5800       322
    84.6000       316
    84.6200       296
    84.6400       320
    84.6600       294
    84.6800       286
    84.7000       312
    84.7200       290
    84.7400       306
    84.7600       312
    84.7800       260
    84.8000       306
    84.8200       292
    84.8400       312
    84.8600       294
    84.8800       290
    84.9000       288
    84.9200       302
    84.9400       290
    84.9600       272
    84.9800       300
    85.0000       304
    85.0200       304
    85.0400       300
    85.0600       320
    85.0800       296
    85.1000       278
    85.1200       282
    85.1400       266
    85.1600       286
    85.1800       290
    85.2000       272
    85.2200       284
    85.2400       298
    85.2600       258
    85.2800       268
    85.3000       264
    85.3200       260
    85.3400       256
    85.3600       260
    85.3800       276
    85.4000       252
    85.4200       260
    85.4400       296
    85.4600       288
    85.4800       278
    85.5000       282
    85.5200       270
    85.5400       278
    85.5600       286
    85.5800       314
    85.6000       302
    85.6200       300
    85.6400       268
    85.6600       276
    85.6800       328
    85.7000       306
    85.7200       302
    85.7400       256
    85.7600       282
    85.7800       280
    85.8000       298
    85.8200       282
    85.8400       256
    85.8600       302
    85.8800       258
    85.9000       268
    85.9200       288
    85.9400       258
    85.9600       266
    85.9800       260
    86.0000       282
    86.0200       248
    86.0400       258
    86.0600       286
    86.0800       274
    86.1000       268
    86.1200       222
    86.1400       252
    86.1600       264
    86.1800       272
    86.2000       288
    86.2200       276
    86.2400       260
    86.2600       274
    86.2800       262
    86.3000       266
    86.3200       258
    86.3400       232
    86.3600       240
    86.3800       286
    86.4000       254
    86.4200       278
    86.4400       258
    86.4600       290
    86.4800       274
    86.5000       262
    86.5200       254
    86.5400       276
    86.5600       276
    86.5800       284
    86.6000       262
    86.6200       288
    86.6400       348
    86.6600       280
    86.6800       310
    86.7000       358
    86.7200       308
    86.7400       366
    86.7600       332
    86.7800       356
    86.8000       344
    86.8200       394
    86.8400       348
    86.8600       362
    86.8800       390
    86.9000       364
    86.9200       364
    86.9400       360
    86.9600       352
    86.9800       350
    87.0000       404
    87.0200       384
    87.0400       348
    87.0600       396
    87.0800       360
    87.1000       380
    87.1200       370
    87.1400       382
    87.1600       350
    87.1800       314
    87.2000       344
    87.2200       344
    87.2400       344
    87.2600       326
    87.2800       328
    87.3000       358
    87.3200       354
    87.3400       332
    87.3600       330
    87.3800       326
    87.4000       342
    87.4200       322
    87.4400       326
    87.4600       318
    87.4800       340
    87.5000       338
    87.5200       312
    87.5400       334
    87.5600       368
    87.5800       354
    87.6000       374
    87.6200       374
    87.6400       386
    87.6600       406
    87.6800       416
    87.7000       422
    87.7200       404
    87.7400       394
    87.7600       366
    87.7800       422
    87.8000       392
    87.8200       380
    87.8400       426
    87.8600       422
    87.8800       418
    87.9000       390
    87.9200       428
    87.9400       412
    87.9600       426
    87.9800       392
    88.0000       392
    88.0200       442
    88.0400       390
    88.0600       368
    88.0800       424
    88.1000       394
    88.1200       414
    88.1400       400
    88.1600       386
    88.1800       390
    88.2000       388
    88.2200       398
    88.2400       352
    88.2600       356
    88.2800       380
    88.3000       378
    88.3200       358
    88.3400       336
    88.3600       376
    88.3800       346
    88.4000       360
    88.4200       384
    88.4400       370
    88.4600       362
    88.4800       392
    88.5000       392
    88.5200       334
    88.5400       372
    88.5600       354
    88.5800       346
    88.6000       358
    88.6200       348
    88.6400       360
    88.6600       334
    88.6800       324
    88.7000       322
    88.7200       362
    88.7400       306
    88.7600       356
    88.7800       322
    88.8000       312
    88.8200       320
    88.8400       318
    88.8600       292
    88.8800       272
    88.9000       302
    88.9200       262
    88.9400       298
    88.9600       300
    88.9800       254
    89.0000       258
    89.0200       276
    89.0400       286
    89.0600       266
    89.0800       260
    89.1000       248
    89.1200       264
    89.1400       262
    89.1600       256
    89.1800       250
    89.2000       258
    89.2200       252
    89.2400       294
    89.2600       234
    89.2800       248
    89.3000       246
    89.3200       234
    89.3400       276
    89.3600       292
    89.3800       258
    89.4000       270
    89.4200       276
    89.4400       268
    89.4600       268
    89.4800       262
    89.5000       262
    89.5200       252
    89.5400       256
    89.5600       266
    89.5800       268
    89.6000       266
    89.6200       264
    89.6400       278
    89.6600       282
    89.6800       272
    89.7000       240
    89.7200       270
    89.7400       268
    89.7600       280
    89.7800       298
    89.8000       276
    89.8200       286
    89.8400       300
    89.8600       284
    89.8800       298
    89.9000       256
    89.9200       300
    89.9400       308
    89.9600       290
    89.9800       296
    90.0000       308
