    10.0000       364
    10.0200       390
    10.0400       390
    10.0600       366
    10.0800       374
    10.1000       380
    10.1200       354
    10.1400       380
    10.1600       374
    10.1800       390
    10.2000       350
    10.2200       372
    10.2400       384
    10.2600       346
    10.2800       380
    10.3000       346
    10.3200       382
    10.3400       330
    10.3600       394
    10.3800       328
    10.4000       348
    10.4200       342
    10.4400       374
    10.4600       374
    10.4800       342
    10.5000       336
    10.5200       372
    10.5400       300
    10.5600       330
    10.5800       354
    10.6000       376
    10.6200       342
    10.6400       336
    10.6600       348
    10.6800       358
    10.7000       366
    10.7200       340
    10.7400       340
    10.7600       312
    10.7800       350
    10.8000       342
    10.8200       358
    10.8400       360
    10.8600       354
    10.8800       364
    10.9000       352
    10.9200       328
    10.9400       348
    10.9600       348
    10.9800       330
    11.0000       344
    11.0200       314
    11.0400       322
    11.0600       334
    11.0800       370
    11.1000       330
    11.1200       290
    11.1400       300
    11.1600       344
    11.1800       316
    11.2000       306
    11.2200       328
    11.2400       348
    11.2600       362
    11.2800       336
    11.3000       348
    11.3200       328
    11.3400       352
    11.3600       314
    11.3800       344
    11.4000       316
    11.4200       336
    11.4400       310
    11.4600       330
    11.4800       330
    11.5000       316
    11.5200       326
    11.5400       290
    11.5600       332
    11.5800       334
    11.6000       338
    11.6200       340
    11.6400       314
    11.6600       334
    11.6800       350
    11.7000       328
    11.7200       334
    11.7400       318
    11.7600       314
    11.7800       316
    11.8000       356
    11.8200       324
    11.8400       316
    11.8600       380
    11.8800       334
    11.9000       356
    11.9200       342
    11.9400       350
    11.9600       386
    11.9800       374
    12.0000       392
    12.0200       394
    12.0400       416
    12.0600       428
    12.0800       450
    12.1000       488
    12.1200       514
    12.1400       472
    12.1600       558
    12.1800       562
    12.2000       590
    12.2200       570
    12.2400       568
    12.2600       482
    12.2800       450
    12.3000       428
    12.3200       380
    12.3400       362
    12.3600       350
    12.3800       304
    12.4000       312
    12.4200       292
    12.4400       350
    12.4600       290
    12.4800       304
    12.5000       272
    12.5200       278
    12.5400       266
    12.5600       292
    12.5800       304
    12.6000       292
    12.6200       320
    12.6400       310
    12.6600       308
    12.6800       278
    12.7000       252
    12.7200       272
    12.7400       280
    12.7600       310
    12.7800       254
    12.8000       278
    12.8200       256
    12.8400       270
    12.8600       278
    12.8800       254
    12.9000       282
    12.9200       242
    12.9400       248
    12.9600       270
    12.9800       290
    13.0000       282
    13.0200       276
    13.0400       280
    13.0600       250
    13.0800       264
    13.1000       270
    13.1200       278
    13.1400       274
    13.1600       274
    13.1800       274
    13.2000       290
    13.2200       264
    13.2400       250
    13.2600       268
    13.2800       254
    13.3000       236
    13.3200       286
    13.3400       254
    13.3600       282
    13.3800       262
    13.4000       254
    13.4200       248
    13.4400       256
    13.4600       236
    13.4800       254
    13.5000       262
    13.5200       274
    13.5400       248
    13.5600       256
    13.5800       258
    13.6000       268
    13.6200       250
    13.6400       280
    13.6600       284
    13.6800       266
    13.7000       262
    13.7200       266
    13.7400       218
    13.7600       262
    13.7800       262
    13.8000       256
    13.8200       252
    13.8400       242
    13.8600       234
    13.8800       276
    13.9000       254
    13.9200       240
    13.9400       234
    13.9600       248
    13.9800       266
    14.0000       272
    14.0200       232
    14.0400       230
    14.0600       252
    14.0800       272
    14.1000       238
    14.1200       242
    14.1400       258
    14.1600       246
    14.1800       262
    14.2000       268
    14.2200       240
    14.2400       252
    14.2600       260
    14.2800       232
    14.3000       226
    14.3200       242
    14.3400       250
    14.3600       230
    14.3800       230
    14.4000       216
    14.4200       246
    14.4400       250
    14.4600       250
    14.4800       248
    14.5000       234
    14.5200       254
    14.5400       224
    14.5600       268
    14.5800       232
    14.6000       238
    14.6200       220
    14.6400       254
    14.6600       242
    14.6800       238
    14.7000       274
    14.7200       258
    14.7400       248
    14.7600       248
    14.7800       304
    14.8000       264
    14.8200       258
    14.8400       256
    14.8600       294
    14.8800       306
    14.9000       322
    14.9200       322
    14.9400       338
    14.9600       348
    14.9800       370
    15.0000       386
    15.0200       394
    15.0400       410
    15.0600       390
    15.0800       418
    15.1000       378
    15.1200       436
    15.1400       440
    15.1600       350
    15.1800       436
    15.2000       424
    15.2200       370
    15.2400       350
    15.2600       310
    15.2800       298
    15.3000       292
    15.3200       276
    15.3400       262
    15.3600       270
    15.3800       266
    15.4000       270
    15.4200       240
    15.4400       244
    15.4600       226
    15.4800       232
    15.5000       202
    15.5200       240
    15.5400       228
    15.5600       242
    15.5800       216
    15.6000       214
    15.6200       190
    15.6400       242
    15.6600       220
    15.6800       254
    15.7000       190
    15.7200       216
    15.7400       210
    15.7600       246
    15.7800       230
    15.8000       226
    15.8200       232
    15.8400       190
    15.8600       208
    15.8800       242
    15.9000       202
    15.9200       224
    15.9400       252
    15.9600       234
    15.9800       242
    16.0000       198
    16.0200       256
    16.0400       208
    16.0600       250
    16.0800       220
    16.1000       206
    16.1200       222
    16.1400       222
    16.1600       242
    16.1800       206
    16.2000       256
    16.2200       240
    16.2400       206
    16.2600       224
    16.2800       230
    16.3000       212
    16.3200       228
    16.3400       222
    16.3600       222
    16.3800       220
    16.4000       216
    16.4200       210
    16.4400       224
    16.4600       238
    16.4800       206
    16.5000       196
    16.5200       242
    16.5400       228
    16.5600       226
    16.5800       230
    16.6000       240
    16.6200       214
    16.6400       242
    16.6600       238
    16.6800       216
    16.7000       234
    16.7200       222
    16.7400       244
    16.7600       288
    16.7800       224
    16.8000       262
    16.8200       270
    16.8400       294
    16.8600       306
    16.8800       334
    16.9000       350
    16.9200       348
    16.9400       372
    16.9600       418
    16.9800       406
    17.0000       434
    17.0200       484
    17.0400       528
    17.0600       584
    17.0800       634
    17.1000       628
    17.1200       612
    17.1400       646
    17.1600       682
    17.1800       614
    17.2000       624
    17.2200       610
    17.2400       570
    17.2600       582
    17.2800       606
    17.3000       586
    17.3200       532
    17.3400       520
    17.3600       502
    17.3800       440
    17.4000       492
    17.4200       460
    17.4400       404
    17.4600       396
    17.4800       382
    17.5000       354
    17.5200       354
    17.5400       332
    17.5600       352
    17.5800       316
    17.6000       308
    17.6200       322
    17.6400       318
    17.6600       336
    17.6800       334
    17.7000       318
    17.7200       312
    17.7400       300
    17.7600       328
    17.7800       300
    17.8000       286
    17.8200       292
    17.8400       278
    17.8600       272
    17.8800       234
    17.9000       234
    17.9200       214
    17.9400       226
    17.9600       216
    17.9800       238
    18.0000       220
    18.0200       250
    18.0400       194
    18.0600       222
    18.0800       226
    18.1000       240
    18.1200       242
    18.1400       234
    18.1600       210
    18.1800       238
    18.2000       206
    18.2200       200
    18.2400       222
    18.2600       204
    18.2800       222
    18.3000       220
    18.3200       214
    18.3400       232
    18.3600       202
    18.3800       224
    18.4000       208
    18.4200       202
    18.4400       244
    18.4600       234
    18.4800       260
    18.5000       244
    18.5200       238
    18.5400       250
    18.5600       254
    18.5800       264
    18.6000       252
    18.6200       262
    18.6400       270
    18.6600       282
    18.6800       304
    18.7000       338
    18.7200       328
    18.7400       316
    18.7600       310
    18.7800       372
    18.8000       402
    18.8200       392
    18.8400       422
    18.8600       472
    18.8800       476
    18.9000       516
    18.9200       580
    18.9400       586
    18.9600       548
    18.9800       546
    19.0000       562
    19.0200       516
    19.0400       548
    19.0600       464
    19.0800       474
    19.1000       444
    19.1200       466
    19.1400       452
    19.1600       462
    19.1800       524
    19.2000       536
    19.2200       532
    19.2400       618
    19.2600       642
    19.2800       654
    19.3000       758
    19.3200       836
    19.3400       886
    19.3600       994
    19.3800      1242
    19.4000      1352
    19.4200      1462
    19.4400      1656
    19.4600      1836
    19.4800      2114
    19.5000      2258
    19.5200      2572
    19.5400      2724
    19.5600      2664
    19.5800      2586
    19.6000      2482
    19.6200      2102
    19.6400      1888
    19.6600      1558
    19.6800      1380
    19.7000      1120
    19.7200      1106
    19.7400      1068
    19.7600      1076
    19.7800      1118
    19.8000      1152
    19.8200      1198
    19.8400      1330
    19.8600      1420
    19.8800      1536
    19.9000      1660
    19.9200      1894
    19.9400      1872
    19.9600      2056
    19.9800      2042
    20.0000      2068
    20.0200      1886
    20.0400      1776
    20.0600      1576
    20.0800      1324
    20.1000      1052
    20.1200       884
    20.1400       784
    20.1600       666
    20.1800       604
    20.2000       604
    20.2200       550
    20.2400       502
    20.2600       460
    20.2800       448
    20.3000       454
    20.3200       418
    20.3400       412
    20.3600       386
    20.3800       422
    20.4000       362
    20.4200       352
    20.4400       308
    20.4600       302
    20.4800       318
    20.5000       304
    20.5200       314
    20.5400       266
    20.5600       300
    20.5800       296
    20.6000       258
    20.6200       272
    20.6400       294
    20.6600       270
    20.6800       244
    20.7000       274
    20.7200       264
    20.7400       274
    20.7600       276
    20.7800       282
    20.8000       320
    20.8200       344
    20.8400       324
    20.8600       332
    20.8800       322
    20.9000       386
    20.9200       402
    20.9400       456
    20.9600       428
    20.9800       550
    21.0000       558
    21.0200       656
    21.0400       652
    21.0600       646
    21.0800       782
    21.1000       876
    21.1200       980
    21.1400      1106
    21.1600      1232
    21.1800      1302
    21.2000      1320
    21.2200      1446
    21.2400      1510
    21.2600      1328
    21.2800      1262
    21.3000      1088
    21.3200       922
    21.3400       814
    21.3600       772
    21.3800       596
    21.4000       518
    21.4200       508
    21.4400       454
    21.4600       370
    21.4800       338
    21.5000       348
    21.5200       340
    21.5400       318
    21.5600       276
    21.5800       290
    21.6000       270
    21.6200       260
    21.6400       256
    21.6600       226
    21.6800       268
    21.7000       262
    21.7200       238
    21.7400       258
    21.7600       248
    21.7800       236
    21.8000       274
    21.8200       294
    21.8400       272
    21.8600       288
    21.8800       272
    21.9000       276
    21.9200       336
    21.9400       280
    21.9600       268
    21.9800       270
    22.0000       282
    22.0200       274
    22.0400       284
    22.0600       278
    22.0800       274
    22.1000       246
    22.1200       282
    22.1400       252
    22.1600       234
    22.1800       274
    22.2000       230
    22.2200       262
    22.2400       252
    22.2600       250
    22.2800       296
    22.3000       290
    22.3200       300
    22.3400       314
    22.3600       344
    22.3800       350
    22.4000       348
    22.4200       362
    22.4400       388
    22.4600       410
    22.4800       446
    22.5000       532
    22.5200       572
    22.5400       606
    22.5600       668
    22.5800       698
    22.6000       860
    22.6200       934
    22.6400      1050
    22.6600      1114
    22.6800      1328
    22.7000      1434
    22.7200      1612
    22.7400      1838
    22.7600      2208
    22.7800      2626
    22.8000      2832
    22.8200      3212
    22.8400      3404
    22.8600      3680
    22.8800      3694
    22.9000      3398
    22.9200      3112
    22.9400      2718
    22.9600      2314
    22.9800      1918
    23.0000      1454
    23.0200      1278
    23.0400      1116
    23.0600      1010
    23.0800       822
    23.1000       764
    23.1200       736
    23.1400       664
    23.1600       560
    23.1800       572
    23.2000       578
    23.2200       504
    23.2400       468
    23.2600       434
    23.2800       430
    23.3000       444
    23.3200       378
    23.3400       368
    23.3600       370
    23.3800       350
    23.4000       320
    23.4200       340
    23.4400       322
    23.4600       328
    23.4800       320
    23.5000       316
    23.5200       300
    23.5400       264
    23.5600       266
    23.5800       282
    23.6000       248
    23.6200       316
    23.6400       296
    23.6600       250
    23.6800       270
    23.7000       274
    23.7200       270
    23.7400       302
    23.7600       276
    23.7800       294
    23.8000       272
    23.8200       270
    23.8400       288
    23.8600       244
    23.8800       266
    23.9000       282
    23.9200       264
    23.9400       300
    23.9600       294
    23.9800       272
    24.0000       276
    24.0200       286
    24.0400       306
    24.0600       276
    24.0800       300
    24.1000       314
    24.1200       300
    24.1400       324
    24.1600       370
    24.1800       350
    24.2000       386
    24.2200       432
    24.2400       392
    24.2600       404
    24.2800       442
    24.3000       510
    24.3200       546
    24.3400       598
    24.3600       634
    24.3800       688
    24.4000       756
    24.4200       810
    24.4400       892
    24.4600       984
    24.4800      1032
    24.5000      1044
    24.5200      1040
    24.5400      1088
    24.5600      1080
    24.5800      1062
    24.6000       992
    24.6200       882
    24.6400       880
    24.6600       738
    24.6800       650
    24.7000       588
    24.7200       558
    24.7400       538
    24.7600       484
    24.7800       480
    24.8000       452
    24.8200       418
    24.8400       416
    24.8600       394
    24.8800       418
    24.9000       428
    24.9200       406
    24.9400       364
    24.9600       404
    24.9800       398
    25.0000       402
    25.0200       392
    25.0400       408
    25.0600       430
    25.0800       392
    25.1000       388
    25.1200       390
    25.1400       440
    25.1600       438
    25.1800       448
    25.2000       474
    25.2200       474
    25.2400       410
    25.2600       404
    25.2800       450
    25.3000       460
    25.3200       452
    25.3400       432
    25.3600       492
    25.3800       486
    25.4000       450
    25.4200       536
    25.4400       514
    25.4600       640
    25.4800       614
    25.5000       702
    25.5200       732
    25.5400       796
    25.5600       800
    25.5800       896
    25.6000       836
    25.6200       848
    25.6400       848
    25.6600       840
    25.6800       746
    25.7000       660
    25.7200       568
    25.7400       522
    25.7600       486
    25.7800       442
    25.8000       412
    25.8200       410
    25.8400       358
    25.8600       372
    25.8800       356
    25.9000       370
    25.9200       312
    25.9400       294
    25.9600       310
    25.9800       276
    26.0000       304
    26.0200       270
    26.0400       290
    26.0600       280
    26.0800       296
    26.1000       324
    26.1200       300
    26.1400       294
    26.1600       298
    26.1800       308
    26.2000       308
    26.2200       334
    26.2400       310
    26.2600       354
    26.2800       326
    26.3000       352
    26.3200       380
    26.3400       406
    26.3600       398
    26.3800       444
    26.4000       452
    26.4200       448
    26.4400       466
    26.4600       472
    26.4800       448
    26.5000       482
    26.5200       518
    26.5400       466
    26.5600       474
    26.5800       492
    26.6000       568
    26.6200       472
    26.6400       542
    26.6600       520
    26.6800       490
    26.7000       502
    26.7200       514
    26.7400       452
    26.7600       424
    26.7800       472
    26.8000       424
    26.8200       390
    26.8400       402
    26.8600       350
    26.8800       336
    26.9000       314
    26.9200       332
    26.9400       362
    26.9600       324
    26.9800       310
    27.0000       336
    27.0200       300
    27.0400       336
    27.0600       326
    27.0800       356
    27.1000       354
    27.1200       334
    27.1400       354
    27.1600       344
    27.1800       348
    27.2000       412
    27.2200       408
    27.2400       448
    27.2600       468
    27.2800       464
    27.3000       476
    27.3200       508
    27.3400       566
    27.3600       584
    27.3800       698
    27.4000       714
    27.4200       776
    27.4400       836
    27.4600       892
    27.4800       920
    27.5000       912
    27.5200       894
    27.5400       874
    27.5600       860
    27.5800       798
    27.6000       718
    27.6200       674
    27.6400       628
    27.6600       590
    27.6800       544
    27.7000       456
    27.7200       502
    27.7400       428
    27.7600       388
    27.7800       398
    27.8000       376
    27.8200       382
    27.8400       390
    27.8600       376
    27.8800       364
    27.9000       368
    27.9200       402
    27.9400       370
    27.9600       394
    27.9800       418
    28.0000       432
    28.0200       454
    28.0400       470
    28.0600       464
    28.0800       524
    28.1000       588
    28.1200       550
    28.1400       624
    28.1600       684
    28.1800       752
    28.2000       792
    28.2200       806
    28.2400       914
    28.2600       954
    28.2800       994
    28.3000       980
    28.3200       892
    28.3400       902
    28.3600       792
    28.3800       712
    28.4000       612
    28.4200       576
    28.4400       544
    28.4600       480
    28.4800       430
    28.5000       416
    28.5200       422
    28.5400       396
    28.5600       328
    28.5800       342
    28.6000       302
    28.6200       304
    28.6400       316
    28.6600       282
    28.6800       300
    28.7000       284
    28.7200       274
    28.7400       300
    28.7600       270
    28.7800       280
    28.8000       284
    28.8200       266
    28.8400       264
    28.8600       238
    28.8800       248
    28.9000       234
    28.9200       262
    28.9400       248
    28.9600       262
    28.9800       230
    29.0000       276
    29.0200       234
    29.0400       236
    29.0600       222
    29.0800       258
    29.1000       248
    29.1200       278
    29.1400       262
    29.1600       228
    29.1800       272
    29.2000       282
    29.2200       296
    29.2400       276
    29.2600       280
    29.2800       304
    29.3000       310
    29.3200       308
    29.3400       328
    29.3600       330
    29.3800       350
    29.4000       328
    29.4200       352
    29.4400       356
    29.4600       384
    29.4800       376
    29.5000       390
    29.5200       384
    29.5400       400
    29.5600       352
    29.5800       368
    29.6000       380
    29.6200       376
    29.6400       378
    29.6600       432
    29.6800       346
    29.7000       358
    29.7200       324
    29.7400       350
    29.7600       388
    29.7800       362
    29.8000       390
    29.8200       366
    29.8400       346
    29.8600       410
    29.8800       430
    29.9000       488
    29.9200       460
    29.9400       464
    29.9600       542
    29.9800       560
    30.0000       688
    30.0200       666
    30.0400       782
    30.0600       868
    30.0800      1014
    30.1000      1134
    30.1200      1174
    30.1400      1332
    30.1600      1398
    30.1800      1534
    30.2000      1600
    30.2200      1670
    30.2400      1614
    30.2600      1646
    30.2800      1584
    30.3000      1466
    30.3200      1444
    30.3400      1378
    30.3600      1388
    30.3800      1276
    30.4000      1262
    30.4200      1202
    30.4400      1170
    30.4600      1176
    30.4800      1254
    30.5000      1240
    30.5200      1334
    30.5400      1352
    30.5600      1368
    30.5800      1452
    30.6000      1514
    30.6200      1576
    30.6400      1486
    30.6600      1554
    30.6800      1386
    30.7000      1362
    30.7200      1256
    30.7400      1204
    30.7600      1198
    30.7800      1048
    30.8000       956
    30.8200       994
    30.8400       974
    30.8600       936
    30.8800       916
    30.9000      1048
    30.9200       958
    30.9400      1022
    30.9600      1062
    30.9800      1108
    31.0000      1088
    31.0200      1158
    31.0400      1308
    31.0600      1390
    31.0800      1488
    31.1000      1630
    31.1200      1640
    31.1400      1760
    31.1600      1870
    31.1800      1818
    31.2000      1920
    31.2200      1804
    31.2400      1706
    31.2600      1642
    31.2800      1558
    31.3000      1438
    31.3200      1310
    31.3400      1142
    31.3600      1052
    31.3800      1008
    31.4000       868
    31.4200       764
    31.4400       782
    31.4600       742
    31.4800       644
    31.5000       618
    31.5200       650
    31.5400       614
    31.5600       598
    31.5800       590
    31.6000       554
    31.6200       610
    31.6400       650
    31.6600       696
    31.6800       700
    31.7000       748
    31.7200       740
    31.7400       784
    31.7600       794
    31.7800       848
    31.8000       960
    31.8200      1034
    31.8400      1106
    31.8600      1178
    31.8800      1336
    31.9000      1404
    31.9200      1494
    31.9400      1726
    31.9600      1846
    31.9800      1916
    32.0000      2030
    32.0200      2100
    32.0400      1998
    32.0600      2026
    32.0800      1996
    32.1000      1872
    32.1200      1818
    32.1400      1770
    32.1600      1602
    32.1800      1574
    32.2000      1514
    32.2200      1500
    32.2400      1580
    32.2600      1672
    32.2800      1756
    32.3000      1860
    32.3200      1984
    32.3400      2150
    32.3600      2418
    32.3800      2708
    32.4000      3046
    32.4200      3436
    32.4400      3906
    32.4600      4388
    32.4800      4840
    32.5000      5408
    32.5200      5744
    32.5400      6106
    32.5600      6268
    32.5800      6272
    32.6000      6038
    32.6200      5796
    32.6400      5270
    32.6600      4818
    32.6800      4280
    32.7000      3812
    32.7200      3318
    32.7400      2832
    32.7600      2504
    32.7800      2196
    32.8000      2038
    32.8200      1748
    32.8400      1634
    32.8600      1514
    32.8800      1396
    32.9000      1350
    32.9200      1280
    32.9400      1266
    32.9600      1248
    32.9800      1270
    33.0000      1248
    33.0200      1310
    33.0400      1346
    33.0600      1360
    33.0800      1396
    33.1000      1406
    33.1200      1354
    33.1400      1250
    33.1600      1168
    33.1800      1002
    33.2000       966
    33.2200       922
    33.2400       850
    33.2600       704
    33.2800       622
    33.3000       568
    33.3200       524
    33.3400       506
    33.3600       440
    33.3800       432
    33.4000       400
    33.4200       402
    33.4400       350
    33.4600       344
    33.4800       316
    33.5000       312
    33.5200       298
    33.5400       328
    33.5600       336
    33.5800       280
    33.6000       276
    33.6200       302
    33.6400       260
    33.6600       244
    33.6800       272
    33.7000       288
    33.7200       270
    33.7400       246
    33.7600       228
    33.7800       250
    33.8000       234
    33.8200       244
    33.8400       222
    33.8600       200
    33.8800       244
    33.9000       246
    33.9200       200
    33.9400       220
    33.9600       212
    33.9800       230
    34.0000       228
    34.0200       212
    34.0400       202
    34.0600       252
    34.0800       222
    34.1000       214
    34.1200       254
    34.1400       234
    34.1600       226
    34.1800       206
    34.2000       214
    34.2200       236
    34.2400       196
    34.2600       246
    34.2800       220
    34.3000       192
    34.3200       210
    34.3400       228
    34.3600       248
    34.3800       256
    34.4000       240
    34.4200       218
    34.4400       256
    34.4600       266
    34.4800       232
    34.5000       236
    34.5200       252
    34.5400       256
    34.5600       254
    34.5800       272
    34.6000       300
    34.6200       274
    34.6400       262
    34.6600       304
    34.6800       270
    34.7000       286
    34.7200       248
    34.7400       274
    34.7600       278
    34.7800       266
    34.8000       236
    34.8200       268
    34.8400       280
    34.8600       274
    34.8800       274
    34.9000       306
    34.9200       276
    34.9400       296
    34.9600       260
    34.9800       306
    35.0000       254
    35.0200       290
    35.0400       300
    35.0600       290
    35.0800       304
    35.1000       284
    35.1200       298
    35.1400       314
    35.1600       288
    35.1800       248
    35.2000       276
    35.2200       236
    35.2400       254
    35.2600       258
    35.2800       258
    35.3000       260
    35.3200       264
    35.3400       288
    35.3600       244
    35.3800       224
    35.4000       268
    35.4200       266
    35.4400       240
    35.4600       274
    35.4800       236
    35.5000       258
    35.5200       244
    35.5400       258
    35.5600       252
    35.5800       262
    35.6000       278
    35.6200       278
    35.6400       280
    35.6600       276
    35.6800       300
    35.7000       292
    35.7200       294
    35.7400       302
    35.7600       310
    35.7800       352
    35.8000       324
    35.8200       318
    35.8400       358
    35.8600       364
    35.8800       402
    35.9000       382
    35.9200       402
    35.9400       372
    35.9600       426
    35.9800       466
    36.0000       466
    36.0200       472
    36.0400       470
    36.0600       514
    36.0800       492
    36.1000       572
    36.1200       588
    36.1400       634
    36.1600       598
    36.1800       638
    36.2000       602
    36.2200       522
    36.2400       532
    36.2600       530
    36.2800       524
    36.3000       438
    36.3200       480
    36.3400       436
    36.3600       474
    36.3800       436
    36.4000       412
    36.4200       416
    36.4400       432
    36.4600       420
    36.4800       424
    36.5000       404
    36.5200       452
    36.5400       510
    36.5600       478
    36.5800       492
    36.6000       492
    36.6200       568
    36.6400       622
    36.6600       614
    36.6800       664
    36.7000       680
    36.7200       842
    36.7400       886
    36.7600      1036
    36.7800      1112
    36.8000      1182
    36.8200      1298
    36.8400      1394
    36.8600      1464
    36.8800      1520
    36.9000      1524
    36.9200      1530
    36.9400      1492
    36.9600      1402
    36.9800      1326
    37.0000      1318
    37.0200      1218
    37.0400      1202
    37.0600      1102
    37.0800      1002
    37.1000      1006
    37.1200       976
    37.1400       914
    37.1600       870
    37.1800       842
    37.2000       874
    37.2200       914
    37.2400       806
    37.2600       766
    37.2800       746
    37.3000       722
    37.3200       670
    37.3400       654
    37.3600       660
    37.3800       622
    37.4000       652
    37.4200       602
    37.4400       586
    37.4600       632
    37.4800       598
    37.5000       606
    37.5200       606
    37.5400       654
    37.5600       644
    37.5800       666
    37.6000       658
    37.6200       638
    37.6400       634
    37.6600       722
    37.6800       700
    37.7000       766
    37.7200       738
    37.7400       802
    37.7600       798
    37.7800       812
    37.8000       900
    37.8200       888
    37.8400       978
    37.8600       996
    37.8800      1164
    37.9000      1264
    37.9200      1302
    37.9400      1376
    37.9600      1508
    37.9800      1680
    38.0000      1724
    38.0200      1814
    38.0400      1852
    38.0600      1902
    38.0800      1924
    38.1000      1862
    38.1200      1834
    38.1400      1834
    38.1600      1836
    38.1800      1814
    38.2000      1878
    38.2200      1950
    38.2400      1980
    38.2600      2074
    38.2800      2222
    38.3000      2344
    38.3200      2534
    38.3400      2674
    38.3600      2960
    38.3800      3264
    38.4000      3520
    38.4200      3684
    38.4400      4004
    38.4600      4082
    38.4800      4334
    38.5000      4330
    38.5200      4382
    38.5400      4244
    38.5600      4236
    38.5800      4226
    38.6000      4206
    38.6200      3886
    38.6400      3874
    38.6600      3742
    38.6800      3554
    38.7000      3520
    38.7200      3478
    38.7400      3310
    38.7600      3248
    38.7800      2942
    38.8000      2814
    38.8200      2614
    38.8400      2396
    38.8600      2232
    38.8800      2042
    38.9000      1816
    38.9200      1702
    38.9400      1486
    38.9600      1392
    38.9800      1312
    39.0000      1242
    39.0200      1178
    39.0400      1118
    39.0600      1146
    39.0800      1072
    39.1000      1044
    39.1200      1042
    39.1400       944
    39.1600       986
    39.1800       994
    39.2000       938
    39.2200       982
    39.2400       976
    39.2600       946
    39.2800       956
    39.3000       904
    39.3200       948
    39.3400       934
    39.3600       904
    39.3800       918
    39.4000       902
    39.4200       886
    39.4400       950
    39.4600       966
    39.4800       994
    39.5000      1028
    39.5200      1020
    39.5400      1118
    39.5600      1148
    39.5800      1256
    39.6000      1398
    39.6200      1548
    39.6400      1584
    39.6600      1692
    39.6800      1758
    39.7000      1760
    39.7200      1796
    39.7400      1832
    39.7600      1838
    39.7800      1704
    39.8000      1584
    39.8200      1430
    39.8400      1400
    39.8600      1232
    39.8800      1140
    39.9000      1044
    39.9200       918
    39.9400       892
    39.9600       816
    39.9800       822
    40.0000       760
    40.0200       700
    40.0400       720
    40.0600       684
    40.0800       688
    40.1000       700
    40.1200       628
    40.1400       662
    40.1600       678
    40.1800       652
    40.2000       608
    40.2200       630
    40.2400       716
    40.2600       698
    40.2800       680
    40.3000       682
    40.3200       672
    40.3400       742
    40.3600       718
    40.3800       756
    40.4000       776
    40.4200       844
    40.4400       896
    40.4600       940
    40.4800       956
    40.5000      1048
    40.5200      1016
    40.5400      1096
    40.5600      1104
    40.5800      1116
    40.6000      1112
    40.6200      1094
    40.6400      1040
    40.6600      1078
    40.6800       984
    40.7000       980
    40.7200       938
    40.7400       882
    40.7600       844
    40.7800       796
    40.8000       786
    40.8200       760
    40.8400       684
    40.8600       686
    40.8800       652
    40.9000       674
    40.9200       688
    40.9400       648
    40.9600       624
    40.9800       626
    41.0000       632
    41.0200       658
    41.0400       658
    41.0600       700
    41.0800       716
    41.1000       714
    41.1200       888
    41.1400       874
    41.1600       834
    41.1800       994
    41.2000      1042
    41.2200      1118
    41.2400      1074
    41.2600      1124
    41.2800      1172
    41.3000      1204
    41.3200      1244
    41.3400      1240
    41.3600      1192
    41.3800      1140
    41.4000      1154
    41.4200      1150
    41.4400      1062
    41.4600      1010
    41.4800      1028
    41.5000       974
    41.5200       934
    41.5400       880
    41.5600       810
    41.5800       834
    41.6000       770
    41.6200       826
    41.6400       810
    41.6600       810
    41.6800       862
    41.7000       888
    41.7200       992
    41.7400       994
    41.7600      1052
    41.7800      1132
    41.8000      1084
    41.8200      1310
    41.8400      1288
    41.8600      1370
    41.8800      1276
    41.9000      1284
    41.9200      1388
    41.9400      1460
    41.9600      1330
    41.9800      1246
    42.0000      1218
    42.0200      1184
    42.0400      1040
    42.0600       988
    42.0800       898
    42.1000       834
    42.1200       836
    42.1400       762
    42.1600       700
    42.1800       700
    42.2000       598
    42.2200       578
    42.2400       558
    42.2600       548
    42.2800       496
    42.3000       518
    42.3200       512
    42.3400       478
    42.3600       456
    42.3800       462
    42.4000       426
    42.4200       424
    42.4400       416
    42.4600       430
    42.4800       408
    42.5000       406
    42.5200       412
    42.5400       436
    42.5600       410
    42.5800       400
    42.6000       410
    42.6200       412
    42.6400       390
    42.6600       422
    42.6800       400
    42.7000       398
    42.7200       410
    42.7400       398
    42.7600       420
    42.7800       460
    42.8000       432
    42.8200       444
    42.8400       500
    42.8600       528
    42.8800       518
    42.9000       548
    42.9200       544
    42.9400       584
    42.9600       692
    42.9800       670
    43.0000       720
    43.0200       700
    43.0400       858
    43.0600       912
    43.0800       974
    43.1000      1084
    43.1200      1108
    43.1400      1156
    43.1600      1256
    43.1800      1378
    43.2000      1406
    43.2200      1454
    43.2400      1446
    43.2600      1452
    43.2800      1340
    43.3000      1360
    43.3200      1240
    43.3400      1146
    43.3600      1052
    43.3800      1046
    43.4000       976
    43.4200       882
    43.4400       800
    43.4600       754
    43.4800       740
    43.5000       674
    43.5200       636
    43.5400       628
    43.5600       558
    43.5800       646
    43.6000       594
    43.6200       604
    43.6400       608
    43.6600       568
    43.6800       556
    43.7000       610
    43.7200       612
    43.7400       608
    43.7600       680
    43.7800       654
    43.8000       694
    43.8200       664
    43.8400       662
    43.8600       672
    43.8800       638
    43.9000       646
    43.9200       682
    43.9400       630
    43.9600       610
    43.9800       616
    44.0000       530
    44.0200       598
    44.0400       598
    44.0600       564
    44.0800       592
    44.1000       554
    44.1200       524
    44.1400       570
    44.1600       580
    44.1800       542
    44.2000       610
    44.2200       582
    44.2400       596
    44.2600       636
    44.2800       570
    44.3000       680
    44.3200       660
    44.3400       672
    44.3600       712
    44.3800       728
    44.4000       820
    44.4200       774
    44.4400       892
    44.4600       948
    44.4800       994
    44.5000      1032
    44.5200      1130
    44.5400      1158
    44.5600      1324
    44.5800      1288
    44.6000      1476
    44.6200      1494
    44.6400      1600
    44.6600      1662
    44.6800      1678
    44.7000      1702
    44.7200      1644
    44.7400      1670
    44.7600      1628
    44.7800      1736
    44.8000      1646
    44.8200      1538
    44.8400      1526
    44.8600      1504
    44.8800      1478
    44.9000      1450
    44.9200      1476
    44.9400      1464
    44.9600      1400
    44.9800      1458
    45.0000      1440
    45.0200      1420
    45.0400      1452
    45.0600      1446
    45.0800      1540
    45.1000      1496
    45.1200      1462
    45.1400      1476
    45.1600      1466
    45.1800      1380
    45.2000      1356
    45.2200      1284
    45.2400      1226
    45.2600      1168
    45.2800      1194
    45.3000      1054
    45.3200      1002
    45.3400       940
    45.3600       938
    45.3800       898
    45.4000       828
    45.4200       800
    45.4400       796
    45.4600       744
    45.4800       738
    45.5000       708
    45.5200       688
    45.5400       706
    45.5600       648
    45.5800       680
    45.6000       606
    45.6200       660
    45.6400       618
    45.6600       618
    45.6800       602
    45.7000       618
    45.7200       632
    45.7400       666
    45.7600       658
    45.7800       674
    45.8000       644
    45.8200       658
    45.8400       632
    45.8600       642
    45.8800       652
    45.9000       682
    45.9200       622
    45.9400       650
    45.9600       682
    45.9800       646
    46.0000       662
    46.0200       668
    46.0400       684
    46.0600       676
    46.0800       752
    46.1000       772
    46.1200       796
    46.1400       754
    46.1600       776
    46.1800       890
    46.2000       818
    46.2200       886
    46.2400       914
    46.2600      1008
    46.2800      1012
    46.3000      1026
    46.3200      1156
    46.3400      1250
    46.3600      1344
    46.3800      1508
    46.4000      1548
    46.4200      1656
    46.4400      1826
    46.4600      2078
    46.4800      2252
    46.5000      2466
    46.5200      2738
    46.5400      2932
    46.5600      3302
    46.5800      3662
    46.6000      4060
    46.6200      4420
    46.6400      4946
    46.6600      5168
    46.6800      5374
    46.7000      5592
    46.7200      5780
    46.7400      5876
    46.7600      5762
    46.7800      5638
    46.8000      5374
    46.8200      5292
    46.8400      4922
    46.8600      4490
    46.8800      4220
    46.9000      3886
    46.9200      3612
    46.9400      3332
    46.9600      2872
    46.9800      2786
    47.0000      2482
    47.0200      2462
    47.0400      2240
    47.0600      2062
    47.0800      1992
    47.1000      1812
    47.1200      1714
    47.1400      1562
    47.1600      1466
    47.1800      1348
    47.2000      1304
    47.2200      1170
    47.2400      1108
    47.2600      1060
    47.2800      1004
    47.3000       890
    47.3200       910
    47.3400       830
    47.3600       808
    47.3800       770
    47.4000       764
    47.4200       702
    47.4400       690
    47.4600       720
    47.4800       640
    47.5000       622
    47.5200       674
    47.5400       630
    47.5600       624
    47.5800       638
    47.6000       622
    47.6200       600
    47.6400       676
    47.6600       636
    47.6800       598
    47.7000       644
    47.7200       588
    47.7400       698
    47.7600       692
    47.7800       718
    47.8000       726
    47.8200       818
    47.8400       794
    47.8600       828
    47.8800       728
    47.9000       770
    47.9200       746
    47.9400       800
    47.9600       750
    47.9800       716
    48.0000       732
    48.0200       744
    48.0400       746
    48.0600       756
    48.0800       768
    48.1000       736
    48.1200       698
    48.1400       740
    48.1600       782
    48.1800       846
    48.2000       798
    48.2200       840
    48.2400       846
    48.2600       826
    48.2800       832
    48.3000       858
    48.3200       836
    48.3400       864
    48.3600       812
    48.3800       778
    48.4000       786
    48.4200       772
    48.4400       844
    48.4600       818
    48.4800       834
    48.5000       836
    48.5200       894
    48.5400       868
    48.5600       914
    48.5800       940
    48.6000       902
    48.6200       868
    48.6400       872
    48.6600       890
    48.6800       854
    48.7000       794
    48.7200       820
    48.7400       862
    48.7600       824
    48.7800       774
    48.8000       788
    48.8200       714
    48.8400       690
    48.8600       648
    48.8800       616
    48.9000       552
    48.9200       554
    48.9400       576
    48.9600       496
    48.9800       498
    49.0000       504
    49.0200       474
    49.0400       472
    49.0600       440
    49.0800       440
    49.1000       462
    49.1200       402
    49.1400       344
    49.1600       364
    49.1800       400
    49.2000       374
    49.2200       366
    49.2400       372
    49.2600       362
    49.2800       396
    49.3000       380
    49.3200       350
    49.3400       298
    49.3600       362
    49.3800       304
    49.4000       342
    49.4200       300
    49.4400       352
    49.4600       332
    49.4800       296
    49.5000       336
    49.5200       316
    49.5400       330
    49.5600       334
    49.5800       330
    49.6000       352
    49.6200       354
    49.6400       342
    49.6600       378
    49.6800       346
    49.7000       370
    49.7200       408
    49.7400       330
    49.7600       360
    49.7800       362
    49.8000       356
    49.8200       386
    49.8400       412
    49.8600       406
    49.8800       410
    49.9000       428
    49.9200       430
    49.9400       450
    49.9600       470
    49.9800       492
    50.0000       508
    50.0200       492
    50.0400       558
    50.0600       580
    50.0800       610
    50.1000       572
    50.1200       676
    50.1400       732
    50.1600       770
    50.1800       752
    50.2000       800
    50.2200       890
    50.2400       938
    50.2600      1002
    50.2800      1000
    50.3000       986
    50.3200      1072
    50.3400      1032
    50.3600      1102
    50.3800      1088
    50.4000      1058
    50.4200      1034
    50.4400      1020
    50.4600       994
    50.4800      1004
    50.5000       914
    50.5200       920
    50.5400       970
    50.5600       900
    50.5800       870
    50.6000       876
    50.6200       850
    50.6400       856
    50.6600       830
    50.6800       820
    50.7000       840
    50.7200       840
    50.7400       860
    50.7600       818
    50.7800       862
    50.8000       854
    50.8200       880
    50.8400       834
    50.8600       898
    50.8800       864
    50.9000       852
    50.9200       880
    50.9400       910
    50.9600       858
    50.9800       858
    51.0000       818
    51.0200       810
    51.0400       834
    51.0600       812
    51.0800       782
    51.1000       734
    51.1200       704
    51.1400       778
    51.1600       724
    51.1800       666
    51.2000       734
    51.2200       696
    51.2400       754
    51.2600       734
    51.2800       762
    51.3000       732
    51.3200       706
    51.3400       774
    51.3600       730
    51.3800       742
    51.4000       790
    51.4200       744
    51.4400       752
    51.4600       732
    51.4800       796
    51.5000       724
    51.5200       724
    51.5400       754
    51.5600       762
    51.5800       730
    51.6000       744
    51.6200       712
    51.6400       788
    51.6600       790
    51.6800       804
    51.7000       816
    51.7200       768
    51.7400       870
    51.7600       854
    51.7800       862
    51.8000       926
    51.8200       976
    51.8400       992
    51.8600      1004
    51.8800       962
    51.9000       962
    51.9200      1032
    51.9400      1012
    51.9600      1032
    51.9800       952
    52.0000       956
    52.0200       966
    52.0400       944
    52.0600       908
    52.0800       832
    52.1000       808
    52.1200       836
    52.1400       736
    52.1600       752
    52.1800       718
    52.2000       682
    52.2200       698
    52.2400       630
    52.2600       662
    52.2800       660
    52.3000       656
    52.3200       682
    52.3400       642
    52.3600       696
    52.3800       704
    52.4000       740
    52.4200       794
    52.4400       774
    52.4600       834
    52.4800       904
    52.5000       896
    52.5200       970
    52.5400       998
    52.5600      1052
    52.5800      1014
    52.6000      1138
    52.6200      1102
    52.6400      1086
    52.6600      1110
    52.6800      1096
    52.7000      1156
    52.7200      1090
    52.7400      1020
    52.7600      1006
    52.7800       922
    52.8000       910
    52.8200       902
    52.8400       904
    52.8600       810
    52.8800       814
    52.9000       818
    52.9200       834
    52.9400       780
    52.9600       792
    52.9800       778
    53.0000       774
    53.0200       782
    53.0400       824
    53.0600       838
    53.0800       822
    53.1000       860
    53.1200       868
    53.1400       998
    53.1600      1022
    53.1800      1062
    53.2000      1118
    53.2200      1138
    53.2400      1192
    53.2600      1262
    53.2800      1320
    53.3000      1198
    53.3200      1334
    53.3400      1216
    53.3600      1254
    53.3800      1248
    53.4000      1214
    53.4200      1094
    53.4400      1082
    53.4600      1030
    53.4800      1006
    53.5000       914
    53.5200       864
    53.5400       796
    53.5600       714
    53.5800       714
    53.6000       664
    53.6200       638
    53.6400       612
    53.6600       570
    53.6800       560
    53.7000       534
    53.7200       512
    53.7400       516
    53.7600       488
    53.7800       492
    53.8000       498
    53.8200       452
    53.8400       474
    53.8600       440
    53.8800       460
    53.9000       414
    53.9200       436
    53.9400       424
    53.9600       402
    53.9800       436
    54.0000       400
    54.0200       422
    54.0400       374
    54.0600       368
    54.0800       438
    54.1000       410
    54.1200       410
    54.1400       428
    54.1600       388
    54.1800       384
    54.2000       382
    54.2200       420
    54.2400       416
    54.2600       416
    54.2800       394
    54.3000       406
    54.3200       444
    54.3400       430
    54.3600       390
    54.3800       424
    54.4000       448
    54.4200       486
    54.4400       486
    54.4600       476
    54.4800       482
    54.5000       514
    54.5200       542
    54.5400       576
    54.5600       570
    54.5800       610
    54.6000       614
    54.6200       606
    54.6400       616
    54.6600       680
    54.6800       714
    54.7000       706
    54.7200       744
    54.7400       716
    54.7600       724
    54.7800       714
    54.8000       736
    54.8200       746
    54.8400       740
    54.8600       708
    54.8800       776
    54.9000       708
    54.9200       700
    54.9400       760
    54.9600       758
    54.9800       744
    55.0000       758
    55.0200       738
    55.0400       740
    55.0600       754
    55.0800       758
    55.1000       766
    55.1200       744
    55.1400       780
    55.1600       784
    55.1800       760
    55.2000       794
    55.2200       868
    55.2400       810
    55.2600       818
    55.2800       852
    55.3000       828
    55.3200       822
    55.3400       870
    55.3600       864
    55.3800       836
    55.4000       830
    55.4200       870
    55.4400       860
    55.4600       802
    55.4800       824
    55.5000       804
    55.5200       854
    55.5400       796
    55.5600       820
    55.5800       786
    55.6000       786
    55.6200       784
    55.6400       806
    55.6600       706
    55.6800       690
    55.7000       686
    55.7200       730
    55.7400       702
    55.7600       718
    55.7800       668
    55.8000       620
    55.8200       618
    55.8400       588
    55.8600       598
    55.8800       560
    55.9000       556
    55.9200       542
    55.9400       554
    55.9600       460
    55.9800       478
    56.0000       470
    56.0200       436
    56.0400       454
    56.0600       438
    56.0800       412
    56.1000       416
    56.1200       418
    56.1400       390
    56.1600       356
    56.1800       404
    56.2000       336
    56.2200       380
    56.2400       372
    56.2600       360
    56.2800       338
    56.3000       340
    56.3200       364
    56.3400       380
    56.3600       328
    56.3800       384
    56.4000       342
    56.4200       368
    56.4400       344
    56.4600       348
    56.4800       382
    56.5000       396
    56.5200       360
    56.5400       382
    56.5600       336
    56.5800       380
    56.6000       378
    56.6200       394
    56.6400       372
    56.6600       404
    56.6800       400
    56.7000       346
    56.7200       392
    56.7400       380
    56.7600       432
    56.7800       416
    56.8000       444
    56.8200       422
    56.8400       410
    56.8600       424
    56.8800       432
    56.9000       410
    56.9200       482
    56.9400       424
    56.9600       514
    56.9800       492
    57.0000       486
    57.0200       470
    57.0400       566
    57.0600       544
    57.0800       594
    57.1000       594
    57.1200       580
    57.1400       654
    57.1600       724
    57.1800       734
    57.2000       758
    57.2200       828
    57.2400       896
    57.2600       948
    57.2800      1018
    57.3000      1090
    57.3200      1104
    57.3400      1200
    57.3600      1248
    57.3800      1286
    57.4000      1276
    57.4200      1310
    57.4400      1416
    57.4600      1366
    57.4800      1426
    57.5000      1298
    57.5200      1344
    57.5400      1312
    57.5600      1298
    57.5800      1308
    57.6000      1370
    57.6200      1306
    57.6400      1302
    57.6600      1368
    57.6800      1294
    57.7000      1404
    57.7200      1346
    57.7400      1390
    57.7600      1306
    57.7800      1368
    57.8000      1352
    57.8200      1326
    57.8400      1256
    57.8600      1230
    57.8800      1174
    57.9000      1210
    57.9200      1172
    57.9400      1114
    57.9600      1080
    57.9800      1066
    58.0000       880
    58.0200       926
    58.0400       908
    58.0600       920
    58.0800       878
    58.1000       908
    58.1200       886
    58.1400       920
    58.1600       846
    58.1800       906
    58.2000       908
    58.2200      1020
    58.2400      1012
    58.2600      1040
    58.2800      1096
    58.3000      1096
    58.3200      1220
    58.3400      1196
    58.3600      1262
    58.3800      1318
    58.4000      1364
    58.4200      1462
    58.4400      1542
    58.4600      1540
    58.4800      1664
    58.5000      1672
    58.5200      1816
    58.5400      1810
    58.5600      1918
    58.5800      1932
    58.6000      2038
    58.6200      2070
    58.6400      2178
    58.6600      2210
    58.6800      2334
    58.7000      2256
    58.7200      2276
    58.7400      2264
    58.7600      2296
    58.7800      2322
    58.8000      2208
    58.8200      2130
    58.8400      2048
    58.8600      2060
    58.8800      1908
    58.9000      1870
    58.9200      1716
    58.9400      1654
    58.9600      1650
    58.9800      1572
    59.0000      1436
    59.0200      1468
    59.0400      1332
    59.0600      1234
    59.0800      1096
    59.1000      1084
    59.1200      1016
    59.1400       902
    59.1600       984
    59.1800       932
    59.2000       800
    59.2200       788
    59.2400       822
    59.2600       770
    59.2800       734
    59.3000       724
    59.3200       742
    59.3400       700
    59.3600       744
    59.3800       720
    59.4000       680
    59.4200       692
    59.4400       674
    59.4600       656
    59.4800       682
    59.5000       602
    59.5200       660
    59.5400       634
    59.5600       690
    59.5800       686
    59.6000       696
    59.6200       678
    59.6400       688
    59.6600       674
    59.6800       702
    59.7000       688
    59.7200       692
    59.7400       672
    59.7600       748
    59.7800       700
    59.8000       666
    59.8200       662
    59.8400       646
    59.8600       646
    59.8800       630
    59.9000       642
    59.9200       632
    59.9400       560
    59.9600       626
    59.9800       608
    60.0000       516
    60.0200       516
    60.0400       520
    60.0600       532
    60.0800       510
    60.1000       522
    60.1200       514
    60.1400       464
    60.1600       438
    60.1800       452
    60.2000       470
    60.2200       438
    60.2400       402
    60.2600       472
    60.2800       390
    60.3000       450
    60.3200       444
    60.3400       426
    60.3600       416
    60.3800       378
    60.4000       398
    60.4200       390
    60.4400       406
    60.4600       400
    60.4800       376
    60.5000       400
    60.5200       400
    60.5400       422
    60.5600       406
    60.5800       392
    60.6000       420
    60.6200       386
    60.6400       384
    60.6600       418
    60.6800       428
    60.7000       426
    60.7200       412
    60.7400       462
    60.7600       412
    60.7800       424
    60.8000       486
    60.8200       444
    60.8400       456
    60.8600       472
    60.8800       458
    60.9000       490
    60.9200       472
    60.9400       490
    60.9600       500
    60.9800       526
    61.0000       486
    61.0200       530
    61.0400       582
    61.0600       568
    61.0800       560
    61.1000       554
    61.1200       568
    61.1400       592
    61.1600       578
    61.1800       616
    61.2000       678
    61.2200       620
    61.2400       608
    61.2600       592
    61.2800       650
    61.3000       598
    61.3200       636
    61.3400       580
    61.3600       590
    61.3800       566
    61.4000       600
    61.4200       578
    61.4400       636
    61.4600       676
    61.4800       620
    61.5000       626
    61.5200       640
    61.5400       568
    61.5600       596
    61.5800       580
    61.6000       570
    61.6200       570
    61.6400       558
    61.6600       520
    61.6800       522
    61.7000       520
    61.7200       558
    61.7400       488
    61.7600       536
    61.7800       528
    61.8000       502
    61.8200       482
    61.8400       464
    61.8600       450
    61.8800       452
    61.9000       482
    61.9200       424
    61.9400       490
    61.9600       476
    61.9800       516
    62.0000       462
    62.0200       436
    62.0400       430
    62.0600       444
    62.0800       472
    62.1000       492
    62.1200       454
    62.1400       430
    62.1600       458
    62.1800       488
    62.2000       486
    62.2200       444
    62.2400       458
    62.2600       430
    62.2800       510
    62.3000       414
    62.3200       440
    62.3400       452
    62.3600       452
    62.3800       450
    62.4000       400
    62.4200       418
    62.4400       392
    62.4600       412
    62.4800       412
    62.5000       438
    62.5200       358
    62.5400       420
    62.5600       374
    62.5800       380
    62.6000       364
    62.6200       354
    62.6400       380
    62.6600       376
    62.6800       380
    62.7000       370
    62.7200       354
    62.7400       318
    62.7600       344
    62.7800       312
    62.8000       346
    62.8200       352
    62.8400       312
    62.8600       320
    62.8800       332
    62.9000       308
    62.9200       340
    62.9400       270
    62.9600       300
    62.9800       294
    63.0000       272
    63.0200       278
    63.0400       290
    63.0600       284
    63.0800       272
    63.1000       286
    63.1200       254
    63.1400       274
    63.1600       288
    63.1800       268
    63.2000       254
    63.2200       256
    63.2400       250
    63.2600       254
    63.2800       260
    63.3000       268
    63.3200       234
    63.3400       238
    63.3600       228
    63.3800       270
    63.4000       258
    63.4200       256
    63.4400       278
    63.4600       266
    63.4800       268
    63.5000       282
    63.5200       278
    63.5400       292
    63.5600       292
    63.5800       308
    63.6000       310
    63.6200       342
    63.6400       318
    63.6600       324
    63.6800       308
    63.7000       366
    63.7200       350
    63.7400       346
    63.7600       370
    63.7800       404
    63.8000       420
    63.8200       396
    63.8400       410
    63.8600       458
    63.8800       414
    63.9000       430
    63.9200       416
    63.9400       420
    63.9600       428
    63.9800       430
    64.0000       400
    64.0200       428
    64.0400       386
    64.0600       416
    64.0800       380
    64.1000       370
    64.1200       394
    64.1400       344
    64.1600       340
    64.1800       354
    64.2000       338
    64.2200       332
    64.2400       306
    64.2600       306
    64.2800       316
    64.3000       308
    64.3200       314
    64.3400       302
    64.3600       306
    64.3800       316
    64.4000       294
    64.4200       284
    64.4400       310
    64.4600       304
    64.4800       314
    64.5000       282
    64.5200       308
    64.5400       320
    64.5600       304
    64.5800       336
    64.6000       306
    64.6200       356
    64.6400       314
    64.6600       324
    64.6800       368
    64.7000       376
    64.7200       404
    64.7400       408
    64.7600       414
    64.7800       430
    64.8000       440
    64.8200       430
    64.8400       466
    64.8600       512
    64.8800       518
    64.9000       530
    64.9200       492
    64.9400       536
    64.9600       574
    64.9800       576
    65.0000       610
    65.0200       592
    65.0400       596
    65.0600       618
    65.0800       620
    65.1000       656
    65.1200       620
    65.1400       624
    65.1600       582
    65.1800       608
    65.2000       654
    65.2200       636
    65.2400       606
    65.2600       626
    65.2800       624
    65.3000       602
    65.3200       598
    65.3400       572
    65.3600       504
    65.3800       534
    65.4000       526
    65.4200       496
    65.4400       504
    65.4600       506
    65.4800       494
    65.5000       436
    65.5200       494
    65.5400       428
    65.5600       420
    65.5800       444
    65.6000       390
    65.6200       366
    65.6400       422
    65.6600       348
    65.6800       336
    65.7000       358
    65.7200       352
    65.7400       348
    65.7600       350
    65.7800       326
    65.8000       328
    65.8200       320
    65.8400       284
    65.8600       300
    65.8800       326
    65.9000       278
    65.9200       266
    65.9400       306
    65.9600       306
    65.9800       282
    66.0000       304
    66.0200       284
    66.0400       274
    66.0600       282
    66.0800       278
    66.1000       274
    66.1200       284
    66.1400       244
    66.1600       266
    66.1800       272
    66.2000       280
    66.2200       250
    66.2400       268
    66.2600       312
    66.2800       268
    66.3000       242
    66.3200       290
    66.3400       276
    66.3600       336
    66.3800       328
    66.4000       326
    66.4200       344
    66.4400       340
    66.4600       366
    66.4800       330
    66.5000       358
    66.5200       350
    66.5400       402
    66.5600       356
    66.5800       354
    66.6000       406
    66.6200       416
    66.6400       438
    66.6600       480
    66.6800       394
    66.7000       432
    66.7200       448
    66.7400       450
    66.7600       492
    66.7800       532
    66.8000       536
    66.8200       514
    66.8400       566
    66.8600       528
    66.8800       530
    66.9000       550
    66.9200       616
    66.9400       564
    66.9600       556
    66.9800       540
    67.0000       546
    67.0200       496
    67.0400       540
    67.0600       538
    67.0800       552
    67.1000       490
    67.1200       482
    67.1400       464
    67.1600       480
    67.1800       456
    67.2000       432
    67.2200       400
    67.2400       412
    67.2600       412
    67.2800       392
    67.3000       360
    67.3200       374
    67.3400       326
    67.3600       362
    67.3800       390
    67.4000       356
    67.4200       370
    67.4400       346
    67.4600       306
    67.4800       308
    67.5000       312
    67.5200       302
    67.5400       342
    67.5600       306
    67.5800       366
    67.6000       314
    67.6200       330
    67.6400       350
    67.6600       342
    67.6800       332
    67.7000       366
    67.7200       370
    67.7400       376
    67.7600       422
    67.7800       382
    67.8000       448
    67.8200       390
    67.8400       424
    67.8600       432
    67.8800       506
    67.9000       512
    67.9200       536
    67.9400       562
    67.9600       592
    67.9800       618
    68.0000       672
    68.0200       698
    68.0400       692
    68.0600       764
    68.0800       824
    68.1000       876
    68.1200       866
    68.1400       920
    68.1600       936
    68.1800       926
    68.2000       936
    68.2200       948
    68.2400       880
    68.2600       930
    68.2800       928
    68.3000       954
    68.3200       908
    68.3400       894
    68.3600       820
    68.3800       824
    68.4000       788
    68.4200       724
    68.4400       790
    68.4600       742
    68.4800       704
    68.5000       648
    68.5200       656
    68.5400       662
    68.5600       594
    68.5800       588
    68.6000       528
    68.6200       548
    68.6400       514
    68.6600       506
    68.6800       480
    68.7000       486
    68.7200       480
    68.7400       442
    68.7600       416
    68.7800       418
    68.8000       422
    68.8200       410
    68.8400       422
    68.8600       386
    68.8800       408
    68.9000       428
    68.9200       366
    68.9400       380
    68.9600       328
    68.9800       360
    69.0000       362
    69.0200       338
    69.0400       356
    69.0600       340
    69.0800       346
    69.1000       304
    69.1200       364
    69.1400       364
    69.1600       356
    69.1800       364
    69.2000       354
    69.2200       352
    69.2400       394
    69.2600       358
    69.2800       416
    69.3000       408
    69.3200       376
    69.3400       422
    69.3600       400
    69.3800       400
    69.4000       390
    69.4200       444
    69.4400       410
    69.4600       462
    69.4800       450
    69.5000       432
    69.5200       466
    69.5400       422
    69.5600       408
    69.5800       418
    69.6000       366
    69.6200       408
    69.6400       390
    69.6600       356
    69.6800       406
    69.7000       368
    69.7200       378
    69.7400       340
    69.7600       368
    69.7800       320
    69.8000       318
    69.8200       312
    69.8400       306
    69.8600       300
    69.8800       290
    69.9000       286
    69.9200       280
    69.9400       272
    69.9600       296
    69.9800       270
    70.0000       270
    70.0200       260
    70.0400       256
    70.0600       298
    70.0800       224
    70.1000       232
    70.1200       218
    70.1400       208
    70.1600       220
    70.1800       226
    70.2000       242
    70.2200       244
    70.2400       218
    70.2600       228
    70.2800       232
    70.3000       246
    70.3200       236
    70.3400       222
    70.3600       238
    70.3800       216
    70.4000       216
    70.4200       202
    70.4400       228
    70.4600       230
    70.4800       218
    70.5000       220
    70.5200       222
    70.5400       204
    70.5600       252
    70.5800       230
    70.6000       230
    70.6200       224
    70.6400       222
    70.6600       234
    70.6800       228
    70.7000       232
    70.7200       266
    70.7400       234
    70.7600       216
    70.7800       234
    70.8000       232
    70.8200       240
    70.8400       226
    70.8600       238
    70.8800       222
    70.9000       218
    70.9200       238
    70.9400       204
    70.9600       268
    70.9800       246
    71.0000       222
    71.0200       256
    71.0400       236
    71.0600       240
    71.0800       272
    71.1000       264
    71.1200       264
    71.1400       268
    71.1600       290
    71.1800       294
    71.2000       274
    71.2200       268
    71.2400       294
    71.2600       344
    71.2800       336
    71.3000       358
    71.3200       340
    71.3400       374
    71.3600       366
    71.3800       406
    71.4000       390
    71.4200       420
    71.4400       396
    71.4600       480
    71.4800       436
    71.5000       468
    71.5200       482
    71.5400       484
    71.5600       530
    71.5800       504
    71.6000       464
    71.6200       518
    71.6400       500
    71.6600       498
    71.6800       510
    71.7000       516
    71.7200       512
    71.7400       482
    71.7600       492
    71.7800       474
    71.8000       458
    71.8200       474
    71.8400       464
    71.8600       404
    71.8800       426
    71.9000       446
    71.9200       458
    71.9400       444
    71.9600       410
    71.9800       424
    72.0000       428
    72.0200       420
    72.0400       370
    72.0600       432
    72.0800       388
    72.1000       430
    72.1200       404
    72.1400       392
    72.1600       442
    72.1800       424
    72.2000       408
    72.2200       440
    72.2400       432
    72.2600       440
    72.2800       462
    72.3000       402
    72.3200       446
    72.3400       432
    72.3600       426
    72.3800       424
    72.4000       386
    72.4200       420
    72.4400       412
    72.4600       400
    72.4800       428
    72.5000       404
    72.5200       410
    72.5400       436
    72.5600       388
    72.5800       412
    72.6000       436
    72.6200       414
    72.6400       376
    72.6600       404
    72.6800       404
    72.7000       370
    72.7200       374
    72.7400       340
    72.7600       368
    72.7800       356
    72.8000       330
    72.8200       376
    72.8400       324
    72.8600       348
    72.8800       350
    72.9000       372
    72.9200       312
    72.9400       352
    72.9600       344
    72.9800       330
    73.0000       338
    73.0200       328
    73.0400       318
    73.0600       296
    73.0800       290
    73.1000       298
    73.1200       268
    73.1400       276
    73.1600       262
    73.1800       264
    73.2000       276
    73.2200       274
    73.2400       270
    73.2600       258
    73.2800       268
    73.3000       274
    73.3200       264
    73.3400       224
    73.3600       240
    73.3800       258
    73.4000       240
    73.4200       226
    73.4400       226
    73.4600       262
    73.4800       272
    73.5000       242
    73.5200       244
    73.5400       252
    73.5600       264
    73.5800       260
    73.6000       256
    73.6200       314
    73.6400       268
    73.6600       316
    73.6800       298
    73.7000       326
    73.7200       322
    73.7400       336
    73.7600       342
    73.7800       310
    73.8000       354
    73.8200       310
    73.8400       346
    73.8600       360
    73.8800       374
    73.9000       364
    73.9200       366
    73.9400       360
    73.9600       342
    73.9800       340
    74.0000       358
    74.0200       358
    74.0400       342
    74.0600       366
    74.0800       364
    74.1000       318
    74.1200       358
    74.1400       350
    74.1600       306
    74.1800       346
    74.2000       304
    74.2200       334
    74.2400       306
    74.2600       346
    74.2800       308
    74.3000       286
    74.3200       268
    74.3400       282
    74.3600       264
    74.3800       274
    74.4000       294
    74.4200       254
    74.4400       278
    74.4600       262
    74.4800       252
    74.5000       244
    74.5200       246
    74.5400       244
    74.5600       210
    74.5800       226
    74.6000       236
    74.6200       228
    74.6400       236
    74.6600       196
    74.6800       210
    74.7000       204
    74.7200       232
    74.7400       216
    74.7600       194
    74.7800       210
    74.8000       208
    74.8200       188
    74.8400       206
    74.8600       206
    74.8800       222
    74.9000       218
    74.9200       218
    74.9400       218
    74.9600       260
    74.9800       218
    75.0000       238
    75.0200       204
    75.0400       218
    75.0600       194
    75.0800       220
    75.1000       212
    75.1200       212
    75.1400       204
    75.1600       202
    75.1800       210
    75.2000       216
    75.2200       224
    75.2400       244
    75.2600       220
    75.2800       188
    75.3000       220
    75.3200       182
    75.3400       240
    75.3600       252
    75.3800       214
    75.4000       226
    75.4200       216
    75.4400       204
    75.4600       230
    75.4800       234
    75.5000       232
    75.5200       256
    75.5400       206
    75.5600       240
    75.5800       242
    75.6000       232
    75.6200       226
    75.6400       226
    75.6600       222
    75.6800       252
    75.7000       242
    75.7200       222
    75.7400       292
    75.7600       250
    75.7800       240
    75.8000       246
    75.8200       254
    75.8400       286
    75.8600       246
    75.8800       232
    75.9000       246
    75.9200       236
    75.9400       244
    75.9600       222
    75.9800       238
    76.0000       270
    76.0200       252
    76.0400       256
    76.0600       274
    76.0800       266
    76.1000       268
    76.1200       258
    76.1400       306
    76.1600       278
    76.1800       296
    76.2000       272
    76.2200       296
    76.2400       266
    76.2600       290
    76.2800       290
    76.3000       282
    76.3200       268
    76.3400       280
    76.3600       312
    76.3800       322
    76.4000       310
    76.4200       312
    76.4400       310
    76.4600       310
    76.4800       344
    76.5000       304
    76.5200       310
    76.5400       312
    76.5600       306
    76.5800       366
    76.6000       322
    76.6200       314
    76.6400       330
    76.6600       346
    76.6800       346
    76.7000       374
    76.7200       350
    76.7400       370
    76.7600       344
    76.7800       360
    76.8000       336
    76.8200       320
    76.8400       336
    76.8600       362
    76.8800       360
    76.9000       334
    76.9200       350
    76.9400       314
    76.9600       318
    76.9800       326
    77.0000       310
    77.0200       316
    77.0400       330
    77.0600       320
    77.0800       350
    77.1000       354
    77.1200       340
    77.1400       340
    77.1600       338
    77.1800       340
    77.2000       330
    77.2200       350
    77.2400       338
    77.2600       368
    77.2800       364
    77.3000       380
    77.3200       376
    77.3400       384
    77.3600       406
    77.3800       426
    77.4000       446
    77.4200       460
    77.4400       476
    77.4600       502
    77.4800       524
    77.5000       518
    77.5200       598
    77.5400       622
    77.5600       576
    77.5800       638
    77.6000       610
    77.6200       604
    77.6400       632
    77.6600       628
    77.6800       620
    77.7000       634
    77.7200       688
    77.7400       622
    77.7600       646
    77.7800       606
    77.8000       630
    77.8200       622
    77.8400       570
    77.8600       618
    77.8800       606
    77.9000       572
    77.9200       546
    77.9400       518
    77.9600       534
    77.9800       540
    78.0000       536
    78.0200       474
    78.0400       492
    78.0600       522
    78.0800       502
    78.1000       472
    78.1200       438
    78.1400       434
    78.1600       436
    78.1800       444
    78.2000       406
    78.2200       396
    78.2400       410
    78.2600       394
    78.2800       402
    78.3000       448
    78.3200       364
    78.3400       402
    78.3600       374
    78.3800       364
    78.4000       438
    78.4200       382
    78.4400       380
    78.4600       436
    78.4800       386
    78.5000       384
    78.5200       386
    78.5400       332
    78.5600       374
    78.5800       406
    78.6000       378
    78.6200       364
    78.6400       384
    78.6600       362
    78.6800       406
    78.7000       356
    78.7200       360
    78.7400       404
    78.7600       384
    78.7800       356
    78.8000       352
    78.8200       336
    78.8400       312
    78.8600       342
    78.8800       350
    78.9000       296
    78.9200       342
    78.9400       352
    78.9600       324
    78.9800       300
    79.0000       294
    79.0200       300
    79.0400       296
    79.0600       270
    79.0800       290
    79.1000       306
    79.1200       286
    79.1400       262
    79.1600       292
    79.1800       276
    79.2000       250
    79.2200       258
    79.2400       256
    79.2600       256
    79.2800       246
    79.3000       262
    79.3200       242
    79.3400       236
    79.3600       254
    79.3800       268
    79.4000       264
    79.4200       266
    79.4400       220
    79.4600       258
    79.4800       240
    79.5000       216
    79.5200       260
    79.5400       246
    79.5600       230
    79.5800       256
    79.6000       216
    79.6200       268
    79.6400       236
    79.6600       278
    79.6800       252
    79.7000       238
    79.7200       248
    79.7400       224
    79.7600       234
    79.7800       250
    79.8000       246
    79.8200       252
    79.8400       246
    79.8600       270
    79.8800       258
    79.9000       266
    79.9200       224
    79.9400       220
    79.9600       234
    79.9800       222
    80.0000       220
    80.0200       252
    80.0400       252
    80.0600       218
    80.0800       224
    80.1000       242
    80.1200       218
    80.1400       228
    80.1600       252
    80.1800       232
    80.2000       236
    80.2200       198
    80.2400       268
    80.2600       252
    80.2800       230
    80.3000       236
    80.3200       210
    80.3400       220
    80.3600       228
    80.3800       250
    80.4000       240
    80.4200       236
    80.4400       244
    80.4600       236
    80.4800       272
    80.5000       248
    80.5200       218
    80.5400       240
    80.5600       228
    80.5800       230
    80.6000       234
    80.6200       240
    80.6400       264
    80.6600       238
    80.6800       236
    80.7000       224
    80.7200       222
    80.7400       238
    80.7600       232
    80.7800       238
    80.8000       228
    80.8200       214
    80.8400       202
    80.8600       212
    80.8800       224
    80.9000       232
    80.9200       244
    80.9400       246
    80.9600       264
    80.9800       200
    81.0000       218
    81.0200       222
    81.0400       238
    81.0600       258
    81.0800       208
    81.1000       242
    81.1200       236
    81.1400       232
    81.1600       208
    81.1800       248
    81.2000       240
    81.2200       236
    81.2400       220
    81.2600       240
    81.2800       240
    81.3000       250
    81.3200       238
    81.3400       244
    81.3600       248
    81.3800       238
    81.4000       282
    81.4200       260
    81.4400       246
    81.4600       280
    81.4800       280
    81.5000       240
    81.5200       238
    81.5400       268
    81.5600       298
    81.5800       258
    81.6000       256
    81.6200       256
    81.6400       274
    81.6600       300
    81.6800       236
    81.7000       276
    81.7200       288
    81.7400       264
    81.7600       266
    81.7800       304
    81.8000       276
    81.8200       256
    81.8400       278
    81.8600       276
    81.8800       284
    81.9000       260
    81.9200       322
    81.9400       272
    81.9600       298
    81.9800       304
    82.0000       272
    82.0200       314
    82.0400       326
    82.0600       334
    82.0800       302
    82.1000       308
    82.1200       324
    82.1400       314
    82.1600       390
    82.1800       368
    82.2000       346
    82.2200       342
    82.2400       368
    82.2600       372
    82.2800       366
    82.3000       424
    82.3200       350
    82.3400       396
    82.3600       374
    82.3800       398
    82.4000       348
    82.4200       356
    82.4400       376
    82.4600       390
    82.4800       388
    82.5000       380
    82.5200       360
    82.5400       378
    82.5600       414
    82.5800       418
    82.6000       408
    82.6200       384
    82.6400       424
    82.6600       436
    82.6800       374
    82.7000       418
    82.7200       392
    82.7400       390
    82.7600       410
    82.7800       382
    82.8000       386
    82.8200       394
    82.8400       458
    82.8600       434
    82.8800       428
    82.9000       420
    82.9200       392
    82.9400       386
    82.9600       418
    82.9800       402
    83.0000       408
    83.0200       396
    83.0400       380
    83.0600       378
    83.0800       380
    83.1000       384
    83.1200       400
    83.1400       368
    83.1600       370
    83.1800       364
    83.2000       388
    83.2200       358
    83.2400       396
    83.2600       352
    83.2800       336
    83.3000       412
    83.3200       374
    83.3400       332
    83.3600       354
    83.3800       346
    83.4000       312
    83.4200       334
    83.4400       330
    83.4600       324
    83.4800       332
    83.5000       320
    83.5200       318
    83.5400       288
    83.5600       322
    83.5800       316
    83.6000       284
    83.6200       332
    83.6400       326
    83.6600       274
    83.6800       270
    83.7000       292
    83.7200       310
    83.7400       270
    83.7600       292
    83.7800       290
    83.8000       262
    83.8200       314
    83.8400       278
    83.8600       274
    83.8800       276
    83.9000       290
    83.9200       264
    83.9400       268
    83.9600       280
    83.9800       266
    84.0000       288
    84.0200       300
    84.0400       284
    84.0600       268
    84.0800       246
    84.1000       278
    84.1200       256
    84.1400       268
    84.1600       274
    84.1800       258
    84.2000       266
    84.2200       270
    84.2400       292
    84.2600       282
    84.2800       238
    84.3000       258
    84.3200       262
    84.3400       252
    84.3600       260
    84.3800       284
    84.4000       242
    84.4200       250
    84.4400       234
    84.4600       272
    84.4800       256
    84.5000       250
    84.5200       282
    84.5400       282
    84.5600       268
    84.5800       272
    84.6000       240
    84.6200       260
    84.6400       246
    84.6600       244
    84.6800       238
    84.7000       252
    84.7200       238
    84.7400       246
    84.7600       236
    84.7800       214
    84.8000       224
    84.8200       278
    84.8400       228
    84.8600       254
    84.8800       222
    84.9000       224
    84.9200       232
    84.9400       240
    84.9600       212
    84.9800       194
    85.0000       218
    85.0200       224
    85.0400       232
    85.0600       216
    85.0800       236
    85.1000       218
    85.1200       232
    85.1400       202
    85.1600       210
    85.1800       208
    85.2000       220
    85.2200       230
    85.2400       218
    85.2600       244
    85.2800       224
    85.3000       226
    85.3200       216
    85.3400       240
    85.3600       234
    85.3800       246
    85.4000       224
    85.4200       240
    85.4400       250
    85.4600       248
    85.4800       222
    85.5000       262
    85.5200       234
    85.5400       284
    85.5600       262
    85.5800       258
    85.6000       242
    85.6200       236
    85.6400       256
    85.6600       306
    85.6800       248
    85.7000       254
    85.7200       248
    85.7400       276
    85.7600       260
    85.7800       236
    85.8000       236
    85.8200       256
    85.8400       238
    85.8600       226
    85.8800       228
    85.9000       262
    85.9200       258
    85.9400       214
    85.9600       236
    85.9800       234
    86.0000       246
    86.0200       276
    86.0400       224
    86.0600       244
    86.0800       220
    86.1000       204
    86.1200       246
    86.1400       222
    86.1600       208
    86.1800       224
    86.2000       218
    86.2200       226
    86.2400       210
    86.2600       218
    86.2800       218
    86.3000       200
    86.3200       220
    86.3400       228
    86.3600       228
    86.3800       214
    86.4000       224
    86.4200       220
    86.4400       218
    86.4600       220
    86.4800       222
    86.5000       238
    86.5200       230
    86.5400       224
    86.5600       220
    86.5800       218
    86.6000       230
    86.6200       252
    86.6400       268
    86.6600       258
    86.6800       270
    86.7000       236
    86.7200       256
    86.7400       266
    86.7600       264
    86.7800       258
    86.8000       252
    86.8200       262
    86.8400       254
    86.8600       246
    86.8800       270
    86.9000       266
    86.9200       280
    86.9400       300
    86.9600       282
    86.9800       322
    87.0000       318
    87.0200       308
    87.0400       286
    87.0600       316
    87.0800       282
    87.1000       314
    87.1200       304
    87.1400       340
    87.1600       320
    87.1800       352
    87.2000       314
    87.2200       306
    87.2400       302
    87.2600       314
    87.2800       312
    87.3000       308
    87.3200       312
    87.3400       314
    87.3600       300
    87.3800       342
    87.4000       312
    87.4200       332
    87.4400       320
    87.4600       334
    87.4800       314
    87.5000       328
    87.5200       302
    87.5400       306
    87.5600       322
    87.5800       318
    87.6000       308
    87.6200       320
    87.6400       298
    87.6600       354
    87.6800       288
    87.7000       318
    87.7200       316
    87.7400       342
    87.7600       308
    87.7800       330
    87.8000       350
    87.8200       290
    87.8400       356
    87.8600       348
    87.8800       346
    87.9000       316
    87.9200       350
    87.9400       354
    87.9600       316
    87.9800       304
    88.0000       310
    88.0200       300
    88.0400       336
    88.0600       340
    88.0800       330
    88.1000       326
    88.1200       320
    88.1400       316
    88.1600       318
    88.1800       322
    88.2000       334
    88.2200       338
    88.2400       298
    88.2600       322
    88.2800       328
    88.3000       318
    88.3200       348
    88.3400       294
    88.3600       350
    88.3800       330
    88.4000       330
    88.4200       332
    88.4400       324
    88.4600       326
    88.4800       344
    88.5000       334
    88.5200       292
    88.5400       308
    88.5600       310
    88.5800       300
    88.6000       326
    88.6200       348
    88.6400       272
    88.6600       278
    88.6800       308
    88.7000       304
    88.7200       288
    88.7400       320
    88.7600       268
    88.7800       316
    88.8000       276
    88.8200       286
    88.8400       280
    88.8600       272
    88.8800       248
    88.9000       290
    88.9200       280
    88.9400       268
    88.9600       278
    88.9800       262
    89.0000       256
    89.0200       246
    89.0400       262
    89.0600       264
    89.0800       248
    89.1000       234
    89.1200       234
    89.1400       236
    89.1600       244
    89.1800       242
    89.2000       234
    89.2200       234
    89.2400       236
    89.2600       264
    89.2800       234
    89.3000       242
    89.3200       242
    89.3400       212
    89.3600       246
    89.3800       216
    89.4000       258
    89.4200       250
    89.4400       238
    89.4600       232
    89.4800       258
    89.5000       250
    89.5200       238
    89.5400       232
    89.5600       252
    89.5800       270
    89.6000       266
    89.6200       248
    89.6400       290
    89.6600       274
    89.6800       242
    89.7000       274
    89.7200       264
    89.7400       272
    89.7600       246
    89.7800       252
    89.8000       266
    89.8200       298
    89.8400       250
    89.8600       292
    89.8800       250
    89.9000       280
    89.9200       280
    89.9400       260
    89.9600       274
    89.9800       300
    90.0000       294
