    10.0000       376
    10.0200       392
    10.0400       348
    10.0600       382
    10.0800       366
    10.1000       380
    10.1200       394
    10.1400       376
    10.1600       364
    10.1800       370
    10.2000       372
    10.2200       388
    10.2400       360
    10.2600       334
    10.2800       342
    10.3000       344
    10.3200       362
    10.3400       324
    10.3600       352
    10.3800       346
    10.4000       326
    10.4200       382
    10.4400       366
    10.4600       328
    10.4800       396
    10.5000       376
    10.5200       380
    10.5400       340
    10.5600       352
    10.5800       374
    10.6000       368
    10.6200       366
    10.6400       378
    10.6600       334
    10.6800       364
    10.7000       372
    10.7200       360
    10.7400       332
    10.7600       344
    10.7800       348
    10.8000       322
    10.8200       334
    10.8400       368
    10.8600       334
    10.8800       352
    10.9000       350
    10.9200       310
    10.9400       348
    10.9600       372
    10.9800       324
    11.0000       354
    11.0200       356
    11.0400       338
    11.0600       326
    11.0800       324
    11.1000       338
    11.1200       358
    11.1400       336
    11.1600       346
    11.1800       348
    11.2000       372
    11.2200       332
    11.2400       330
    11.2600       350
    11.2800       314
    11.3000       320
    11.3200       324
    11.3400       314
    11.3600       336
    11.3800       312
    11.4000       382
    11.4200       312
    11.4400       350
    11.4600       312
    11.4800       314
    11.5000       324
    11.5200       348
    11.5400       318
    11.5600       308
    11.5800       338
    11.6000       318
    11.6200       336
    11.6400       338
    11.6600       318
    11.6800       338
    11.7000       316
    11.7200       320
    11.7400       334
    11.7600       312
    11.7800       346
    11.8000       354
    11.8200       344
    11.8400       374
    11.8600       346
    11.8800       338
    11.9000       376
    11.9200       352
    11.9400       394
    11.9600       396
    11.9800       400
    12.0000       380
    12.0200       456
    12.0400       432
    12.0600       444
    12.0800       456
    12.1000       492
    12.1200       548
    12.1400       564
    12.1600       552
    12.1800       606
    12.2000       620
    12.2200       596
    12.2400       562
    12.2600       536
    12.2800       514
    12.3000       452
    12.3200       366
    12.3400       392
    12.3600       360
    12.3800       306
    12.4000       310
    12.4200       324
    12.4400       328
    12.4600       300
    12.4800       296
    12.5000       316
    12.5200       312
    12.5400       336
    12.5600       286
    12.5800       242
    12.6000       282
    12.6200       312
    12.6400       278
    12.6600       318
    12.6800       276
    12.7000       310
    12.7200       290
    12.7400       254
    12.7600       314
    12.7800       284
    12.8000       284
    12.8200       296
    12.8400       296
    12.8600       270
    12.8800       316
    12.9000       286
    12.9200       282
    12.9400       270
    12.9600       268
    12.9800       262
    13.0000       272
    13.0200       282
    13.0400       326
    13.0600       254
    13.0800       266
    13.1000       304
    13.1200       296
    13.1400       250
    13.1600       282
    13.1800       300
    13.2000       306
    13.2200       276
    13.2400       296
    13.2600       296
    13.2800       254
    13.3000       264
    13.3200       312
    13.3400       230
    13.3600       258
    13.3800       286
    13.4000       260
    13.4200       266
    13.4400       218
    13.4600       276
    13.4800       252
    13.5000       270
    13.5200       254
    13.5400       254
    13.5600       264
    13.5800       286
    13.6000       254
    13.6200       236
    13.6400       266
    13.6600       258
    13.6800       286
    13.7000       252
    13.7200       284
    13.7400       260
    13.7600       246
    13.7800       224
    13.8000       276
    13.8200       238
    13.8400       262
    13.8600       246
    13.8800       246
    13.9000       242
    13.9200       240
    13.9400       292
    13.9600       232
    13.9800       260
    14.0000       288
    14.0200       252
    14.0400       258
    14.0600       284
    14.0800       254
    14.1000       256
    14.1200       248
    14.1400       252
    14.1600       240
    14.1800       260
    14.2000       260
    14.2200       252
    14.2400       268
    14.2600       244
    14.2800       234
    14.3000       258
    14.3200       252
    14.3400       230
    14.3600       268
    14.3800       264
    14.4000       232
    14.4200       246
    14.4400       244
    14.4600       246
    14.4800       262
    14.5000       220
    14.5200       256
    14.5400       232
    14.5600       266
    14.5800       250
    14.6000       240
    14.6200       246
    14.6400       296
    14.6600       248
    14.6800       242
    14.7000       248
    14.7200       264
    14.7400       266
    14.7600       256
    14.7800       278
    14.8000       262
    14.8200       296
    14.8400       292
    14.8600       280
    14.8800       328
    14.9000       338
    14.9200       348
    14.9400       346
    14.9600       344
    14.9800       340
    15.0000       374
    15.0200       404
    15.0400       434
    15.0600       414
    15.0800       436
    15.1000       414
    15.1200       432
    15.1400       434
    15.1600       442
    15.1800       430
    15.2000       434
    15.2200       406
    15.2400       398
    15.2600       314
    15.2800       296
    15.3000       276
    15.3200       256
    15.3400       288
    15.3600       256
    15.3800       240
    15.4000       236
    15.4200       254
    15.4400       226
    15.4600       298
    15.4800       232
    15.5000       254
    15.5200       234
    15.5400       232
    15.5600       254
    15.5800       240
    15.6000       220
    15.6200       268
    15.6400       198
    15.6600       254
    15.6800       232
    15.7000       228
    15.7200       224
    15.7400       246
    15.7600       212
    15.7800       268
    15.8000       214
    15.8200       226
    15.8400       222
    15.8600       224
    15.8800       196
    15.9000       242
    15.9200       212
    15.9400       210
    15.9600       228
    15.9800       250
    16.0000       260
    16.0200       210
    16.0400       228
    16.0600       228
    16.0800       228
    16.1000       258
    16.1200       242
    16.1400       226
    16.1600       246
    16.1800       228
    16.2000       232
    16.2200       236
    16.2400       270
    16.2600       264
    16.2800       234
    16.3000       272
    16.3200       272
    16.3400       252
    16.3600       240
    16.3800       250
    16.4000       250
    16.4200       240
    16.4400       214
    16.4600       214
    16.4800       252
    16.5000       218
    16.5200       256
    16.5400       240
    16.5600       224
    16.5800       248
    16.6000       234
    16.6200       250
    16.6400       248
    16.6600       250
    16.6800       282
    16.7000       254
    16.7200       268
    16.7400       238
    16.7600       298
    16.7800       292
    16.8000       280
    16.8200       298
    16.8400       316
    16.8600       342
    16.8800       344
    16.9000       340
    16.9200       376
    16.9400       422
    16.9600       446
    16.9800       484
    17.0000       522
    17.0200       600
    17.0400       640
    17.0600       700
    17.0800       646
    17.1000       706
    17.1200       668
    17.1400       688
    17.1600       676
    17.1800       696
    17.2000       658
    17.2200       678
    17.2400       692
    17.2600       670
    17.2800       650
    17.3000       626
    17.3200       592
    17.3400       586
    17.3600       536
    17.3800       504
    17.4000       488
    17.4200       470
    17.4400       468
    17.4600       400
    17.4800       392
    17.5000       330
    17.5200       330
    17.5400       336
    17.5600       308
    17.5800       310
    17.6000       286
    17.6200       320
    17.6400       312
    17.6600       302
    17.6800       306
    17.7000       338
    17.7200       280
    17.7400       306
    17.7600       286
    17.7800       290
    17.8000       294
    17.8200       292
    17.8400       278
    17.8600       262
    17.8800       240
    17.9000       216
    17.9200       262
    17.9400       252
    17.9600       230
    17.9800       220
    18.0000       220
    18.0200       226
    18.0400       236
    18.0600       198
    18.0800       238
    18.1000       208
    18.1200       210
    18.1400       184
    18.1600       246
    18.1800       208
    18.2000       220
    18.2200       234
    18.2400       222
    18.2600       202
    18.2800       200
    18.3000       206
    18.3200       208
    18.3400       218
    18.3600       196
    18.3800       218
    18.4000       190
    18.4200       218
    18.4400       234
    18.4600       238
    18.4800       246
    18.5000       256
    18.5200       252
    18.5400       244
    18.5600       244
    18.5800       246
    18.6000       240
    18.6200       256
    18.6400       290
    18.6600       276
    18.6800       288
    18.7000       276
    18.7200       316
    18.7400       302
    18.7600       282
    18.7800       350
    18.8000       348
    18.8200       376
    18.8400       414
    18.8600       428
    18.8800       446
    18.9000       506
    18.9200       464
    18.9400       486
    18.9600       486
    18.9800       456
    19.0000       482
    19.0200       460
    19.0400       466
    19.0600       424
    19.0800       396
    19.1000       404
    19.1200       434
    19.1400       422
    19.1600       462
    19.1800       486
    19.2000       510
    19.2200       538
    19.2400       650
    19.2600       696
    19.2800       786
    19.3000       834
    19.3200       894
    19.3400      1006
    19.3600      1146
    19.3800      1288
    19.4000      1570
    19.4200      1626
    19.4400      1976
    19.4600      2268
    19.4800      2678
    19.5000      2966
    19.5200      3334
    19.5400      3538
    19.5600      3384
    19.5800      3130
    19.6000      2774
    19.6200      2264
    19.6400      1862
    19.6600      1522
    19.6800      1274
    19.7000      1078
    19.7200      1064
    19.7400      1040
    19.7600      1060
    19.7800      1086
    19.8000      1216
    19.8200      1244
    19.8400      1390
    19.8600      1564
    19.8800      1808
    19.9000      2010
    19.9200      2222
    19.9400      2506
    19.9600      2600
    19.9800      2694
    20.0000      2646
    20.0200      2472
    20.0400      2096
    20.0600      1708
    20.0800      1400
    20.1000      1042
    20.1200       886
    20.1400       700
    20.1600       602
    20.1800       548
    20.2000       510
    20.2200       454
    20.2400       472
    20.2600       434
    20.2800       430
    20.3000       384
    20.3200       378
    20.3400       364
    20.3600       376
    20.3800       378
    20.4000       350
    20.4200       300
    20.4400       320
    20.4600       280
    20.4800       280
    20.5000       282
    20.5200       260
    20.5400       274
    20.5600       250
    20.5800       234
    20.6000       276
    20.6200       248
    20.6400       258
    20.6600       242
    20.6800       268
    20.7000       284
    20.7200       276
    20.7400       294
    20.7600       258
    20.7800       268
    20.8000       306
    20.8200       304
    20.8400       334
    20.8600       362
    20.8800       378
    20.9000       408
    20.9200       460
    20.9400       456
    20.9600       488
    20.9800       554
    21.0000       574
    21.0200       640
    21.0400       714
    21.0600       794
    21.0800       898
    21.1000       982
    21.1200      1052
    21.1400      1206
    21.1600      1370
    21.1800      1366
    21.2000      1390
    21.2200      1484
    21.2400      1502
    21.2600      1446
    21.2800      1342
    21.3000      1216
    21.3200      1016
    21.3400       958
    21.3600       784
    21.3800       682
    21.4000       610
    21.4200       480
    21.4400       444
    21.4600       398
    21.4800       392
    21.5000       334
    21.5200       300
    21.5400       298
    21.5600       308
    21.5800       266
    21.6000       278
    21.6200       254
    21.6400       218
    21.6600       230
    21.6800       238
    21.7000       228
    21.7200       254
    21.7400       226
    21.7600       228
    21.7800       228
    21.8000       280
    21.8200       262
    21.8400       276
    21.8600       262
    21.8800       284
    21.9000       292
    21.9200       292
    21.9400       264
    21.9600       272
    21.9800       260
    22.0000       228
    22.0200       230
    22.0400       270
    22.0600       262
    22.0800       232
    22.1000       218
    22.1200       250
    22.1400       268
    22.1600       238
    22.1800       226
    22.2000       242
    22.2200       250
    22.2400       268
    22.2600       276
    22.2800       308
    22.3000       274
    22.3200       256
    22.3400       306
    22.3600       314
    22.3800       328
    22.4000       354
    22.4200       350
    22.4400       392
    22.4600       462
    22.4800       482
    22.5000       518
    22.5200       582
    22.5400       626
    22.5600       644
    22.5800       776
    22.6000       832
    22.6200       916
    22.6400      1074
    22.6600      1232
    22.6800      1380
    22.7000      1764
    22.7200      2000
    22.7400      2266
    22.7600      2704
    22.7800      3240
    22.8000      3792
    22.8200      4184
    22.8400      4580
    22.8600      4724
    22.8800      4460
    22.9000      4064
    22.9200      3494
    22.9400      2932
    22.9600      2330
    22.9800      1890
    23.0000      1482
    23.0200      1232
    23.0400      1008
    23.0600       908
    23.0800       786
    23.1000       734
    23.1200       676
    23.1400       606
    23.1600       572
    23.1800       546
    23.2000       506
    23.2200       486
    23.2400       452
    23.2600       402
    23.2800       404
    23.3000       416
    23.3200       336
    23.3400       386
    23.3600       346
    23.3800       360
    23.4000       290
    23.4200       312
    23.4400       276
    23.4600       290
    23.4800       278
    23.5000       304
    23.5200       252
    23.5400       286
    23.5600       256
    23.5800       304
    23.6000       254
    23.6200       258
    23.6400       278
    23.6600       258
    23.6800       272
    23.7000       256
    23.7200       252
    23.7400       254
    23.7600       268
    23.7800       232
    23.8000       238
    23.8200       260
    23.8400       260
    23.8600       230
    23.8800       256
    23.9000       240
    23.9200       252
    23.9400       248
    23.9600       250
    23.9800       300
    24.0000       278
    24.0200       298
    24.0400       268
    24.0600       284
    24.0800       284
    24.1000       264
    24.1200       326
    24.1400       280
    24.1600       336
    24.1800       304
    24.2000       358
    24.2200       384
    24.2400       384
    24.2600       394
    24.2800       406
    24.3000       426
    24.3200       468
    24.3400       510
    24.3600       586
    24.3800       638
    24.4000       676
    24.4200       758
    24.4400       822
    24.4600       884
    24.4800       892
    24.5000       944
    24.5200      1018
    24.5400      1022
    24.5600      1094
    24.5800      1042
    24.6000      1048
    24.6200       966
    24.6400       954
    24.6600       866
    24.6800       782
    24.7000       682
    24.7200       618
    24.7400       562
    24.7600       554
    24.7800       494
    24.8000       474
    24.8200       462
    24.8400       398
    24.8600       392
    24.8800       428
    24.9000       424
    24.9200       372
    24.9400       418
    24.9600       382
    24.9800       400
    25.0000       390
    25.0200       404
    25.0400       400
    25.0600       418
    25.0800       384
    25.1000       412
    25.1200       416
    25.1400       356
    25.1600       400
    25.1800       410
    25.2000       396
    25.2200       464
    25.2400       438
    25.2600       472
    25.2800       430
    25.3000       428
    25.3200       434
    25.3400       482
    25.3600       450
    25.3800       478
    25.4000       506
    25.4200       544
    25.4400       584
    25.4600       642
    25.4800       672
    25.5000       762
    25.5200       928
    25.5400      1074
    25.5600      1074
    25.5800      1074
    25.6000      1112
    25.6200      1114
    25.6400      1038
    25.6600       948
    25.6800       804
    25.7000       666
    25.7200       610
    25.7400       530
    25.7600       478
    25.7800       384
    25.8000       364
    25.8200       334
    25.8400       338
    25.8600       320
    25.8800       334
    25.9000       288
    25.9200       316
    25.9400       290
    25.9600       258
    25.9800       272
    26.0000       304
    26.0200       282
    26.0400       286
    26.0600       270
    26.0800       254
    26.1000       238
    26.1200       254
    26.1400       260
    26.1600       272
    26.1800       266
    26.2000       244
    26.2200       274
    26.2400       274
    26.2600       302
    26.2800       296
    26.3000       324
    26.3200       316
    26.3400       348
    26.3600       350
    26.3800       360
    26.4000       390
    26.4200       360
    26.4400       380
    26.4600       420
    26.4800       374
    26.5000       410
    26.5200       406
    26.5400       388
    26.5600       380
    26.5800       432
    26.6000       410
    26.6200       422
    26.6400       430
    26.6600       440
    26.6800       420
    26.7000       360
    26.7200       402
    26.7400       390
    26.7600       338
    26.7800       334
    26.8000       354
    26.8200       326
    26.8400       312
    26.8600       288
    26.8800       300
    26.9000       286
    26.9200       282
    26.9400       306
    26.9600       268
    26.9800       294
    27.0000       284
    27.0200       278
    27.0400       288
    27.0600       296
    27.0800       280
    27.1000       326
    27.1200       328
    27.1400       380
    27.1600       294
    27.1800       348
    27.2000       342
    27.2200       384
    27.2400       400
    27.2600       364
    27.2800       478
    27.3000       494
    27.3200       566
    27.3400       588
    27.3600       642
    27.3800       706
    27.4000       768
    27.4200       838
    27.4400       820
    27.4600       862
    27.4800       886
    27.5000       934
    27.5200       916
    27.5400       942
    27.5600       908
    27.5800       822
    27.6000       806
    27.6200       732
    27.6400       684
    27.6600       672
    27.6800       548
    27.7000       506
    27.7200       508
    27.7400       400
    27.7600       416
    27.7800       396
    27.8000       342
    27.8200       368
    27.8400       296
    27.8600       308
    27.8800       312
    27.9000       288
    27.9200       314
    27.9400       294
    27.9600       300
    27.9800       286
    28.0000       292
    28.0200       290
    28.0400       264
    28.0600       254
    28.0800       256
    28.1000       232
    28.1200       240
    28.1400       234
    28.1600       232
    28.1800       258
    28.2000       242
    28.2200       270
    28.2400       252
    28.2600       262
    28.2800       246
    28.3000       252
    28.3200       302
    28.3400       242
    28.3600       236
    28.3800       256
    28.4000       232
    28.4200       230
    28.4400       238
    28.4600       214
    28.4800       190
    28.5000       208
    28.5200       210
    28.5400       236
    28.5600       234
    28.5800       224
    28.6000       234
    28.6200       244
    28.6400       242
    28.6600       220
    28.6800       248
    28.7000       234
    28.7200       256
    28.7400       222
    28.7600       222
    28.7800       242
    28.8000       278
    28.8200       262
    28.8400       254
    28.8600       254
    28.8800       222
    28.9000       238
    28.9200       224
    28.9400       220
    28.9600       286
    28.9800       224
    29.0000       272
    29.0200       248
    29.0400       238
    29.0600       258
    29.0800       266
    29.1000       248
    29.1200       296
    29.1400       266
    29.1600       314
    29.1800       254
    29.2000       274
    29.2200       312
    29.2400       280
    29.2600       288
    29.2800       314
    29.3000       282
    29.3200       314
    29.3400       302
    29.3600       308
    29.3800       322
    29.4000       362
    29.4200       344
    29.4400       344
    29.4600       372
    29.4800       378
    29.5000       372
    29.5200       406
    29.5400       388
    29.5600       440
    29.5800       384
    29.6000       384
    29.6200       362
    29.6400       348
    29.6600       404
    29.6800       350
    29.7000       362
    29.7200       344
    29.7400       380
    29.7600       336
    29.7800       380
    29.8000       334
    29.8200       360
    29.8400       380
    29.8600       352
    29.8800       408
    29.9000       428
    29.9200       450
    29.9400       488
    29.9600       558
    29.9800       626
    30.0000       696
    30.0200       706
    30.0400       820
    30.0600       868
    30.0800      1006
    30.1000      1150
    30.1200      1286
    30.1400      1316
    30.1600      1508
    30.1800      1588
    30.2000      1762
    30.2200      1764
    30.2400      1828
    30.2600      1892
    30.2800      1852
    30.3000      1810
    30.3200      1748
    30.3400      1672
    30.3600      1606
    30.3800      1566
    30.4000      1578
    30.4200      1448
    30.4400      1486
    30.4600      1424
    30.4800      1456
    30.5000      1430
    30.5200      1404
    30.5400      1458
    30.5600      1530
    30.5800      1524
    30.6000      1586
    30.6200      1616
    30.6400      1560
    30.6600      1432
    30.6800      1450
    30.7000      1312
    30.7200      1352
    30.7400      1182
    30.7600      1020
    30.7800       968
    30.8000       860
    30.8200       846
    30.8400       770
    30.8600       826
    30.8800       776
    30.9000       800
    30.9200       782
    30.9400       842
    30.9600       980
    30.9800       928
    31.0000       954
    31.0200       956
    31.0400      1088
    31.0600      1246
    31.0800      1222
    31.1000      1260
    31.1200      1342
    31.1400      1434
    31.1600      1446
    31.1800      1416
    31.2000      1496
    31.2200      1298
    31.2400      1262
    31.2600      1196
    31.2800      1152
    31.3000      1044
    31.3200       936
    31.3400       880
    31.3600       834
    31.3800       728
    31.4000       734
    31.4200       628
    31.4400       652
    31.4600       580
    31.4800       566
    31.5000       566
    31.5200       528
    31.5400       554
    31.5600       532
    31.5800       532
    31.6000       530
    31.6200       512
    31.6400       578
    31.6600       578
    31.6800       648
    31.7000       656
    31.7200       640
    31.7400       704
    31.7600       790
    31.7800       868
    31.8000       996
    31.8200      1040
    31.8400      1184
    31.8600      1308
    31.8800      1514
    31.9000      1766
    31.9200      1916
    31.9400      2150
    31.9600      2322
    31.9800      2560
    32.0000      2716
    32.0200      2608
    32.0400      2516
    32.0600      2300
    32.0800      2124
    32.1000      1982
    32.1200      1738
    32.1400      1702
    32.1600      1608
    32.1800      1476
    32.2000      1414
    32.2200      1394
    32.2400      1502
    32.2600      1546
    32.2800      1746
    32.3000      1810
    32.3200      2048
    32.3400      2306
    32.3600      2632
    32.3800      3132
    32.4000      3504
    32.4200      4064
    32.4400      4854
    32.4600      5590
    32.4800      6224
    32.5000      7124
    32.5200      7584
    32.5400      7912
    32.5600      7960
    32.5800      7792
    32.6000      7520
    32.6200      6786
    32.6400      6070
    32.6600      5294
    32.6800      4688
    32.7000      3942
    32.7200      3368
    32.7400      2758
    32.7600      2314
    32.7800      2090
    32.8000      1864
    32.8200      1630
    32.8400      1546
    32.8600      1370
    32.8800      1310
    32.9000      1326
    32.9200      1260
    32.9400      1318
    32.9600      1370
    32.9800      1392
    33.0000      1500
    33.0200      1582
    33.0400      1618
    33.0600      1722
    33.0800      1754
    33.1000      1710
    33.1200      1540
    33.1400      1448
    33.1600      1336
    33.1800      1234
    33.2000      1072
    33.2200       942
    33.2400       836
    33.2600       658
    33.2800       652
    33.3000       554
    33.3200       544
    33.3400       438
    33.3600       438
    33.3800       412
    33.4000       358
    33.4200       372
    33.4400       336
    33.4600       384
    33.4800       322
    33.5000       322
    33.5200       290
    33.5400       330
    33.5600       294
    33.5800       288
    33.6000       262
    33.6200       262
    33.6400       246
    33.6600       236
    33.6800       260
    33.7000       270
    33.7200       266
    33.7400       226
    33.7600       256
    33.7800       230
    33.8000       224
    33.8200       246
    33.8400       234
    33.8600       234
    33.8800       226
    33.9000       254
    33.9200       230
    33.9400       220
    33.9600       252
    33.9800       248
    34.0000       268
    34.0200       232
    34.0400       232
    34.0600       236
    34.0800       242
    34.1000       238
    34.1200       256
    34.1400       240
    34.1600       230
    34.1800       254
    34.2000       254
    34.2200       248
    34.2400       224
    34.2600       218
    34.2800       218
    34.3000       236
    34.3200       240
    34.3400       258
    34.3600       244
    34.3800       240
    34.4000       256
    34.4200       278
    34.4400       242
    34.4600       286
    34.4800       256
    34.5000       260
    34.5200       284
    34.5400       284
    34.5600       290
    34.5800       298
    34.6000       296
    34.6200       312
    34.6400       278
    34.6600       284
    34.6800       286
    34.7000       268
    34.7200       264
    34.7400       248
    34.7600       290
    34.7800       274
    34.8000       298
    34.8200       272
    34.8400       296
    34.8600       266
    34.8800       288
    34.9000       286
    34.9200       318
    34.9400       298
    34.9600       306
    34.9800       288
    35.0000       312
    35.0200       314
    35.0400       332
    35.0600       322
    35.0800       378
    35.1000       340
    35.1200       336
    35.1400       332
    35.1600       322
    35.1800       348
    35.2000       294
    35.2200       314
    35.2400       302
    35.2600       286
    35.2800       282
    35.3000       276
    35.3200       292
    35.3400       280
    35.3600       270
    35.3800       272
    35.4000       280
    35.4200       270
    35.4400       294
    35.4600       314
    35.4800       292
    35.5000       298
    35.5200       250
    35.5400       290
    35.5600       280
    35.5800       292
    35.6000       262
    35.6200       286
    35.6400       296
    35.6600       308
    35.6800       304
    35.7000       306
    35.7200       352
    35.7400       298
    35.7600       336
    35.7800       312
    35.8000       342
    35.8200       346
    35.8400       372
    35.8600       370
    35.8800       380
    35.9000       394
    35.9200       404
    35.9400       458
    35.9600       508
    35.9800       478
    36.0000       496
    36.0200       552
    36.0400       614
    36.0600       582
    36.0800       590
    36.1000       676
    36.1200       670
    36.1400       690
    36.1600       732
    36.1800       700
    36.2000       674
    36.2200       558
    36.2400       648
    36.2600       574
    36.2800       488
    36.3000       534
    36.3200       460
    36.3400       424
    36.3600       418
    36.3800       394
    36.4000       434
    36.4200       428
    36.4400       404
    36.4600       410
    36.4800       422
    36.5000       392
    36.5200       448
    36.5400       432
    36.5600       464
    36.5800       540
    36.6000       576
    36.6200       612
    36.6400       596
    36.6600       698
    36.6800       678
    36.7000       876
    36.7200       886
    36.7400      1040
    36.7600      1106
    36.7800      1290
    36.8000      1476
    36.8200      1684
    36.8400      1814
    36.8600      1912
    36.8800      2070
    36.9000      1970
    36.9200      2010
    36.9400      1830
    36.9600      1796
    36.9800      1596
    37.0000      1558
    37.0200      1362
    37.0400      1258
    37.0600      1072
    37.0800      1086
    37.1000       998
    37.1200       966
    37.1400       930
    37.1600       910
    37.1800       904
    37.2000       880
    37.2200       848
    37.2400       832
    37.2600       768
    37.2800       782
    37.3000       790
    37.3200       792
    37.3400       768
    37.3600       734
    37.3800       752
    37.4000       722
    37.4200       660
    37.4400       720
    37.4600       680
    37.4800       652
    37.5000       768
    37.5200       666
    37.5400       706
    37.5600       772
    37.5800       822
    37.6000       766
    37.6200       772
    37.6400       776
    37.6600       844
    37.6800       858
    37.7000       888
    37.7200       874
    37.7400       878
    37.7600       958
    37.7800       976
    37.8000       982
    37.8200       972
    37.8400      1108
    37.8600      1152
    37.8800      1292
    37.9000      1440
    37.9200      1540
    37.9400      1736
    37.9600      1840
    37.9800      2064
    38.0000      2062
    38.0200      2234
    38.0400      2242
    38.0600      2172
    38.0800      2170
    38.1000      2038
    38.1200      2094
    38.1400      1950
    38.1600      1840
    38.1800      1826
    38.2000      1742
    38.2200      1822
    38.2400      1920
    38.2600      1966
    38.2800      2060
    38.3000      2278
    38.3200      2574
    38.3400      2890
    38.3600      3196
    38.3800      3492
    38.4000      3892
    38.4200      4248
    38.4400      4408
    38.4600      4626
    38.4800      5014
    38.5000      5126
    38.5200      4834
    38.5400      4832
    38.5600      4786
    38.5800      4654
    38.6000      4544
    38.6200      4498
    38.6400      4196
    38.6600      4118
    38.6800      4092
    38.7000      4108
    38.7200      3830
    38.7400      3966
    38.7600      3578
    38.7800      3416
    38.8000      3148
    38.8200      2730
    38.8400      2580
    38.8600      2342
    38.8800      2060
    38.9000      1872
    38.9200      1774
    38.9400      1422
    38.9600      1248
    38.9800      1220
    39.0000      1164
    39.0200      1024
    39.0400      1002
    39.0600      1032
    39.0800       922
    39.1000       926
    39.1200       934
    39.1400       924
    39.1600       944
    39.1800       958
    39.2000       896
    39.2200       976
    39.2400       956
    39.2600       960
    39.2800       934
    39.3000       984
    39.3200      1000
    39.3400       918
    39.3600       990
    39.3800       974
    39.4000       968
    39.4200      1006
    39.4400       976
    39.4600       974
    39.4800      1046
    39.5000      1190
    39.5200      1188
    39.5400      1304
    39.5600      1334
    39.5800      1510
    39.6000      1736
    39.6200      1814
    39.6400      2092
    39.6600      2272
    39.6800      2406
    39.7000      2396
    39.7200      2380
    39.7400      2330
    39.7600      2240
    39.7800      1992
    39.8000      1852
    39.8200      1636
    39.8400      1476
    39.8600      1296
    39.8800      1166
    39.9000      1060
    39.9200       874
    39.9400       818
    39.9600       780
    39.9800       704
    40.0000       712
    40.0200       694
    40.0400       630
    40.0600       644
    40.0800       662
    40.1000       600
    40.1200       628
    40.1400       662
    40.1600       578
    40.1800       612
    40.2000       648
    40.2200       608
    40.2400       632
    40.2600       640
    40.2800       724
    40.3000       696
    40.3200       638
    40.3400       728
    40.3600       780
    40.3800       806
    40.4000       842
    40.4200       918
    40.4400       968
    40.4600      1074
    40.4800      1190
    40.5000      1248
    40.5200      1302
    40.5400      1358
    40.5600      1434
    40.5800      1396
    40.6000      1412
    40.6200      1424
    40.6400      1366
    40.6600      1310
    40.6800      1276
    40.7000      1198
    40.7200      1118
    40.7400       984
    40.7600       890
    40.7800       916
    40.8000       802
    40.8200       780
    40.8400       682
    40.8600       712
    40.8800       648
    40.9000       650
    40.9200       594
    40.9400       632
    40.9600       632
    40.9800       612
    41.0000       672
    41.0200       622
    41.0400       692
    41.0600       730
    41.0800       762
    41.1000       778
    41.1200       756
    41.1400       840
    41.1600       896
    41.1800       954
    41.2000      1038
    41.2200      1088
    41.2400      1138
    41.2600      1176
    41.2800      1218
    41.3000      1248
    41.3200      1284
    41.3400      1238
    41.3600      1252
    41.3800      1282
    41.4000      1292
    41.4200      1266
    41.4400      1150
    41.4600      1150
    41.4800      1020
    41.5000      1044
    41.5200       924
    41.5400       894
    41.5600       878
    41.5800       848
    41.6000       864
    41.6200       854
    41.6400       814
    41.6600       848
    41.6800       882
    41.7000       894
    41.7200       954
    41.7400      1066
    41.7600      1172
    41.7800      1290
    41.8000      1384
    41.8200      1558
    41.8400      1586
    41.8600      1682
    41.8800      1790
    41.9000      1806
    41.9200      1838
    41.9400      1720
    41.9600      1710
    41.9800      1556
    42.0000      1390
    42.0200      1314
    42.0400      1232
    42.0600      1060
    42.0800      1032
    42.1000       906
    42.1200       816
    42.1400       684
    42.1600       650
    42.1800       634
    42.2000       578
    42.2200       562
    42.2400       496
    42.2600       474
    42.2800       528
    42.3000       444
    42.3200       444
    42.3400       452
    42.3600       462
    42.3800       414
    42.4000       430
    42.4200       406
    42.4400       410
    42.4600       352
    42.4800       386
    42.5000       356
    42.5200       388
    42.5400       360
    42.5600       354
    42.5800       400
    42.6000       372
    42.6200       342
    42.6400       430
    42.6600       408
    42.6800       418
    42.7000       366
    42.7200       406
    42.7400       410
    42.7600       448
    42.7800       406
    42.8000       458
    42.8200       452
    42.8400       412
    42.8600       502
    42.8800       454
    42.9000       540
    42.9200       548
    42.9400       600
    42.9600       612
    42.9800       652
    43.0000       756
    43.0200       816
    43.0400       928
    43.0600      1078
    43.0800      1094
    43.1000      1248
    43.1200      1424
    43.1400      1582
    43.1600      1708
    43.1800      1686
    43.2000      1782
    43.2200      1816
    43.2400      1856
    43.2600      1700
    43.2800      1684
    43.3000      1524
    43.3200      1434
    43.3400      1324
    43.3600      1104
    43.3800      1102
    43.4000       974
    43.4200       932
    43.4400       742
    43.4600       748
    43.4800       704
    43.5000       626
    43.5200       638
    43.5400       554
    43.5600       628
    43.5800       594
    43.6000       554
    43.6200       562
    43.6400       542
    43.6600       588
    43.6800       618
    43.7000       636
    43.7200       626
    43.7400       726
    43.7600       678
    43.7800       720
    43.8000       722
    43.8200       764
    43.8400       754
    43.8600       708
    43.8800       716
    43.9000       738
    43.9200       656
    43.9400       636
    43.9600       570
    43.9800       594
    44.0000       604
    44.0200       558
    44.0400       546
    44.0600       516
    44.0800       502
    44.1000       474
    44.1200       494
    44.1400       456
    44.1600       470
    44.1800       478
    44.2000       492
    44.2200       492
    44.2400       510
    44.2600       520
    44.2800       534
    44.3000       548
    44.3200       570
    44.3400       566
    44.3600       638
    44.3800       638
    44.4000       622
    44.4200       652
    44.4400       686
    44.4600       766
    44.4800       844
    44.5000       844
    44.5200       862
    44.5400      1000
    44.5600      1056
    44.5800      1120
    44.6000      1200
    44.6200      1226
    44.6400      1280
    44.6600      1356
    44.6800      1354
    44.7000      1444
    44.7200      1338
    44.7400      1334
    44.7600      1400
    44.7800      1330
    44.8000      1312
    44.8200      1352
    44.8400      1216
    44.8600      1274
    44.8800      1266
    44.9000      1256
    44.9200      1240
    44.9400      1282
    44.9600      1222
    44.9800      1290
    45.0000      1350
    45.0200      1390
    45.0400      1370
    45.0600      1388
    45.0800      1472
    45.1000      1490
    45.1200      1436
    45.1400      1444
    45.1600      1472
    45.1800      1452
    45.2000      1406
    45.2200      1400
    45.2400      1336
    45.2600      1292
    45.2800      1306
    45.3000      1128
    45.3200      1102
    45.3400      1124
    45.3600      1048
    45.3800       946
    45.4000       942
    45.4200       912
    45.4400       844
    45.4600       830
    45.4800       852
    45.5000       784
    45.5200       766
    45.5400       758
    45.5600       706
    45.5800       730
    45.6000       748
    45.6200       786
    45.6400       718
    45.6600       708
    45.6800       770
    45.7000       724
    45.7200       748
    45.7400       766
    45.7600       758
    45.7800       816
    45.8000       752
    45.8200       784
    45.8400       768
    45.8600       776
    45.8800       686
    45.9000       780
    45.9200       660
    45.9400       726
    45.9600       750
    45.9800       720
    46.0000       746
    46.0200       746
    46.0400       702
    46.0600       754
    46.0800       746
    46.1000       724
    46.1200       746
    46.1400       754
    46.1600       808
    46.1800       816
    46.2000       854
    46.2200       832
    46.2400       908
    46.2600       932
    46.2800      1008
    46.3000      1116
    46.3200      1210
    46.3400      1228
    46.3600      1320
    46.3800      1400
    46.4000      1542
    46.4200      1764
    46.4400      1924
    46.4600      2080
    46.4800      2394
    46.5000      2592
    46.5200      2982
    46.5400      3336
    46.5600      3824
    46.5800      4448
    46.6000      4962
    46.6200      5564
    46.6400      6218
    46.6600      6882
    46.6800      7290
    46.7000      7540
    46.7200      7654
    46.7400      7458
    46.7600      6978
    46.7800      6642
    46.8000      6210
    46.8200      5714
    46.8400      5368
    46.8600      4776
    46.8800      4142
    46.9000      3590
    46.9200      3156
    46.9400      2824
    46.9600      2412
    46.9800      2060
    47.0000      1874
    47.0200      1716
    47.0400      1430
    47.0600      1346
    47.0800      1248
    47.1000      1142
    47.1200      1074
    47.1400       984
    47.1600       928
    47.1800       814
    47.2000       778
    47.2200       782
    47.2400       768
    47.2600       726
    47.2800       660
    47.3000       694
    47.3200       644
    47.3400       576
    47.3600       632
    47.3800       570
    47.4000       594
    47.4200       586
    47.4400       560
    47.4600       522
    47.4800       512
    47.5000       550
    47.5200       562
    47.5400       534
    47.5600       534
    47.5800       506
    47.6000       562
    47.6200       526
    47.6400       600
    47.6600       606
    47.6800       590
    47.7000       644
    47.7200       652
    47.7400       672
    47.7600       748
    47.7800       752
    47.8000       858
    47.8200       838
    47.8400       776
    47.8600       864
    47.8800       892
    47.9000       866
    47.9200       834
    47.9400       812
    47.9600       758
    47.9800       782
    48.0000       772
    48.0200       760
    48.0400       732
    48.0600       760
    48.0800       682
    48.1000       792
    48.1200       838
    48.1400       818
    48.1600       888
    48.1800       894
    48.2000       858
    48.2200       902
    48.2400       920
    48.2600       832
    48.2800       916
    48.3000       886
    48.3200       808
    48.3400       852
    48.3600       830
    48.3800       906
    48.4000       804
    48.4200       780
    48.4400       836
    48.4600       818
    48.4800       854
    48.5000       874
    48.5200       858
    48.5400       844
    48.5600       886
    48.5800       922
    48.6000       856
    48.6200       886
    48.6400       898
    48.6600       862
    48.6800       850
    48.7000       910
    48.7200       858
    48.7400       862
    48.7600       824
    48.7800       776
    48.8000       732
    48.8200       746
    48.8400       802
    48.8600       706
    48.8800       700
    48.9000       640
    48.9200       630
    48.9400       590
    48.9600       522
    48.9800       532
    49.0000       524
    49.0200       488
    49.0400       508
    49.0600       462
    49.0800       442
    49.1000       404
    49.1200       430
    49.1400       386
    49.1600       364
    49.1800       388
    49.2000       368
    49.2200       394
    49.2400       360
    49.2600       360
    49.2800       326
    49.3000       314
    49.3200       316
    49.3400       306
    49.3600       340
    49.3800       294
    49.4000       366
    49.4200       326
    49.4400       306
    49.4600       320
    49.4800       300
    49.5000       304
    49.5200       308
    49.5400       326
    49.5600       334
    49.5800       328
    49.6000       356
    49.6200       336
    49.6400       338
    49.6600       358
    49.6800       362
    49.7000       364
    49.7200       352
    49.7400       354
    49.7600       378
    49.7800       366
    49.8000       388
    49.8200       396
    49.8400       382
    49.8600       344
    49.8800       428
    49.9000       398
    49.9200       440
    49.9400       440
    49.9600       432
    49.9800       488
    50.0000       510
    50.0200       478
    50.0400       524
    50.0600       578
    50.0800       592
    50.1000       626
    50.1200       690
    50.1400       750
    50.1600       722
    50.1800       780
    50.2000       796
    50.2200       866
    50.2400       948
    50.2600       948
    50.2800       934
    50.3000      1038
    50.3200      1092
    50.3400      1036
    50.3600      1062
    50.3800      1102
    50.4000      1042
    50.4200      1056
    50.4400      1168
    50.4600      1116
    50.4800      1130
    50.5000      1048
    50.5200      1052
    50.5400       976
    50.5600      1008
    50.5800      1050
    50.6000      1000
    50.6200       998
    50.6400       892
    50.6600       962
    50.6800       934
    50.7000       986
    50.7200       924
    50.7400       990
    50.7600       974
    50.7800       950
    50.8000       970
    50.8200      1012
    50.8400      1042
    50.8600       960
    50.8800      1010
    50.9000      1008
    50.9200       980
    50.9400      1024
    50.9600      1028
    50.9800       966
    51.0000       924
    51.0200       928
    51.0400       906
    51.0600       858
    51.0800       848
    51.1000       788
    51.1200       810
    51.1400       732
    51.1600       728
    51.1800       676
    51.2000       714
    51.2200       746
    51.2400       684
    51.2600       718
    51.2800       756
    51.3000       738
    51.3200       780
    51.3400       796
    51.3600       818
    51.3800       846
    51.4000       858
    51.4200       772
    51.4400       804
    51.4600       820
    51.4800       828
    51.5000       790
    51.5200       830
    51.5400       774
    51.5600       744
    51.5800       722
    51.6000       730
    51.6200       782
    51.6400       844
    51.6600       776
    51.6800       790
    51.7000       846
    51.7200       866
    51.7400       900
    51.7600       990
    51.7800       932
    51.8000      1032
    51.8200      1084
    51.8400      1096
    51.8600      1154
    51.8800      1172
    51.9000      1202
    51.9200      1190
    51.9400      1160
    51.9600      1078
    51.9800      1098
    52.0000      1100
    52.0200      1060
    52.0400       990
    52.0600       964
    52.0800       952
    52.1000       926
    52.1200       866
    52.1400       794
    52.1600       768
    52.1800       742
    52.2000       642
    52.2200       650
    52.2400       696
    52.2600       656
    52.2800       642
    52.3000       638
    52.3200       668
    52.3400       654
    52.3600       728
    52.3800       726
    52.4000       764
    52.4200       822
    52.4400       864
    52.4600      1010
    52.4800      1006
    52.5000      1128
    52.5200      1202
    52.5400      1238
    52.5600      1312
    52.5800      1330
    52.6000      1358
    52.6200      1376
    52.6400      1452
    52.6600      1386
    52.6800      1456
    52.7000      1326
    52.7200      1270
    52.7400      1176
    52.7600      1216
    52.7800      1082
    52.8000      1106
    52.8200       952
    52.8400       898
    52.8600       884
    52.8800       880
    52.9000       812
    52.9200       830
    52.9400       802
    52.9600       732
    52.9800       800
    53.0000       752
    53.0200       824
    53.0400       784
    53.0600       790
    53.0800       862
    53.1000       916
    53.1200      1048
    53.1400      1092
    53.1600      1202
    53.1800      1300
    53.2000      1412
    53.2200      1466
    53.2400      1620
    53.2600      1574
    53.2800      1610
    53.3000      1666
    53.3200      1548
    53.3400      1530
    53.3600      1528
    53.3800      1452
    53.4000      1388
    53.4200      1294
    53.4400      1228
    53.4600      1132
    53.4800      1028
    53.5000       922
    53.5200       808
    53.5400       768
    53.5600       768
    53.5800       726
    53.6000       682
    53.6200       646
    53.6400       550
    53.6600       582
    53.6800       532
    53.7000       516
    53.7200       502
    53.7400       486
    53.7600       504
    53.7800       454
    53.8000       456
    53.8200       458
    53.8400       452
    53.8600       480
    53.8800       434
    53.9000       448
    53.9200       418
    53.9400       432
    53.9600       406
    53.9800       416
    54.0000       378
    54.0200       396
    54.0400       390
    54.0600       384
    54.0800       374
    54.1000       392
    54.1200       378
    54.1400       388
    54.1600       410
    54.1800       432
    54.2000       432
    54.2200       432
    54.2400       384
    54.2600       410
    54.2800       406
    54.3000       418
    54.3200       452
    54.3400       440
    54.3600       458
    54.3800       446
    54.4000       482
    54.4200       536
    54.4400       506
    54.4600       490
    54.4800       514
    54.5000       534
    54.5200       622
    54.5400       610
    54.5600       608
    54.5800       646
    54.6000       708
    54.6200       650
    54.6400       726
    54.6600       752
    54.6800       780
    54.7000       820
    54.7200       820
    54.7400       874
    54.7600       856
    54.7800       890
    54.8000       856
    54.8200       844
    54.8400       756
    54.8600       794
    54.8800       800
    54.9000       758
    54.9200       760
    54.9400       736
    54.9600       786
    54.9800       730
    55.0000       640
    55.0200       730
    55.0400       714
    55.0600       648
    55.0800       768
    55.1000       732
    55.1200       740
    55.1400       800
    55.1600       730
    55.1800       814
    55.2000       792
    55.2200       812
    55.2400       754
    55.2600       804
    55.2800       806
    55.3000       796
    55.3200       788
    55.3400       794
    55.3600       786
    55.3800       794
    55.4000       792
    55.4200       782
    55.4400       770
    55.4600       776
    55.4800       772
    55.5000       724
    55.5200       712
    55.5400       690
    55.5600       606
    55.5800       686
    55.6000       568
    55.6200       644
    55.6400       594
    55.6600       576
    55.6800       510
    55.7000       510
    55.7200       486
    55.7400       506
    55.7600       466
    55.7800       424
    55.8000       450
    55.8200       482
    55.8400       416
    55.8600       394
    55.8800       406
    55.9000       378
    55.9200       382
    55.9400       390
    55.9600       362
    55.9800       354
    56.0000       338
    56.0200       356
    56.0400       340
    56.0600       354
    56.0800       342
    56.1000       320
    56.1200       328
    56.1400       330
    56.1600       330
    56.1800       328
    56.2000       318
    56.2200       352
    56.2400       288
    56.2600       294
    56.2800       342
    56.3000       346
    56.3200       314
    56.3400       310
    56.3600       346
    56.3800       324
    56.4000       350
    56.4200       348
    56.4400       344
    56.4600       356
    56.4800       340
    56.5000       320
    56.5200       358
    56.5400       408
    56.5600       386
    56.5800       348
    56.6000       346
    56.6200       376
    56.6400       402
    56.6600       408
    56.6800       366
    56.7000       420
    56.7200       372
    56.7400       400
    56.7600       390
    56.7800       398
    56.8000       406
    56.8200       402
    56.8400       416
    56.8600       420
    56.8800       466
    56.9000       424
    56.9200       468
    56.9400       504
    56.9600       494
    56.9800       492
    57.0000       486
    57.0200       528
    57.0400       554
    57.0600       586
    57.0800       574
    57.1000       626
    57.1200       618
    57.1400       678
    57.1600       806
    57.1800       792
    57.2000       860
    57.2200       934
    57.2400      1002
    57.2600      1148
    57.2800      1240
    57.3000      1294
    57.3200      1386
    57.3400      1462
    57.3600      1508
    57.3800      1572
    57.4000      1606
    57.4200      1662
    57.4400      1594
    57.4600      1614
    57.4800      1570
    57.5000      1612
    57.5200      1552
    57.5400      1548
    57.5600      1514
    57.5800      1586
    57.6000      1542
    57.6200      1520
    57.6400      1586
    57.6600      1562
    57.6800      1620
    57.7000      1644
    57.7200      1640
    57.7400      1750
    57.7600      1698
    57.7800      1580
    57.8000      1608
    57.8200      1536
    57.8400      1522
    57.8600      1436
    57.8800      1316
    57.9000      1300
    57.9200      1208
    57.9400      1230
    57.9600      1076
    57.9800      1060
    58.0000      1030
    58.0200       902
    58.0400       900
    58.0600       830
    58.0800       856
    58.1000       868
    58.1200       850
    58.1400       852
    58.1600       856
    58.1800       888
    58.2000       948
    58.2200       980
    58.2400       966
    58.2600      1052
    58.2800      1108
    58.3000      1176
    58.3200      1246
    58.3400      1354
    58.3600      1374
    58.3800      1498
    58.4000      1602
    58.4200      1670
    58.4400      1770
    58.4600      1806
    58.4800      1910
    58.5000      1996
    58.5200      2068
    58.5400      2332
    58.5600      2302
    58.5800      2396
    58.6000      2544
    58.6200      2640
    58.6400      2816
    58.6600      2728
    58.6800      2956
    58.7000      3010
    58.7200      2996
    58.7400      3100
    58.7600      3106
    58.7800      2878
    58.8000      2906
    58.8200      2784
    58.8400      2564
    58.8600      2600
    58.8800      2418
    58.9000      2242
    58.9200      2098
    58.9400      1956
    58.9600      1810
    58.9800      1740
    59.0000      1590
    59.0200      1426
    59.0400      1364
    59.0600      1230
    59.0800      1110
    59.1000      1050
    59.1200       994
    59.1400       968
    59.1600       916
    59.1800       806
    59.2000       822
    59.2200       800
    59.2400       746
    59.2600       752
    59.2800       740
    59.3000       720
    59.3200       786
    59.3400       728
    59.3600       724
    59.3800       668
    59.4000       670
    59.4200       676
    59.4400       670
    59.4600       686
    59.4800       630
    59.5000       688
    59.5200       682
    59.5400       664
    59.5600       666
    59.5800       700
    59.6000       664
    59.6200       696
    59.6400       708
    59.6600       624
    59.6800       668
    59.7000       700
    59.7200       734
    59.7400       680
    59.7600       682
    59.7800       682
    59.8000       756
    59.8200       752
    59.8400       700
    59.8600       668
    59.8800       666
    59.9000       672
    59.9200       648
    59.9400       678
    59.9600       646
    59.9800       662
    60.0000       614
    60.0200       656
    60.0400       612
    60.0600       590
    60.0800       534
    60.1000       554
    60.1200       526
    60.1400       528
    60.1600       528
    60.1800       502
    60.2000       500
    60.2200       488
    60.2400       458
    60.2600       502
    60.2800       490
    60.3000       494
    60.3200       424
    60.3400       440
    60.3600       448
    60.3800       462
    60.4000       416
    60.4200       442
    60.4400       448
    60.4600       468
    60.4800       488
    60.5000       454
    60.5200       428
    60.5400       472
    60.5600       474
    60.5800       442
    60.6000       478
    60.6200       476
    60.6400       446
    60.6600       500
    60.6800       490
    60.7000       468
    60.7200       468
    60.7400       474
    60.7600       496
    60.7800       438
    60.8000       490
    60.8200       560
    60.8400       490
    60.8600       542
    60.8800       556
    60.9000       570
    60.9200       542
    60.9400       540
    60.9600       564
    60.9800       590
    61.0000       550
    61.0200       626
    61.0400       668
    61.0600       646
    61.0800       666
    61.1000       656
    61.1200       690
    61.1400       688
    61.1600       694
    61.1800       772
    61.2000       714
    61.2200       684
    61.2400       732
    61.2600       688
    61.2800       718
    61.3000       668
    61.3200       688
    61.3400       698
    61.3600       690
    61.3800       698
    61.4000       690
    61.4200       734
    61.4400       694
    61.4600       722
    61.4800       710
    61.5000       708
    61.5200       682
    61.5400       734
    61.5600       678
    61.5800       644
    61.6000       712
    61.6200       644
    61.6400       654
    61.6600       630
    61.6800       568
    61.7000       560
    61.7200       566
    61.7400       580
    61.7600       510
    61.7800       538
    61.8000       540
    61.8200       518
    61.8400       516
    61.8600       530
    61.8800       528
    61.9000       526
    61.9200       534
    61.9400       554
    61.9600       562
    61.9800       532
    62.0000       484
    62.0200       522
    62.0400       516
    62.0600       560
    62.0800       552
    62.1000       522
    62.1200       536
    62.1400       542
    62.1600       502
    62.1800       498
    62.2000       486
    62.2200       504
    62.2400       482
    62.2600       482
    62.2800       504
    62.3000       474
    62.3200       500
    62.3400       462
    62.3600       500
    62.3800       464
    62.4000       452
    62.4200       494
    62.4400       378
    62.4600       410
    62.4800       414
    62.5000       458
    62.5200       384
    62.5400       388
    62.5600       384
    62.5800       382
    62.6000       374
    62.6200       368
    62.6400       384
    62.6600       374
    62.6800       376
    62.7000       358
    62.7200       356
    62.7400       338
    62.7600       348
    62.7800       336
    62.8000       314
    62.8200       322
    62.8400       378
    62.8600       340
    62.8800       334
    62.9000       328
    62.9200       324
    62.9400       346
    62.9600       312
    62.9800       350
    63.0000       328
    63.0200       338
    63.0400       304
    63.0600       272
    63.0800       316
    63.1000       280
    63.1200       310
    63.1400       294
    63.1600       274
    63.1800       262
    63.2000       286
    63.2200       274
    63.2400       290
    63.2600       286
    63.2800       290
    63.3000       270
    63.3200       306
    63.3400       270
    63.3600       292
    63.3800       284
    63.4000       288
    63.4200       268
    63.4400       270
    63.4600       292
    63.4800       300
    63.5000       314
    63.5200       304
    63.5400       306
    63.5600       302
    63.5800       306
    63.6000       288
    63.6200       364
    63.6400       356
    63.6600       360
    63.6800       378
    63.7000       404
    63.7200       380
    63.7400       428
    63.7600       442
    63.7800       500
    63.8000       426
    63.8200       508
    63.8400       510
    63.8600       506
    63.8800       494
    63.9000       460
    63.9200       496
    63.9400       486
    63.9600       488
    63.9800       446
    64.0000       462
    64.0200       392
    64.0400       452
    64.0600       410
    64.0800       380
    64.1000       428
    64.1200       374
    64.1400       358
    64.1600       328
    64.1800       340
    64.2000       322
    64.2200       322
    64.2400       338
    64.2600       322
    64.2800       298
    64.3000       308
    64.3200       298
    64.3400       254
    64.3600       324
    64.3800       306
    64.4000       314
    64.4200       302
    64.4400       312
    64.4600       318
    64.4800       314
    64.5000       280
    64.5200       300
    64.5400       304
    64.5600       316
    64.5800       322
    64.6000       316
    64.6200       342
    64.6400       310
    64.6600       332
    64.6800       330
    64.7000       348
    64.7200       332
    64.7400       358
    64.7600       382
    64.7800       380
    64.8000       384
    64.8200       384
    64.8400       434
    64.8600       478
    64.8800       488
    64.9000       446
    64.9200       492
    64.9400       510
    64.9600       540
    64.9800       532
    65.0000       500
    65.0200       574
    65.0400       544
    65.0600       564
    65.0800       544
    65.1000       590
    65.1200       570
    65.1400       632
    65.1600       604
    65.1800       604
    65.2000       636
    65.2200       618
    65.2400       580
    65.2600       570
    65.2800       602
    65.3000       586
    65.3200       546
    65.3400       580
    65.3600       596
    65.3800       554
    65.4000       530
    65.4200       476
    65.4400       534
    65.4600       484
    65.4800       486
    65.5000       460
    65.5200       464
    65.5400       438
    65.5600       428
    65.5800       410
    65.6000       414
    65.6200       380
    65.6400       344
    65.6600       382
    65.6800       366
    65.7000       360
    65.7200       356
    65.7400       354
    65.7600       348
    65.7800       362
    65.8000       326
    65.8200       342
    65.8400       296
    65.8600       308
    65.8800       282
    65.9000       290
    65.9200       280
    65.9400       298
    65.9600       302
    65.9800       304
    66.0000       324
    66.0200       334
    66.0400       318
    66.0600       286
    66.0800       320
    66.1000       278
    66.1200       314
    66.1400       294
    66.1600       310
    66.1800       256
    66.2000       308
    66.2200       312
    66.2400       332
    66.2600       318
    66.2800       324
    66.3000       356
    66.3200       332
    66.3400       316
    66.3600       354
    66.3800       348
    66.4000       398
    66.4200       382
    66.4400       386
    66.4600       392
    66.4800       456
    66.5000       428
    66.5200       446
    66.5400       454
    66.5600       476
    66.5800       538
    66.6000       500
    66.6200       514
    66.6400       534
    66.6600       594
    66.6800       578
    66.7000       670
    66.7200       586
    66.7400       676
    66.7600       672
    66.7800       692
    66.8000       738
    66.8200       776
    66.8400       782
    66.8600       750
    66.8800       830
    66.9000       786
    66.9200       806
    66.9400       832
    66.9600       810
    66.9800       766
    67.0000       766
    67.0200       762
    67.0400       732
    67.0600       732
    67.0800       646
    67.1000       648
    67.1200       634
    67.1400       608
    67.1600       582
    67.1800       562
    67.2000       532
    67.2200       510
    67.2400       544
    67.2600       462
    67.2800       438
    67.3000       490
    67.3200       424
    67.3400       448
    67.3600       398
    67.3800       362
    67.4000       380
    67.4200       378
    67.4400       390
    67.4600       366
    67.4800       360
    67.5000       368
    67.5200       354
    67.5400       382
    67.5600       366
    67.5800       336
    67.6000       376
    67.6200       346
    67.6400       318
    67.6600       368
    67.6800       376
    67.7000       354
    67.7200       358
    67.7400       362
    67.7600       436
    67.7800       400
    67.8000       442
    67.8200       462
    67.8400       442
    67.8600       454
    67.8800       574
    67.9000       530
    67.9200       552
    67.9400       612
    67.9600       692
    67.9800       704
    68.0000       742
    68.0200       810
    68.0400       874
    68.0600       968
    68.0800       994
    68.1000      1026
    68.1200      1124
    68.1400      1114
    68.1600      1156
    68.1800      1186
    68.2000      1216
    68.2200      1156
    68.2400      1186
    68.2600      1204
    68.2800      1098
    68.3000      1158
    68.3200      1080
    68.3400      1060
    68.3600       966
    68.3800      1002
    68.4000       914
    68.4200       888
    68.4400       846
    68.4600       770
    68.4800       662
    68.5000       718
    68.5200       648
    68.5400       608
    68.5600       524
    68.5800       540
    68.6000       516
    68.6200       502
    68.6400       488
    68.6600       458
    68.6800       412
    68.7000       390
    68.7200       442
    68.7400       378
    68.7600       382
    68.7800       362
    68.8000       394
    68.8200       336
    68.8400       342
    68.8600       368
    68.8800       328
    68.9000       340
    68.9200       338
    68.9400       342
    68.9600       332
    68.9800       324
    69.0000       374
    69.0200       342
    69.0400       310
    69.0600       352
    69.0800       330
    69.1000       350
    69.1200       358
    69.1400       348
    69.1600       324
    69.1800       370
    69.2000       402
    69.2200       400
    69.2400       332
    69.2600       414
    69.2800       402
    69.3000       440
    69.3200       458
    69.3400       480
    69.3600       514
    69.3800       496
    69.4000       524
    69.4200       500
    69.4400       496
    69.4600       494
    69.4800       512
    69.5000       480
    69.5200       494
    69.5400       482
    69.5600       500
    69.5800       442
    69.6000       450
    69.6200       450
    69.6400       394
    69.6600       388
    69.6800       396
    69.7000       398
    69.7200       398
    69.7400       372
    69.7600       318
    69.7800       350
    69.8000       338
    69.8200       324
    69.8400       324
    69.8600       310
    69.8800       316
    69.9000       312
    69.9200       296
    69.9400       276
    69.9600       258
    69.9800       292
    70.0000       276
    70.0200       240
    70.0400       230
    70.0600       264
    70.0800       240
    70.1000       228
    70.1200       254
    70.1400       254
    70.1600       242
    70.1800       246
    70.2000       246
    70.2200       214
    70.2400       240
    70.2600       234
    70.2800       208
    70.3000       256
    70.3200       260
    70.3400       212
    70.3600       232
    70.3800       252
    70.4000       234
    70.4200       224
    70.4400       236
    70.4600       230
    70.4800       240
    70.5000       274
    70.5200       204
    70.5400       262
    70.5600       236
    70.5800       286
    70.6000       248
    70.6200       258
    70.6400       232
    70.6600       262
    70.6800       254
    70.7000       228
    70.7200       242
    70.7400       218
    70.7600       234
    70.7800       216
    70.8000       250
    70.8200       250
    70.8400       242
    70.8600       216
    70.8800       244
    70.9000       248
    70.9200       234
    70.9400       220
    70.9600       248
    70.9800       230
    71.0000       228
    71.0200       250
    71.0400       242
    71.0600       254
    71.0800       272
    71.1000       252
    71.1200       256
    71.1400       264
    71.1600       276
    71.1800       264
    71.2000       304
    71.2200       296
    71.2400       290
    71.2600       316
    71.2800       334
    71.3000       350
    71.3200       358
    71.3400       454
    71.3600       428
    71.3800       458
    71.4000       460
    71.4200       496
    71.4400       528
    71.4600       554
    71.4800       534
    71.5000       490
    71.5200       566
    71.5400       556
    71.5600       590
    71.5800       538
    71.6000       566
    71.6200       618
    71.6400       546
    71.6600       556
    71.6800       584
    71.7000       580
    71.7200       570
    71.7400       566
    71.7600       576
    71.7800       570
    71.8000       498
    71.8200       518
    71.8400       526
    71.8600       502
    71.8800       498
    71.9000       486
    71.9200       490
    71.9400       498
    71.9600       420
    71.9800       444
    72.0000       456
    72.0200       416
    72.0400       446
    72.0600       470
    72.0800       430
    72.1000       432
    72.1200       494
    72.1400       464
    72.1600       442
    72.1800       444
    72.2000       452
    72.2200       470
    72.2400       462
    72.2600       496
    72.2800       478
    72.3000       502
    72.3200       506
    72.3400       484
    72.3600       514
    72.3800       462
    72.4000       448
    72.4200       462
    72.4400       482
    72.4600       440
    72.4800       454
    72.5000       470
    72.5200       426
    72.5400       450
    72.5600       462
    72.5800       444
    72.6000       424
    72.6200       382
    72.6400       408
    72.6600       394
    72.6800       364
    72.7000       342
    72.7200       366
    72.7400       364
    72.7600       362
    72.7800       374
    72.8000       366
    72.8200       368
    72.8400       352
    72.8600       364
    72.8800       376
    72.9000       342
    72.9200       386
    72.9400       350
    72.9600       344
    72.9800       372
    73.0000       372
    73.0200       364
    73.0400       328
    73.0600       286
    73.0800       338
    73.1000       300
    73.1200       270
    73.1400       302
    73.1600       292
    73.1800       310
    73.2000       282
    73.2200       274
    73.2400       260
    73.2600       284
    73.2800       230
    73.3000       264
    73.3200       246
    73.3400       270
    73.3600       288
    73.3800       256
    73.4000       262
    73.4200       250
    73.4400       250
    73.4600       252
    73.4800       262
    73.5000       226
    73.5200       254
    73.5400       296
    73.5600       264
    73.5800       288
    73.6000       264
    73.6200       292
    73.6400       248
    73.6600       270
    73.6800       258
    73.7000       296
    73.7200       298
    73.7400       310
    73.7600       302
    73.7800       316
    73.8000       330
    73.8200       328
    73.8400       364
    73.8600       362
    73.8800       344
    73.9000       334
    73.9200       330
    73.9400       318
    73.9600       342
    73.9800       348
    74.0000       342
    74.0200       328
    74.0400       326
    74.0600       332
    74.0800       364
    74.1000       346
    74.1200       330
    74.1400       352
    74.1600       376
    74.1800       326
    74.2000       340
    74.2200       334
    74.2400       316
    74.2600       304
    74.2800       326
    74.3000       324
    74.3200       320
    74.3400       250
    74.3600       278
    74.3800       258
    74.4000       226
    74.4200       296
    74.4400       264
    74.4600       258
    74.4800       266
    74.5000       260
    74.5200       232
    74.5400       242
    74.5600       200
    74.5800       194
    74.6000       228
    74.6200       206
    74.6400       218
    74.6600       224
    74.6800       208
    74.7000       192
    74.7200       208
    74.7400       190
    74.7600       222
    74.7800       212
    74.8000       216
    74.8200       198
    74.8400       170
    74.8600       210
    74.8800       224
    74.9000       206
    74.9200       216
    74.9400       198
    74.9600       240
    74.9800       208
    75.0000       224
    75.0200       216
    75.0400       210
    75.0600       218
    75.0800       220
    75.1000       216
    75.1200       224
    75.1400       184
    75.1600       246
    75.1800       216
    75.2000       196
    75.2200       240
    75.2400       202
    75.2600       228
    75.2800       218
    75.3000       234
    75.3200       244
    75.3400       210
    75.3600       228
    75.3800       226
    75.4000       222
    75.4200       216
    75.4400       222
    75.4600       250
    75.4800       244
    75.5000       234
    75.5200       222
    75.5400       232
    75.5600       204
    75.5800       218
    75.6000       202
    75.6200       240
    75.6400       242
    75.6600       208
    75.6800       220
    75.7000       230
    75.7200       218
    75.7400       222
    75.7600       210
    75.7800       246
    75.8000       242
    75.8200       240
    75.8400       214
    75.8600       218
    75.8800       240
    75.9000       210
    75.9200       204
    75.9400       244
    75.9600       224
    75.9800       228
    76.0000       256
    76.0200       220
    76.0400       208
    76.0600       260
    76.0800       224
    76.1000       248
    76.1200       250
    76.1400       264
    76.1600       270
    76.1800       276
    76.2000       280
    76.2200       240
    76.2400       262
    76.2600       284
    76.2800       280
    76.3000       322
    76.3200       300
    76.3400       296
    76.3600       328
    76.3800       316
    76.4000       312
    76.4200       348
    76.4400       332
    76.4600       350
    76.4800       354
    76.5000       330
    76.5200       328
    76.5400       334
    76.5600       360
    76.5800       332
    76.6000       330
    76.6200       384
    76.6400       382
    76.6600       380
    76.6800       346
    76.7000       370
    76.7200       376
    76.7400       358
    76.7600       402
    76.7800       372
    76.8000       374
    76.8200       362
    76.8400       334
    76.8600       368
    76.8800       346
    76.9000       346
    76.9200       368
    76.9400       370
    76.9600       320
    76.9800       312
    77.0000       324
    77.0200       314
    77.0400       360
    77.0600       314
    77.0800       304
    77.1000       346
    77.1200       330
    77.1400       348
    77.1600       370
    77.1800       336
    77.2000       364
    77.2200       338
    77.2400       384
    77.2600       354
    77.2800       398
    77.3000       368
    77.3200       398
    77.3400       440
    77.3600       428
    77.3800       466
    77.4000       478
    77.4200       498
    77.4400       526
    77.4600       550
    77.4800       576
    77.5000       618
    77.5200       652
    77.5400       722
    77.5600       740
    77.5800       752
    77.6000       780
    77.6200       814
    77.6400       822
    77.6600       794
    77.6800       818
    77.7000       730
    77.7200       786
    77.7400       804
    77.7600       740
    77.7800       756
    77.8000       682
    77.8200       660
    77.8400       698
    77.8600       688
    77.8800       680
    77.9000       622
    77.9200       628
    77.9400       596
    77.9600       572
    77.9800       572
    78.0000       520
    78.0200       500
    78.0400       500
    78.0600       476
    78.0800       474
    78.1000       474
    78.1200       434
    78.1400       394
    78.1600       434
    78.1800       422
    78.2000       412
    78.2200       408
    78.2400       376
    78.2600       428
    78.2800       414
    78.3000       396
    78.3200       344
    78.3400       434
    78.3600       402
    78.3800       430
    78.4000       380
    78.4200       406
    78.4400       408
    78.4600       406
    78.4800       430
    78.5000       396
    78.5200       386
    78.5400       438
    78.5600       442
    78.5800       382
    78.6000       402
    78.6200       430
    78.6400       432
    78.6600       388
    78.6800       420
    78.7000       446
    78.7200       438
    78.7400       412
    78.7600       392
    78.7800       360
    78.8000       400
    78.8200       390
    78.8400       378
    78.8600       356
    78.8800       370
    78.9000       358
    78.9200       380
    78.9400       318
    78.9600       336
    78.9800       318
    79.0000       304
    79.0200       286
    79.0400       320
    79.0600       286
    79.0800       278
    79.1000       282
    79.1200       274
    79.1400       292
    79.1600       286
    79.1800       284
    79.2000       294
    79.2200       276
    79.2400       290
    79.2600       254
    79.2800       264
    79.3000       290
    79.3200       290
    79.3400       258
    79.3600       240
    79.3800       282
    79.4000       292
    79.4200       242
    79.4400       268
    79.4600       262
    79.4800       248
    79.5000       254
    79.5200       278
    79.5400       276
    79.5600       272
    79.5800       250
    79.6000       274
    79.6200       240
    79.6400       274
    79.6600       262
    79.6800       248
    79.7000       280
    79.7200       266
    79.7400       248
    79.7600       238
    79.7800       262
    79.8000       248
    79.8200       270
    79.8400       234
    79.8600       276
    79.8800       256
    79.9000       238
    79.9200       262
    79.9400       246
    79.9600       270
    79.9800       238
    80.0000       258
    80.0200       242
    80.0400       246
    80.0600       238
    80.0800       224
    80.1000       232
    80.1200       272
    80.1400       242
    80.1600       250
    80.1800       240
    80.2000       248
    80.2200       262
    80.2400       248
    80.2600       246
    80.2800       228
    80.3000       246
    80.3200       250
    80.3400       252
    80.3600       260
    80.3800       232
    80.4000       264
    80.4200       242
    80.4400       224
    80.4600       276
    80.4800       258
    80.5000       254
    80.5200       264
    80.5400       224
    80.5600       226
    80.5800       236
    80.6000       246
    80.6200       264
    80.6400       254
    80.6600       276
    80.6800       266
    80.7000       260
    80.7200       230
    80.7400       238
    80.7600       252
    80.7800       222
    80.8000       252
    80.8200       234
    80.8400       238
    80.8600       252
    80.8800       256
    80.9000       262
    80.9200       222
    80.9400       240
    80.9600       238
    80.9800       246
    81.0000       244
    81.0200       236
    81.0400       234
    81.0600       236
    81.0800       246
    81.1000       232
    81.1200       258
    81.1400       196
    81.1600       244
    81.1800       246
    81.2000       248
    81.2200       262
    81.2400       212
    81.2600       270
    81.2800       274
    81.3000       252
    81.3200       262
    81.3400       272
    81.3600       254
    81.3800       296
    81.4000       252
    81.4200       242
    81.4400       270
    81.4600       272
    81.4800       278
    81.5000       270
    81.5200       256
    81.5400       258
    81.5600       260
    81.5800       278
    81.6000       272
    81.6200       288
    81.6400       262
    81.6600       264
    81.6800       270
    81.7000       256
    81.7200       276
    81.7400       284
    81.7600       260
    81.7800       278
    81.8000       294
    81.8200       286
    81.8400       268
    81.8600       286
    81.8800       292
    81.9000       328
    81.9200       318
    81.9400       316
    81.9600       322
    81.9800       298
    82.0000       346
    82.0200       294
    82.0400       318
    82.0600       314
    82.0800       340
    82.1000       362
    82.1200       366
    82.1400       380
    82.1600       362
    82.1800       370
    82.2000       376
    82.2200       364
    82.2400       382
    82.2600       408
    82.2800       400
    82.3000       416
    82.3200       368
    82.3400       380
    82.3600       416
    82.3800       420
    82.4000       416
    82.4200       380
    82.4400       408
    82.4600       388
    82.4800       416
    82.5000       406
    82.5200       430
    82.5400       372
    82.5600       408
    82.5800       392
    82.6000       380
    82.6200       440
    82.6400       436
    82.6600       460
    82.6800       432
    82.7000       432
    82.7200       478
    82.7400       488
    82.7600       478
    82.7800       472
    82.8000       454
    82.8200       478
    82.8400       464
    82.8600       420
    82.8800       444
    82.9000       432
    82.9200       426
    82.9400       424
    82.9600       412
    82.9800       474
    83.0000       422
    83.0200       436
    83.0400       448
    83.0600       424
    83.0800       418
    83.1000       448
    83.1200       398
    83.1400       428
    83.1600       402
    83.1800       408
    83.2000       386
    83.2200       400
    83.2400       380
    83.2600       398
    83.2800       394
    83.3000       390
    83.3200       380
    83.3400       376
    83.3600       382
    83.3800       378
    83.4000       396
    83.4200       366
    83.4400       332
    83.4600       336
    83.4800       370
    83.5000       374
    83.5200       336
    83.5400       362
    83.5600       332
    83.5800       298
    83.6000       342
    83.6200       296
    83.6400       344
    83.6600       318
    83.6800       288
    83.7000       308
    83.7200       316
    83.7400       320
    83.7600       304
    83.7800       330
    83.8000       306
    83.8200       330
    83.8400       308
    83.8600       288
    83.8800       284
    83.9000       314
    83.9200       282
    83.9400       308
    83.9600       338
    83.9800       310
    84.0000       302
    84.0200       312
    84.0400       298
    84.0600       306
    84.0800       294
    84.1000       300
    84.1200       282
    84.1400       278
    84.1600       270
    84.1800       306
    84.2000       288
    84.2200       308
    84.2400       260
    84.2600       314
    84.2800       318
    84.3000       258
    84.3200       288
    84.3400       276
    84.3600       270
    84.3800       274
    84.4000       278
    84.4200       266
    84.4400       272
    84.4600       302
    84.4800       308
    84.5000       272
    84.5200       284
    84.5400       252
    84.5600       264
    84.5800       298
    84.6000       260
    84.6200       282
    84.6400       240
    84.6600       272
    84.6800       250
    84.7000       280
    84.7200       286
    84.7400       252
    84.7600       262
    84.7800       250
    84.8000       262
    84.8200       246
    84.8400       272
    84.8600       240
    84.8800       226
    84.9000       254
    84.9200       276
    84.9400       276
    84.9600       236
    84.9800       230
    85.0000       230
    85.0200       248
    85.0400       240
    85.0600       258
    85.0800       222
    85.1000       246
    85.1200       252
    85.1400       236
    85.1600       234
    85.1800       270
    85.2000       230
    85.2200       242
    85.2400       244
    85.2600       252
    85.2800       216
    85.3000       234
    85.3200       248
    85.3400       298
    85.3600       268
    85.3800       264
    85.4000       254
    85.4200       282
    85.4400       254
    85.4600       278
    85.4800       300
    85.5000       282
    85.5200       306
    85.5400       312
    85.5600       278
    85.5800       296
    85.6000       302
    85.6200       282
    85.6400       290
    85.6600       282
    85.6800       324
    85.7000       268
    85.7200       280
    85.7400       320
    85.7600       290
    85.7800       268
    85.8000       242
    85.8200       252
    85.8400       272
    85.8600       250
    85.8800       256
    85.9000       282
    85.9200       264
    85.9400       262
    85.9600       220
    85.9800       228
    86.0000       238
    86.0200       248
    86.0400       256
    86.0600       246
    86.0800       226
    86.1000       226
    86.1200       248
    86.1400       208
    86.1600       254
    86.1800       216
    86.2000       248
    86.2200       204
    86.2400       232
    86.2600       216
    86.2800       236
    86.3000       234
    86.3200       222
    86.3400       224
    86.3600       220
    86.3800       214
    86.4000       218
    86.4200       218
    86.4400       232
    86.4600       226
    86.4800       186
    86.5000       242
    86.5200       206
    86.5400       228
    86.5600       230
    86.5800       224
    86.6000       236
    86.6200       244
    86.6400       230
    86.6600       220
    86.6800       236
    86.7000       248
    86.7200       276
    86.7400       272
    86.7600       260
    86.7800       276
    86.8000       284
    86.8200       266
    86.8400       264
    86.8600       290
    86.8800       256
    86.9000       290
    86.9200       356
    86.9400       308
    86.9600       328
    86.9800       280
    87.0000       288
    87.0200       310
    87.0400       300
    87.0600       312
    87.0800       298
    87.1000       366
    87.1200       300
    87.1400       294
    87.1600       290
    87.1800       288
    87.2000       302
    87.2200       300
    87.2400       308
    87.2600       266
    87.2800       264
    87.3000       256
    87.3200       264
    87.3400       276
    87.3600       268
    87.3800       274
    87.4000       282
    87.4200       276
    87.4400       254
    87.4600       254
    87.4800       250
    87.5000       282
    87.5200       290
    87.5400       304
    87.5600       294
    87.5800       270
    87.6000       260
    87.6200       264
    87.6400       280
    87.6600       276
    87.6800       296
    87.7000       268
    87.7200       332
    87.7400       298
    87.7600       302
    87.7800       300
    87.8000       334
    87.8200       322
    87.8400       340
    87.8600       314
    87.8800       340
    87.9000       330
    87.9200       348
    87.9400       306
    87.9600       338
    87.9800       340
    88.0000       334
    88.0200       342
    88.0400       370
    88.0600       340
    88.0800       314
    88.1000       336
    88.1200       360
    88.1400       322
    88.1600       362
    88.1800       340
    88.2000       334
    88.2200       324
    88.2400       310
    88.2600       302
    88.2800       326
    88.3000       340
    88.3200       312
    88.3400       330
    88.3600       326
    88.3800       326
    88.4000       316
    88.4200       344
    88.4400       362
    88.4600       354
    88.4800       358
    88.5000       304
    88.5200       352
    88.5400       354
    88.5600       306
    88.5800       362
    88.6000       320
    88.6200       298
    88.6400       326
    88.6600       320
    88.6800       310
    88.7000       318
    88.7200       330
    88.7400       332
    88.7600       318
    88.7800       312
    88.8000       312
    88.8200       302
    88.8400       330
    88.8600       302
    88.8800       320
    88.9000       324
    88.9200       264
    88.9400       284
    88.9600       288
    88.9800       280
    89.0000       320
    89.0200       272
    89.0400       268
    89.0600       276
    89.0800       278
    89.1000       272
    89.1200       270
    89.1400       258
    89.1600       260
    89.1800       270
    89.2000       252
    89.2200       248
    89.2400       270
    89.2600       276
    89.2800       252
    89.3000       240
    89.3200       264
    89.3400       266
    89.3600       250
    89.3800       256
    89.4000       258
    89.4200       268
    89.4400       248
    89.4600       264
    89.4800       278
    89.5000       250
    89.5200       270
    89.5400       256
    89.5600       282
    89.5800       290
    89.6000       238
    89.6200       224
    89.6400       280
    89.6600       278
    89.6800       272
    89.7000       264
    89.7200       220
    89.7400       282
    89.7600       278
    89.7800       270
    89.8000       266
    89.8200       314
    89.8400       318
    89.8600       310
    89.8800       290
    89.9000       276
    89.9200       286
    89.9400       314
    89.9600       284
    89.9800       308
    90.0000       262
