    10.0000       350
    10.0200       392
    10.0400       372
    10.0600       376
    10.0800       382
    10.1000       354
    10.1200       324
    10.1400       388
    10.1600       386
    10.1800       372
    10.2000       360
    10.2200       372
    10.2400       340
    10.2600       324
    10.2800       374
    10.3000       352
    10.3200       334
    10.3400       346
    10.3600       354
    10.3800       356
    10.4000       338
    10.4200       378
    10.4400       356
    10.4600       360
    10.4800       336
    10.5000       366
    10.5200       364
    10.5400       308
    10.5600       348
    10.5800       306
    10.6000       370
    10.6200       326
    10.6400       350
    10.6600       368
    10.6800       338
    10.7000       368
    10.7200       336
    10.7400       338
    10.7600       330
    10.7800       324
    10.8000       320
    10.8200       332
    10.8400       340
    10.8600       344
    10.8800       348
    10.9000       350
    10.9200       326
    10.9400       322
    10.9600       330
    10.9800       346
    11.0000       340
    11.0200       326
    11.0400       286
    11.0600       310
    11.0800       340
    11.1000       342
    11.1200       308
    11.1400       314
    11.1600       310
    11.1800       372
    11.2000       332
    11.2200       348
    11.2400       338
    11.2600       342
    11.2800       334
    11.3000       340
    11.3200       334
    11.3400       352
    11.3600       356
    11.3800       324
    11.4000       324
    11.4200       314
    11.4400       318
    11.4600       354
    11.4800       354
    11.5000       320
    11.5200       292
    11.5400       310
    11.5600       358
    11.5800       334
    11.6000       346
    11.6200       330
    11.6400       348
    11.6600       292
    11.6800       356
    11.7000       358
    11.7200       348
    11.7400       336
    11.7600       342
    11.7800       328
    11.8000       364
    11.8200       374
    11.8400       402
    11.8600       392
    11.8800       396
    11.9000       390
    11.9200       390
    11.9400       402
    11.9600       368
    11.9800       412
    12.0000       438
    12.0200       498
    12.0400       522
    12.0600       508
    12.0800       536
    12.1000       546
    12.1200       618
    12.1400       626
    12.1600       674
    12.1800       706
    12.2000       682
    12.2200       644
    12.2400       622
    12.2600       550
    12.2800       514
    12.3000       448
    12.3200       424
    12.3400       358
    12.3600       324
    12.3800       340
    12.4000       282
    12.4200       314
    12.4400       276
    12.4600       322
    12.4800       320
    12.5000       298
    12.5200       276
    12.5400       336
    12.5600       332
    12.5800       298
    12.6000       288
    12.6200       308
    12.6400       320
    12.6600       322
    12.6800       292
    12.7000       262
    12.7200       310
    12.7400       294
    12.7600       288
    12.7800       270
    12.8000       278
    12.8200       324
    12.8400       288
    12.8600       286
    12.8800       292
    12.9000       310
    12.9200       264
    12.9400       310
    12.9600       274
    12.9800       304
    13.0000       264
    13.0200       298
    13.0400       312
    13.0600       302
    13.0800       242
    13.1000       306
    13.1200       292
    13.1400       282
    13.1600       252
    13.1800       268
    13.2000       288
    13.2200       282
    13.2400       260
    13.2600       264
    13.2800       252
    13.3000       290
    13.3200       248
    13.3400       278
    13.3600       258
    13.3800       246
    13.4000       294
    13.4200       292
    13.4400       264
    13.4600       292
    13.4800       254
    13.5000       252
    13.5200       286
    13.5400       280
    13.5600       262
    13.5800       262
    13.6000       274
    13.6200       270
    13.6400       258
    13.6600       274
    13.6800       274
    13.7000       266
    13.7200       276
    13.7400       258
    13.7600       254
    13.7800       262
    13.8000       264
    13.8200       242
    13.8400       254
    13.8600       248
    13.8800       262
    13.9000       256
    13.9200       268
    13.9400       258
    13.9600       224
    13.9800       264
    14.0000       260
    14.0200       248
    14.0400       284
    14.0600       258
    14.0800       262
    14.1000       262
    14.1200       250
    14.1400       250
    14.1600       224
    14.1800       246
    14.2000       244
    14.2200       274
    14.2400       254
    14.2600       228
    14.2800       268
    14.3000       230
    14.3200       258
    14.3400       246
    14.3600       270
    14.3800       240
    14.4000       252
    14.4200       260
    14.4400       238
    14.4600       278
    14.4800       270
    14.5000       256
    14.5200       286
    14.5400       260
    14.5600       236
    14.5800       262
    14.6000       278
    14.6200       274
    14.6400       276
    14.6600       270
    14.6800       284
    14.7000       264
    14.7200       264
    14.7400       324
    14.7600       300
    14.7800       308
    14.8000       302
    14.8200       312
    14.8400       310
    14.8600       330
    14.8800       352
    14.9000       366
    14.9200       392
    14.9400       436
    14.9600       446
    14.9800       492
    15.0000       524
    15.0200       546
    15.0400       622
    15.0600       566
    15.0800       624
    15.1000       636
    15.1200       644
    15.1400       720
    15.1600       700
    15.1800       716
    15.2000       696
    15.2200       576
    15.2400       550
    15.2600       438
    15.2800       394
    15.3000       384
    15.3200       328
    15.3400       316
    15.3600       278
    15.3800       272
    15.4000       264
    15.4200       270
    15.4400       276
    15.4600       226
    15.4800       268
    15.5000       252
    15.5200       236
    15.5400       268
    15.5600       220
    15.5800       246
    15.6000       264
    15.6200       232
    15.6400       226
    15.6600       242
    15.6800       244
    15.7000       236
    15.7200       246
    15.7400       246
    15.7600       252
    15.7800       242
    15.8000       262
    15.8200       236
    15.8400       214
    15.8600       216
    15.8800       234
    15.9000       222
    15.9200       260
    15.9400       242
    15.9600       240
    15.9800       222
    16.0000       216
    16.0200       232
    16.0400       240
    16.0600       254
    16.0800       250
    16.1000       246
    16.1200       246
    16.1400       246
    16.1600       274
    16.1800       284
    16.2000       264
    16.2200       240
    16.2400       242
    16.2600       268
    16.2800       268
    16.3000       252
    16.3200       274
    16.3400       254
    16.3600       238
    16.3800       246
    16.4000       256
    16.4200       268
    16.4400       258
    16.4600       232
    16.4800       238
    16.5000       266
    16.5200       258
    16.5400       258
    16.5600       274
    16.5800       248
    16.6000       264
    16.6200       258
    16.6400       252
    16.6600       254
    16.6800       292
    16.7000       298
    16.7200       304
    16.7400       330
    16.7600       338
    16.7800       352
    16.8000       364
    16.8200       410
    16.8400       408
    16.8600       452
    16.8800       468
    16.9000       562
    16.9200       572
    16.9400       662
    16.9600       774
    16.9800       852
    17.0000       932
    17.0200       990
    17.0400      1062
    17.0600      1192
    17.0800      1198
    17.1000      1126
    17.1200      1074
    17.1400      1008
    17.1600       906
    17.1800       842
    17.2000       850
    17.2200       812
    17.2400       754
    17.2600       760
    17.2800       692
    17.3000       668
    17.3200       616
    17.3400       586
    17.3600       578
    17.3800       518
    17.4000       576
    17.4200       520
    17.4400       500
    17.4600       414
    17.4800       414
    17.5000       408
    17.5200       386
    17.5400       368
    17.5600       370
    17.5800       380
    17.6000       386
    17.6200       358
    17.6400       344
    17.6600       414
    17.6800       414
    17.7000       394
    17.7200       426
    17.7400       422
    17.7600       428
    17.7800       408
    17.8000       442
    17.8200       398
    17.8400       360
    17.8600       330
    17.8800       312
    17.9000       284
    17.9200       256
    17.9400       244
    17.9600       260
    17.9800       236
    18.0000       230
    18.0200       244
    18.0400       220
    18.0600       248
    18.0800       224
    18.1000       250
    18.1200       216
    18.1400       240
    18.1600       232
    18.1800       204
    18.2000       216
    18.2200       224
    18.2400       218
    18.2600       212
    18.2800       244
    18.3000       188
    18.3200       216
    18.3400       214
    18.3600       194
    18.3800       232
    18.4000       214
    18.4200       220
    18.4400       226
    18.4600       212
    18.4800       228
    18.5000       210
    18.5200       242
    18.5400       242
    18.5600       230
    18.5800       272
    18.6000       248
    18.6200       238
    18.6400       256
    18.6600       268
    18.6800       300
    18.7000       258
    18.7200       342
    18.7400       328
    18.7600       320
    18.7800       350
    18.8000       436
    18.8200       416
    18.8400       438
    18.8600       460
    18.8800       506
    18.9000       534
    18.9200       564
    18.9400       580
    18.9600       602
    18.9800       510
    19.0000       476
    19.0200       430
    19.0400       482
    19.0600       430
    19.0800       380
    19.1000       434
    19.1200       404
    19.1400       384
    19.1600       436
    19.1800       430
    19.2000       452
    19.2200       496
    19.2400       508
    19.2600       576
    19.2800       622
    19.3000       694
    19.3200       792
    19.3400       802
    19.3600       944
    19.3800      1098
    19.4000      1236
    19.4200      1410
    19.4400      1552
    19.4600      1898
    19.4800      2190
    19.5000      2408
    19.5200      2522
    19.5400      2632
    19.5600      2616
    19.5800      2432
    19.6000      2098
    19.6200      1780
    19.6400      1462
    19.6600      1178
    19.6800       962
    19.7000       872
    19.7200       870
    19.7400       896
    19.7600       816
    19.7800       920
    19.8000       960
    19.8200      1078
    19.8400      1258
    19.8600      1314
    19.8800      1448
    19.9000      1718
    19.9200      1854
    19.9400      1970
    19.9600      2020
    19.9800      2190
    20.0000      1984
    20.0200      1732
    20.0400      1538
    20.0600      1286
    20.0800      1080
    20.1000       858
    20.1200       680
    20.1400       634
    20.1600       530
    20.1800       496
    20.2000       454
    20.2200       406
    20.2400       386
    20.2600       370
    20.2800       352
    20.3000       328
    20.3200       330
    20.3400       334
    20.3600       338
    20.3800       308
    20.4000       318
    20.4200       288
    20.4400       288
    20.4600       252
    20.4800       270
    20.5000       260
    20.5200       300
    20.5400       232
    20.5600       250
    20.5800       264
    20.6000       248
    20.6200       266
    20.6400       264
    20.6600       238
    20.6800       266
    20.7000       220
    20.7200       246
    20.7400       268
    20.7600       276
    20.7800       264
    20.8000       306
    20.8200       330
    20.8400       350
    20.8600       378
    20.8800       404
    20.9000       410
    20.9200       430
    20.9400       490
    20.9600       516
    20.9800       606
    21.0000       672
    21.0200       746
    21.0400       912
    21.0600       980
    21.0800      1112
    21.1000      1284
    21.1200      1510
    21.1400      1640
    21.1600      1830
    21.1800      1974
    21.2000      2042
    21.2200      1994
    21.2400      1968
    21.2600      1724
    21.2800      1550
    21.3000      1420
    21.3200      1094
    21.3400       942
    21.3600       796
    21.3800       636
    21.4000       538
    21.4200       498
    21.4400       424
    21.4600       372
    21.4800       340
    21.5000       336
    21.5200       296
    21.5400       286
    21.5600       286
    21.5800       282
    21.6000       258
    21.6200       248
    21.6400       250
    21.6600       248
    21.6800       270
    21.7000       262
    21.7200       244
    21.7400       218
    21.7600       238
    21.7800       268
    21.8000       248
    21.8200       252
    21.8400       278
    21.8600       270
    21.8800       288
    21.9000       300
    21.9200       270
    21.9400       286
    21.9600       286
    21.9800       224
    22.0000       248
    22.0200       268
    22.0400       284
    22.0600       208
    22.0800       242
    22.1000       236
    22.1200       232
    22.1400       232
    22.1600       246
    22.1800       222
    22.2000       242
    22.2200       236
    22.2400       234
    22.2600       258
    22.2800       250
    22.3000       266
    22.3200       272
    22.3400       284
    22.3600       278
    22.3800       324
    22.4000       320
    22.4200       330
    22.4400       358
    22.4600       400
    22.4800       392
    22.5000       454
    22.5200       454
    22.5400       502
    22.5600       638
    22.5800       652
    22.6000       744
    22.6200       832
    22.6400       952
    22.6600      1120
    22.6800      1176
    22.7000      1424
    22.7200      1726
    22.7400      1978
    22.7600      2258
    22.7800      2746
    22.8000      3008
    22.8200      3456
    22.8400      3782
    22.8600      3738
    22.8800      3658
    22.9000      3312
    22.9200      2800
    22.9400      2280
    22.9600      1834
    22.9800      1512
    23.0000      1210
    23.0200      1004
    23.0400       908
    23.0600       738
    23.0800       674
    23.1000       636
    23.1200       572
    23.1400       564
    23.1600       572
    23.1800       524
    23.2000       458
    23.2200       508
    23.2400       418
    23.2600       400
    23.2800       374
    23.3000       378
    23.3200       340
    23.3400       330
    23.3600       340
    23.3800       328
    23.4000       332
    23.4200       300
    23.4400       296
    23.4600       276
    23.4800       288
    23.5000       270
    23.5200       262
    23.5400       292
    23.5600       282
    23.5800       242
    23.6000       284
    23.6200       268
    23.6400       260
    23.6600       230
    23.6800       254
    23.7000       250
    23.7200       270
    23.7400       248
    23.7600       250
    23.7800       294
    23.8000       248
    23.8200       262
    23.8400       264
    23.8600       216
    23.8800       284
    23.9000       254
    23.9200       258
    23.9400       234
    23.9600       244
    23.9800       270
    24.0000       298
    24.0200       272
    24.0400       276
    24.0600       286
    24.0800       294
    24.1000       304
    24.1200       300
    24.1400       276
    24.1600       298
    24.1800       362
    24.2000       330
    24.2200       388
    24.2400       422
    24.2600       462
    24.2800       480
    24.3000       516
    24.3200       566
    24.3400       602
    24.3600       696
    24.3800       718
    24.4000       794
    24.4200       884
    24.4400       948
    24.4600      1120
    24.4800      1142
    24.5000      1252
    24.5200      1312
    24.5400      1342
    24.5600      1318
    24.5800      1196
    24.6000      1160
    24.6200      1062
    24.6400      1002
    24.6600       864
    24.6800       800
    24.7000       712
    24.7200       582
    24.7400       618
    24.7600       568
    24.7800       534
    24.8000       480
    24.8200       470
    24.8400       450
    24.8600       472
    24.8800       438
    24.9000       400
    24.9200       434
    24.9400       470
    24.9600       464
    24.9800       502
    25.0000       464
    25.0200       478
    25.0400       488
    25.0600       550
    25.0800       538
    25.1000       524
    25.1200       544
    25.1400       576
    25.1600       584
    25.1800       610
    25.2000       620
    25.2200       674
    25.2400       664
    25.2600       666
    25.2800       690
    25.3000       628
    25.3200       608
    25.3400       566
    25.3600       548
    25.3800       558
    25.4000       556
    25.4200       560
    25.4400       564
    25.4600       602
    25.4800       666
    25.5000       692
    25.5200       820
    25.5400       848
    25.5600       886
    25.5800       954
    25.6000       962
    25.6200       874
    25.6400       850
    25.6600       784
    25.6800       668
    25.7000       566
    25.7200       512
    25.7400       472
    25.7600       412
    25.7800       372
    25.8000       350
    25.8200       344
    25.8400       314
    25.8600       298
    25.8800       312
    25.9000       270
    25.9200       298
    25.9400       272
    25.9600       248
    25.9800       284
    26.0000       248
    26.0200       264
    26.0400       278
    26.0600       250
    26.0800       238
    26.1000       214
    26.1200       306
    26.1400       256
    26.1600       256
    26.1800       282
    26.2000       282
    26.2200       264
    26.2400       332
    26.2600       302
    26.2800       314
    26.3000       310
    26.3200       326
    26.3400       330
    26.3600       334
    26.3800       364
    26.4000       320
    26.4200       366
    26.4400       386
    26.4600       368
    26.4800       372
    26.5000       410
    26.5200       368
    26.5400       384
    26.5600       382
    26.5800       362
    26.6000       398
    26.6200       380
    26.6400       388
    26.6600       388
    26.6800       388
    26.7000       396
    26.7200       322
    26.7400       372
    26.7600       308
    26.7800       322
    26.8000       304
    26.8200       304
    26.8400       292
    26.8600       324
    26.8800       298
    26.9000       272
    26.9200       314
    26.9400       302
    26.9600       246
    26.9800       296
    27.0000       272
    27.0200       302
    27.0400       290
    27.0600       314
    27.0800       352
    27.1000       314
    27.1200       312
    27.1400       356
    27.1600       340
    27.1800       378
    27.2000       384
    27.2200       434
    27.2400       440
    27.2600       456
    27.2800       506
    27.3000       652
    27.3200       658
    27.3400       698
    27.3600       842
    27.3800       904
    27.4000       988
    27.4200      1136
    27.4400      1166
    27.4600      1246
    27.4800      1196
    27.5000      1238
    27.5200      1166
    27.5400      1138
    27.5600      1034
    27.5800       990
    27.6000       854
    27.6200       782
    27.6400       680
    27.6600       622
    27.6800       528
    27.7000       544
    27.7200       444
    27.7400       430
    27.7600       386
    27.7800       364
    27.8000       322
    27.8200       320
    27.8400       296
    27.8600       326
    27.8800       324
    27.9000       296
    27.9200       290
    27.9400       268
    27.9600       256
    27.9800       270
    28.0000       274
    28.0200       256
    28.0400       252
    28.0600       272
    28.0800       268
    28.1000       252
    28.1200       276
    28.1400       250
    28.1600       250
    28.1800       264
    28.2000       260
    28.2200       264
    28.2400       280
    28.2600       252
    28.2800       262
    28.3000       272
    28.3200       250
    28.3400       226
    28.3600       268
    28.3800       276
    28.4000       248
    28.4200       238
    28.4400       236
    28.4600       230
    28.4800       258
    28.5000       214
    28.5200       262
    28.5400       240
    28.5600       252
    28.5800       228
    28.6000       260
    28.6200       292
    28.6400       264
    28.6600       232
    28.6800       300
    28.7000       274
    28.7200       290
    28.7400       272
    28.7600       294
    28.7800       316
    28.8000       288
    28.8200       274
    28.8400       264
    28.8600       276
    28.8800       242
    28.9000       274
    28.9200       262
    28.9400       258
    28.9600       286
    28.9800       250
    29.0000       278
    29.0200       290
    29.0400       272
    29.0600       246
    29.0800       240
    29.1000       266
    29.1200       278
    29.1400       278
    29.1600       270
    29.1800       262
    29.2000       292
    29.2200       274
    29.2400       300
    29.2600       302
    29.2800       314
    29.3000       356
    29.3200       358
    29.3400       384
    29.3600       394
    29.3800       440
    29.4000       446
    29.4200       468
    29.4400       454
    29.4600       490
    29.4800       464
    29.5000       540
    29.5200       522
    29.5400       566
    29.5600       604
    29.5800       606
    29.6000       602
    29.6200       550
    29.6400       576
    29.6600       566
    29.6800       530
    29.7000       508
    29.7200       464
    29.7400       434
    29.7600       442
    29.7800       436
    29.8000       438
    29.8200       446
    29.8400       454
    29.8600       448
    29.8800       490
    29.9000       504
    29.9200       542
    29.9400       606
    29.9600       634
    29.9800       752
    30.0000       764
    30.0200       906
    30.0400      1056
    30.0600      1204
    30.0800      1344
    30.1000      1548
    30.1200      1680
    30.1400      1874
    30.1600      2158
    30.1800      2158
    30.2000      2176
    30.2200      2268
    30.2400      2212
    30.2600      1998
    30.2800      1968
    30.3000      1928
    30.3200      1878
    30.3400      1790
    30.3600      1704
    30.3800      1624
    30.4000      1686
    30.4200      1662
    30.4400      1732
    30.4600      1710
    30.4800      1864
    30.5000      1892
    30.5200      2218
    30.5400      2300
    30.5600      2568
    30.5800      2736
    30.6000      2996
    30.6200      3094
    30.6400      3062
    30.6600      3042
    30.6800      2854
    30.7000      2646
    30.7200      2414
    30.7400      2148
    30.7600      1934
    30.7800      1682
    30.8000      1430
    30.8200      1246
    30.8400      1130
    30.8600      1116
    30.8800      1008
    30.9000      1088
    30.9200      1064
    30.9400      1166
    30.9600      1128
    30.9800      1210
    31.0000      1216
    31.0200      1298
    31.0400      1358
    31.0600      1452
    31.0800      1568
    31.1000      1626
    31.1200      1750
    31.1400      1922
    31.1600      1934
    31.1800      1928
    31.2000      1848
    31.2200      1804
    31.2400      1736
    31.2600      1614
    31.2800      1508
    31.3000      1370
    31.3200      1238
    31.3400      1098
    31.3600       982
    31.3800       938
    31.4000       836
    31.4200       712
    31.4400       648
    31.4600       668
    31.4800       580
    31.5000       576
    31.5200       512
    31.5400       454
    31.5600       534
    31.5800       434
    31.6000       506
    31.6200       474
    31.6400       514
    31.6600       518
    31.6800       494
    31.7000       548
    31.7200       620
    31.7400       644
    31.7600       672
    31.7800       728
    31.8000       786
    31.8200       854
    31.8400       936
    31.8600      1020
    31.8800      1208
    31.9000      1330
    31.9200      1438
    31.9400      1562
    31.9600      1778
    31.9800      1912
    32.0000      2044
    32.0200      2052
    32.0400      2114
    32.0600      1904
    32.0800      1856
    32.1000      1588
    32.1200      1536
    32.1400      1336
    32.1600      1276
    32.1800      1188
    32.2000      1172
    32.2200      1122
    32.2400      1186
    32.2600      1238
    32.2800      1364
    32.3000      1540
    32.3200      1680
    32.3400      1896
    32.3600      2214
    32.3800      2470
    32.4000      2802
    32.4200      3398
    32.4400      3982
    32.4600      4404
    32.4800      5192
    32.5000      5842
    32.5200      6140
    32.5400      6432
    32.5600      6420
    32.5800      6346
    32.6000      5940
    32.6200      5326
    32.6400      4956
    32.6600      4360
    32.6800      3786
    32.7000      3244
    32.7200      2728
    32.7400      2370
    32.7600      2044
    32.7800      1714
    32.8000      1576
    32.8200      1344
    32.8400      1164
    32.8600      1196
    32.8800      1058
    32.9000      1064
    32.9200      1076
    32.9400      1102
    32.9600      1100
    32.9800      1138
    33.0000      1228
    33.0200      1312
    33.0400      1348
    33.0600      1394
    33.0800      1436
    33.1000      1344
    33.1200      1308
    33.1400      1150
    33.1600      1068
    33.1800       916
    33.2000       820
    33.2200       768
    33.2400       678
    33.2600       600
    33.2800       544
    33.3000       474
    33.3200       390
    33.3400       376
    33.3600       342
    33.3800       366
    33.4000       360
    33.4200       336
    33.4400       318
    33.4600       302
    33.4800       294
    33.5000       302
    33.5200       300
    33.5400       300
    33.5600       238
    33.5800       224
    33.6000       288
    33.6200       252
    33.6400       248
    33.6600       230
    33.6800       254
    33.7000       236
    33.7200       212
    33.7400       224
    33.7600       248
    33.7800       222
    33.8000       216
    33.8200       220
    33.8400       240
    33.8600       216
    33.8800       240
    33.9000       232
    33.9200       192
    33.9400       204
    33.9600       216
    33.9800       236
    34.0000       268
    34.0200       248
    34.0400       206
    34.0600       210
    34.0800       226
    34.1000       270
    34.1200       278
    34.1400       232
    34.1600       236
    34.1800       220
    34.2000       234
    34.2200       226
    34.2400       244
    34.2600       248
    34.2800       256
    34.3000       230
    34.3200       244
    34.3400       270
    34.3600       250
    34.3800       246
    34.4000       280
    34.4200       308
    34.4400       320
    34.4600       342
    34.4800       370
    34.5000       368
    34.5200       356
    34.5400       372
    34.5600       360
    34.5800       368
    34.6000       380
    34.6200       364
    34.6400       326
    34.6600       386
    34.6800       336
    34.7000       320
    34.7200       294
    34.7400       334
    34.7600       272
    34.7800       288
    34.8000       278
    34.8200       324
    34.8400       294
    34.8600       288
    34.8800       294
    34.9000       322
    34.9200       304
    34.9400       308
    34.9600       268
    34.9800       292
    35.0000       288
    35.0200       298
    35.0400       362
    35.0600       332
    35.0800       328
    35.1000       310
    35.1200       274
    35.1400       282
    35.1600       300
    35.1800       242
    35.2000       304
    35.2200       240
    35.2400       250
    35.2600       266
    35.2800       244
    35.3000       274
    35.3200       246
    35.3400       254
    35.3600       250
    35.3800       248
    35.4000       270
    35.4200       260
    35.4400       240
    35.4600       258
    35.4800       240
    35.5000       262
    35.5200       276
    35.5400       252
    35.5600       256
    35.5800       282
    35.6000       292
    35.6200       274
    35.6400       278
    35.6600       280
    35.6800       276
    35.7000       320
    35.7200       332
    35.7400       306
    35.7600       318
    35.7800       328
    35.8000       358
    35.8200       352
    35.8400       380
    35.8600       404
    35.8800       400
    35.9000       386
    35.9200       436
    35.9400       484
    35.9600       468
    35.9800       528
    36.0000       560
    36.0200       588
    36.0400       594
    36.0600       570
    36.0800       624
    36.1000       620
    36.1200       680
    36.1400       710
    36.1600       694
    36.1800       668
    36.2000       656
    36.2200       616
    36.2400       556
    36.2600       468
    36.2800       500
    36.3000       464
    36.3200       462
    36.3400       396
    36.3600       372
    36.3800       356
    36.4000       338
    36.4200       340
    36.4400       352
    36.4600       388
    36.4800       356
    36.5000       394
    36.5200       392
    36.5400       418
    36.5600       414
    36.5800       484
    36.6000       476
    36.6200       508
    36.6400       554
    36.6600       592
    36.6800       680
    36.7000       682
    36.7200       786
    36.7400       900
    36.7600       936
    36.7800      1222
    36.8000      1300
    36.8200      1416
    36.8400      1516
    36.8600      1574
    36.8800      1648
    36.9000      1628
    36.9200      1690
    36.9400      1542
    36.9600      1540
    36.9800      1432
    37.0000      1266
    37.0200      1200
    37.0400      1140
    37.0600      1066
    37.0800      1050
    37.1000       976
    37.1200       946
    37.1400       988
    37.1600       904
    37.1800       866
    37.2000       874
    37.2200       854
    37.2400       812
    37.2600       844
    37.2800       794
    37.3000       734
    37.3200       680
    37.3400       680
    37.3600       634
    37.3800       634
    37.4000       586
    37.4200       536
    37.4400       574
    37.4600       610
    37.4800       604
    37.5000       604
    37.5200       570
    37.5400       590
    37.5600       582
    37.5800       628
    37.6000       624
    37.6200       638
    37.6400       622
    37.6600       694
    37.6800       692
    37.7000       716
    37.7200       700
    37.7400       686
    37.7600       760
    37.7800       812
    37.8000       846
    37.8200       836
    37.8400       862
    37.8600       932
    37.8800      1060
    37.9000      1210
    37.9200      1192
    37.9400      1322
    37.9600      1606
    37.9800      1634
    38.0000      1740
    38.0200      1814
    38.0400      1810
    38.0600      1824
    38.0800      1888
    38.1000      1834
    38.1200      1792
    38.1400      1762
    38.1600      1660
    38.1800      1674
    38.2000      1686
    38.2200      1740
    38.2400      1776
    38.2600      1920
    38.2800      1978
    38.3000      2284
    38.3200      2504
    38.3400      2788
    38.3600      3036
    38.3800      3380
    38.4000      3698
    38.4200      4096
    38.4400      4240
    38.4600      4658
    38.4800      4738
    38.5000      4788
    38.5200      4888
    38.5400      4974
    38.5600      4834
    38.5800      4896
    38.6000      4746
    38.6200      4662
    38.6400      4468
    38.6600      4352
    38.6800      4236
    38.7000      4102
    38.7200      3896
    38.7400      3736
    38.7600      3438
    38.7800      3304
    38.8000      3022
    38.8200      2698
    38.8400      2428
    38.8600      2156
    38.8800      1934
    38.9000      1682
    38.9200      1606
    38.9400      1452
    38.9600      1290
    38.9800      1182
    39.0000      1188
    39.0200      1086
    39.0400      1058
    39.0600      1014
    39.0800      1078
    39.1000      1112
    39.1200      1076
    39.1400      1074
    39.1600       968
    39.1800      1098
    39.2000      1074
    39.2200      1104
    39.2400      1128
    39.2600      1086
    39.2800      1062
    39.3000      1058
    39.3200      1080
    39.3400      1034
    39.3600      1036
    39.3800      1076
    39.4000      1008
    39.4200       960
    39.4400       952
    39.4600       920
    39.4800       956
    39.5000      1020
    39.5200      1082
    39.5400      1092
    39.5600      1110
    39.5800      1276
    39.6000      1426
    39.6200      1626
    39.6400      1674
    39.6600      1778
    39.6800      1702
    39.7000      1974
    39.7200      1942
    39.7400      1820
    39.7600      1806
    39.7800      1698
    39.8000      1504
    39.8200      1426
    39.8400      1246
    39.8600      1120
    39.8800      1050
    39.9000       924
    39.9200       814
    39.9400       758
    39.9600       754
    39.9800       720
    40.0000       668
    40.0200       654
    40.0400       694
    40.0600       646
    40.0800       676
    40.1000       656
    40.1200       646
    40.1400       646
    40.1600       710
    40.1800       686
    40.2000       658
    40.2200       718
    40.2400       690
    40.2600       716
    40.2800       724
    40.3000       770
    40.3200       722
    40.3400       794
    40.3600       790
    40.3800       876
    40.4000       882
    40.4200       920
    40.4400      1034
    40.4600      1116
    40.4800      1100
    40.5000      1206
    40.5200      1256
    40.5400      1328
    40.5600      1364
    40.5800      1326
    40.6000      1200
    40.6200      1214
    40.6400      1174
    40.6600      1100
    40.6800      1060
    40.7000      1018
    40.7200       934
    40.7400       858
    40.7600       788
    40.7800       760
    40.8000       750
    40.8200       726
    40.8400       692
    40.8600       654
    40.8800       656
    40.9000       576
    40.9200       582
    40.9400       644
    40.9600       636
    40.9800       658
    41.0000       734
    41.0200       686
    41.0400       740
    41.0600       818
    41.0800       848
    41.1000       876
    41.1200       906
    41.1400      1038
    41.1600      1172
    41.1800      1236
    41.2000      1408
    41.2200      1434
    41.2400      1524
    41.2600      1658
    41.2800      1564
    41.3000      1716
    41.3200      1782
    41.3400      1780
    41.3600      1668
    41.3800      1664
    41.4000      1624
    41.4200      1580
    41.4400      1486
    41.4600      1356
    41.4800      1330
    41.5000      1256
    41.5200      1162
    41.5400      1084
    41.5600       952
    41.5800       880
    41.6000       866
    41.6200       808
    41.6400       864
    41.6600       828
    41.6800       820
    41.7000       848
    41.7200       924
    41.7400       938
    41.7600      1024
    41.7800      1134
    41.8000      1198
    41.8200      1230
    41.8400      1414
    41.8600      1398
    41.8800      1444
    41.9000      1496
    41.9200      1470
    41.9400      1448
    41.9600      1386
    41.9800      1208
    42.0000      1170
    42.0200      1056
    42.0400      1016
    42.0600       902
    42.0800       762
    42.1000       742
    42.1200       698
    42.1400       646
    42.1600       580
    42.1800       550
    42.2000       512
    42.2200       468
    42.2400       524
    42.2600       464
    42.2800       430
    42.3000       460
    42.3200       426
    42.3400       394
    42.3600       380
    42.3800       408
    42.4000       374
    42.4200       366
    42.4400       400
    42.4600       382
    42.4800       350
    42.5000       342
    42.5200       362
    42.5400       368
    42.5600       344
    42.5800       374
    42.6000       340
    42.6200       362
    42.6400       354
    42.6600       374
    42.6800       336
    42.7000       382
    42.7200       362
    42.7400       388
    42.7600       410
    42.7800       386
    42.8000       392
    42.8200       412
    42.8400       418
    42.8600       414
    42.8800       462
    42.9000       456
    42.9200       516
    42.9400       518
    42.9600       574
    42.9800       562
    43.0000       652
    43.0200       712
    43.0400       752
    43.0600       930
    43.0800       960
    43.1000      1012
    43.1200      1190
    43.1400      1250
    43.1600      1364
    43.1800      1454
    43.2000      1564
    43.2200      1536
    43.2400      1534
    43.2600      1492
    43.2800      1372
    43.3000      1284
    43.3200      1256
    43.3400      1072
    43.3600      1036
    43.3800       980
    43.4000       960
    43.4200       850
    43.4400       750
    43.4600       668
    43.4800       646
    43.5000       626
    43.5200       550
    43.5400       526
    43.5600       474
    43.5800       514
    43.6000       516
    43.6200       476
    43.6400       476
    43.6600       554
    43.6800       532
    43.7000       566
    43.7200       610
    43.7400       616
    43.7600       622
    43.7800       628
    43.8000       632
    43.8200       658
    43.8400       638
    43.8600       590
    43.8800       650
    43.9000       604
    43.9200       624
    43.9400       606
    43.9600       518
    43.9800       554
    44.0000       542
    44.0200       502
    44.0400       504
    44.0600       516
    44.0800       470
    44.1000       488
    44.1200       462
    44.1400       478
    44.1600       438
    44.1800       484
    44.2000       512
    44.2200       512
    44.2400       546
    44.2600       542
    44.2800       576
    44.3000       554
    44.3200       540
    44.3400       622
    44.3600       592
    44.3800       674
    44.4000       662
    44.4200       718
    44.4400       772
    44.4600       784
    44.4800       930
    44.5000       954
    44.5200       986
    44.5400      1060
    44.5600      1182
    44.5800      1306
    44.6000      1320
    44.6200      1530
    44.6400      1502
    44.6600      1610
    44.6800      1628
    44.7000      1758
    44.7200      1736
    44.7400      1758
    44.7600      1710
    44.7800      1678
    44.8000      1654
    44.8200      1630
    44.8400      1566
    44.8600      1512
    44.8800      1604
    44.9000      1598
    44.9200      1638
    44.9400      1642
    44.9600      1704
    44.9800      1710
    45.0000      1914
    45.0200      1852
    45.0400      1884
    45.0600      1936
    45.0800      1906
    45.1000      1916
    45.1200      1850
    45.1400      1926
    45.1600      1894
    45.1800      1842
    45.2000      1788
    45.2200      1784
    45.2400      1628
    45.2600      1596
    45.2800      1556
    45.3000      1444
    45.3200      1370
    45.3400      1240
    45.3600      1230
    45.3800      1186
    45.4000      1126
    45.4200      1086
    45.4400      1002
    45.4600       950
    45.4800       904
    45.5000       920
    45.5200       884
    45.5400       868
    45.5600       830
    45.5800       776
    45.6000       804
    45.6200       760
    45.6400       738
    45.6600       770
    45.6800       742
    45.7000       724
    45.7200       702
    45.7400       722
    45.7600       764
    45.7800       752
    45.8000       704
    45.8200       768
    45.8400       694
    45.8600       654
    45.8800       726
    45.9000       674
    45.9200       726
    45.9400       680
    45.9600       698
    45.9800       646
    46.0000       682
    46.0200       678
    46.0400       624
    46.0600       672
    46.0800       642
    46.1000       670
    46.1200       656
    46.1400       666
    46.1600       700
    46.1800       722
    46.2000       786
    46.2200       804
    46.2400       772
    46.2600       836
    46.2800       928
    46.3000       948
    46.3200       980
    46.3400      1134
    46.3600      1116
    46.3800      1260
    46.4000      1322
    46.4200      1486
    46.4400      1604
    46.4600      1856
    46.4800      2082
    46.5000      2150
    46.5200      2540
    46.5400      2852
    46.5600      3202
    46.5800      3672
    46.6000      4094
    46.6200      4554
    46.6400      5028
    46.6600      5488
    46.6800      5898
    46.7000      5938
    46.7200      6128
    46.7400      6178
    46.7600      5920
    46.7800      5612
    46.8000      5152
    46.8200      4800
    46.8400      4346
    46.8600      3938
    46.8800      3542
    46.9000      3156
    46.9200      2650
    46.9400      2334
    46.9600      2060
    46.9800      1800
    47.0000      1612
    47.0200      1400
    47.0400      1292
    47.0600      1202
    47.0800      1048
    47.1000      1010
    47.1200       894
    47.1400       834
    47.1600       838
    47.1800       790
    47.2000       770
    47.2200       668
    47.2400       654
    47.2600       632
    47.2800       614
    47.3000       612
    47.3200       604
    47.3400       584
    47.3600       550
    47.3800       534
    47.4000       546
    47.4200       502
    47.4400       502
    47.4600       494
    47.4800       460
    47.5000       490
    47.5200       454
    47.5400       482
    47.5600       456
    47.5800       498
    47.6000       512
    47.6200       512
    47.6400       526
    47.6600       496
    47.6800       516
    47.7000       568
    47.7200       554
    47.7400       600
    47.7600       686
    47.7800       648
    47.8000       664
    47.8200       716
    47.8400       744
    47.8600       710
    47.8800       726
    47.9000       666
    47.9200       728
    47.9400       682
    47.9600       698
    47.9800       634
    48.0000       646
    48.0200       620
    48.0400       624
    48.0600       634
    48.0800       680
    48.1000       634
    48.1200       660
    48.1400       666
    48.1600       748
    48.1800       800
    48.2000       772
    48.2200       796
    48.2400       782
    48.2600       784
    48.2800       818
    48.3000       838
    48.3200       812
    48.3400       808
    48.3600       848
    48.3800       802
    48.4000       832
    48.4200       848
    48.4400       908
    48.4600       890
    48.4800       982
    48.5000       954
    48.5200      1042
    48.5400      1014
    48.5600      1090
    48.5800      1096
    48.6000      1144
    48.6200      1138
    48.6400      1078
    48.6600      1094
    48.6800      1100
    48.7000      1076
    48.7200      1022
    48.7400       996
    48.7600       976
    48.7800       930
    48.8000       892
    48.8200       798
    48.8400       782
    48.8600       694
    48.8800       712
    48.9000       652
    48.9200       636
    48.9400       584
    48.9600       564
    48.9800       550
    49.0000       512
    49.0200       492
    49.0400       484
    49.0600       434
    49.0800       446
    49.1000       430
    49.1200       390
    49.1400       358
    49.1600       366
    49.1800       392
    49.2000       370
    49.2200       338
    49.2400       340
    49.2600       312
    49.2800       324
    49.3000       326
    49.3200       330
    49.3400       340
    49.3600       288
    49.3800       312
    49.4000       328
    49.4200       278
    49.4400       306
    49.4600       338
    49.4800       324
    49.5000       298
    49.5200       300
    49.5400       318
    49.5600       288
    49.5800       310
    49.6000       288
    49.6200       318
    49.6400       360
    49.6600       330
    49.6800       354
    49.7000       348
    49.7200       346
    49.7400       370
    49.7600       350
    49.7800       348
    49.8000       328
    49.8200       378
    49.8400       372
    49.8600       380
    49.8800       424
    49.9000       432
    49.9200       404
    49.9400       454
    49.9600       450
    49.9800       506
    50.0000       538
    50.0200       542
    50.0400       592
    50.0600       588
    50.0800       648
    50.1000       642
    50.1200       738
    50.1400       776
    50.1600       884
    50.1800       930
    50.2000       986
    50.2200      1024
    50.2400      1050
    50.2600      1152
    50.2800      1292
    50.3000      1350
    50.3200      1316
    50.3400      1300
    50.3600      1330
    50.3800      1350
    50.4000      1304
    50.4200      1284
    50.4400      1300
    50.4600      1276
    50.4800      1202
    50.5000      1122
    50.5200      1170
    50.5400      1156
    50.5600      1068
    50.5800      1010
    50.6000      1058
    50.6200      1040
    50.6400      1042
    50.6600      1072
    50.6800      1072
    50.7000      1130
    50.7200      1154
    50.7400      1152
    50.7600      1234
    50.7800      1238
    50.8000      1206
    50.8200      1220
    50.8400      1264
    50.8600      1278
    50.8800      1182
    50.9000      1136
    50.9200      1140
    50.9400      1118
    50.9600      1104
    50.9800      1056
    51.0000       952
    51.0200       978
    51.0400       920
    51.0600       866
    51.0800       828
    51.1000       796
    51.1200       770
    51.1400       716
    51.1600       750
    51.1800       718
    51.2000       754
    51.2200       764
    51.2400       736
    51.2600       772
    51.2800       782
    51.3000       766
    51.3200       812
    51.3400       816
    51.3600       864
    51.3800       894
    51.4000       848
    51.4200       836
    51.4400       782
    51.4600       830
    51.4800       802
    51.5000       850
    51.5200       826
    51.5400       744
    51.5600       746
    51.5800       806
    51.6000       876
    51.6200       848
    51.6400       746
    51.6600       788
    51.6800       820
    51.7000       866
    51.7200       938
    51.7400       960
    51.7600      1082
    51.7800      1100
    51.8000      1094
    51.8200      1194
    51.8400      1266
    51.8600      1356
    51.8800      1346
    51.9000      1336
    51.9200      1274
    51.9400      1346
    51.9600      1324
    51.9800      1180
    52.0000      1238
    52.0200      1188
    52.0400      1064
    52.0600      1084
    52.0800      1010
    52.1000       904
    52.1200       852
    52.1400       786
    52.1600       792
    52.1800       746
    52.2000       702
    52.2200       634
    52.2400       662
    52.2600       634
    52.2800       580
    52.3000       630
    52.3200       640
    52.3400       610
    52.3600       662
    52.3800       694
    52.4000       694
    52.4200       750
    52.4400       804
    52.4600       782
    52.4800       894
    52.5000       924
    52.5200       986
    52.5400      1110
    52.5600      1130
    52.5800      1188
    52.6000      1226
    52.6200      1114
    52.6400      1176
    52.6600      1222
    52.6800      1110
    52.7000      1108
    52.7200      1078
    52.7400      1104
    52.7600      1036
    52.7800       996
    52.8000       914
    52.8200       892
    52.8400       816
    52.8600       846
    52.8800       794
    52.9000       786
    52.9200       770
    52.9400       764
    52.9600       682
    52.9800       714
    53.0000       700
    53.0200       666
    53.0400       722
    53.0600       706
    53.0800       786
    53.1000       778
    53.1200       824
    53.1400       902
    53.1600       974
    53.1800      1046
    53.2000      1164
    53.2200      1242
    53.2400      1256
    53.2600      1372
    53.2800      1362
    53.3000      1372
    53.3200      1334
    53.3400      1388
    53.3600      1274
    53.3800      1258
    53.4000      1192
    53.4200      1176
    53.4400      1070
    53.4600      1008
    53.4800      1020
    53.5000       926
    53.5200       826
    53.5400       772
    53.5600       746
    53.5800       688
    53.6000       706
    53.6200       598
    53.6400       618
    53.6600       534
    53.6800       562
    53.7000       574
    53.7200       542
    53.7400       524
    53.7600       492
    53.7800       450
    53.8000       458
    53.8200       460
    53.8400       468
    53.8600       436
    53.8800       444
    53.9000       412
    53.9200       410
    53.9400       410
    53.9600       436
    53.9800       392
    54.0000       412
    54.0200       366
    54.0400       438
    54.0600       392
    54.0800       402
    54.1000       404
    54.1200       402
    54.1400       448
    54.1600       396
    54.1800       474
    54.2000       428
    54.2200       456
    54.2400       454
    54.2600       476
    54.2800       452
    54.3000       476
    54.3200       512
    54.3400       490
    54.3600       512
    54.3800       520
    54.4000       474
    54.4200       538
    54.4400       556
    54.4600       522
    54.4800       548
    54.5000       508
    54.5200       604
    54.5400       580
    54.5600       636
    54.5800       634
    54.6000       644
    54.6200       688
    54.6400       668
    54.6600       722
    54.6800       754
    54.7000       766
    54.7200       814
    54.7400       768
    54.7600       848
    54.7800       786
    54.8000       780
    54.8200       696
    54.8400       778
    54.8600       722
    54.8800       782
    54.9000       746
    54.9200       776
    54.9400       784
    54.9600       780
    54.9800       712
    55.0000       826
    55.0200       818
    55.0400       822
    55.0600       854
    55.0800       896
    55.1000       904
    55.1200       896
    55.1400       902
    55.1600       950
    55.1800       976
    55.2000      1002
    55.2200       996
    55.2400       982
    55.2600       992
    55.2800       986
    55.3000      1000
    55.3200      1016
    55.3400       942
    55.3600       928
    55.3800       954
    55.4000      1000
    55.4200       894
    55.4400       916
    55.4600       872
    55.4800       872
    55.5000       828
    55.5200       790
    55.5400       770
    55.5600       694
    55.5800       724
    55.6000       684
    55.6200       680
    55.6400       636
    55.6600       622
    55.6800       604
    55.7000       600
    55.7200       526
    55.7400       526
    55.7600       504
    55.7800       448
    55.8000       476
    55.8200       424
    55.8400       448
    55.8600       404
    55.8800       432
    55.9000       404
    55.9200       400
    55.9400       380
    55.9600       358
    55.9800       382
    56.0000       338
    56.0200       344
    56.0400       300
    56.0600       342
    56.0800       362
    56.1000       330
    56.1200       350
    56.1400       350
    56.1600       318
    56.1800       348
    56.2000       346
    56.2200       336
    56.2400       326
    56.2600       320
    56.2800       346
    56.3000       322
    56.3200       346
    56.3400       368
    56.3600       370
    56.3800       328
    56.4000       332
    56.4200       354
    56.4400       342
    56.4600       364
    56.4800       338
    56.5000       366
    56.5200       378
    56.5400       364
    56.5600       410
    56.5800       418
    56.6000       414
    56.6200       394
    56.6400       426
    56.6600       372
    56.6800       490
    56.7000       456
    56.7200       462
    56.7400       472
    56.7600       446
    56.7800       430
    56.8000       444
    56.8200       472
    56.8400       464
    56.8600       430
    56.8800       460
    56.9000       438
    56.9200       428
    56.9400       422
    56.9600       406
    56.9800       432
    57.0000       436
    57.0200       478
    57.0400       478
    57.0600       468
    57.0800       490
    57.1000       488
    57.1200       544
    57.1400       558
    57.1600       622
    57.1800       682
    57.2000       688
    57.2200       774
    57.2400       774
    57.2600       890
    57.2800       978
    57.3000      1082
    57.3200      1106
    57.3400      1152
    57.3600      1280
    57.3800      1340
    57.4000      1334
    57.4200      1358
    57.4400      1352
    57.4600      1332
    57.4800      1308
    57.5000      1348
    57.5200      1352
    57.5400      1244
    57.5600      1264
    57.5800      1312
    57.6000      1258
    57.6200      1294
    57.6400      1254
    57.6600      1322
    57.6800      1286
    57.7000      1344
    57.7200      1502
    57.7400      1400
    57.7600      1328
    57.7800      1380
    57.8000      1294
    57.8200      1304
    57.8400      1250
    57.8600      1242
    57.8800      1156
    57.9000      1066
    57.9200      1108
    57.9400       988
    57.9600       932
    57.9800       912
    58.0000       868
    58.0200       764
    58.0400       732
    58.0600       760
    58.0800       722
    58.1000       774
    58.1200       736
    58.1400       790
    58.1600       756
    58.1800       788
    58.2000       818
    58.2200       820
    58.2400       938
    58.2600       868
    58.2800       992
    58.3000       956
    58.3200      1138
    58.3400      1142
    58.3600      1214
    58.3800      1326
    58.4000      1348
    58.4200      1422
    58.4400      1466
    58.4600      1510
    58.4800      1642
    58.5000      1792
    58.5200      1850
    58.5400      1902
    58.5600      1954
    58.5800      1980
    58.6000      2156
    58.6200      2182
    58.6400      2314
    58.6600      2318
    58.6800      2356
    58.7000      2436
    58.7200      2468
    58.7400      2538
    58.7600      2438
    58.7800      2496
    58.8000      2314
    58.8200      2352
    58.8400      2256
    58.8600      2100
    58.8800      2080
    58.9000      1918
    58.9200      1850
    58.9400      1728
    58.9600      1604
    58.9800      1392
    59.0000      1392
    59.0200      1274
    59.0400      1180
    59.0600      1136
    59.0800      1102
    59.1000      1052
    59.1200       904
    59.1400       908
    59.1600       894
    59.1800       810
    59.2000       862
    59.2200       794
    59.2400       832
    59.2600       762
    59.2800       816
    59.3000       808
    59.3200       792
    59.3400       800
    59.3600       826
    59.3800       890
    59.4000       884
    59.4200       876
    59.4400       892
    59.4600       930
    59.4800       986
    59.5000       944
    59.5200       914
    59.5400       934
    59.5600       888
    59.5800       840
    59.6000       894
    59.6200       958
    59.6400       928
    59.6600       898
    59.6800       846
    59.7000       930
    59.7200       876
    59.7400       888
    59.7600       832
    59.7800       826
    59.8000       886
    59.8200       886
    59.8400       828
    59.8600       834
    59.8800       776
    59.9000       824
    59.9200       772
    59.9400       764
    59.9600       714
    59.9800       706
    60.0000       702
    60.0200       654
    60.0400       650
    60.0600       618
    60.0800       588
    60.1000       554
    60.1200       530
    60.1400       496
    60.1600       514
    60.1800       474
    60.2000       432
    60.2200       484
    60.2400       510
    60.2600       418
    60.2800       432
    60.3000       430
    60.3200       420
    60.3400       402
    60.3600       398
    60.3800       430
    60.4000       424
    60.4200       406
    60.4400       394
    60.4600       394
    60.4800       402
    60.5000       390
    60.5200       378
    60.5400       380
    60.5600       416
    60.5800       350
    60.6000       464
    60.6200       432
    60.6400       376
    60.6600       442
    60.6800       448
    60.7000       416
    60.7200       412
    60.7400       420
    60.7600       430
    60.7800       442
    60.8000       434
    60.8200       450
    60.8400       502
    60.8600       522
    60.8800       508
    60.9000       474
    60.9200       482
    60.9400       578
    60.9600       540
    60.9800       554
    61.0000       578
    61.0200       550
    61.0400       562
    61.0600       620
    61.0800       654
    61.1000       684
    61.1200       698
    61.1400       636
    61.1600       714
    61.1800       710
    61.2000       726
    61.2200       786
    61.2400       766
    61.2600       762
    61.2800       716
    61.3000       766
    61.3200       816
    61.3400       840
    61.3600       796
    61.3800       872
    61.4000       864
    61.4200       836
    61.4400       816
    61.4600       896
    61.4800       912
    61.5000       838
    61.5200       810
    61.5400       846
    61.5600       818
    61.5800       822
    61.6000       762
    61.6200       756
    61.6400       784
    61.6600       724
    61.6800       732
    61.7000       614
    61.7200       650
    61.7400       596
    61.7600       592
    61.7800       566
    61.8000       526
    61.8200       550
    61.8400       522
    61.8600       532
    61.8800       506
    61.9000       498
    61.9200       500
    61.9400       550
    61.9600       502
    61.9800       508
    62.0000       550
    62.0200       492
    62.0400       484
    62.0600       520
    62.0800       460
    62.1000       508
    62.1200       486
    62.1400       462
    62.1600       500
    62.1800       482
    62.2000       480
    62.2200       532
    62.2400       454
    62.2600       420
    62.2800       434
    62.3000       476
    62.3200       440
    62.3400       406
    62.3600       406
    62.3800       452
    62.4000       416
    62.4200       442
    62.4400       436
    62.4600       424
    62.4800       386
    62.5000       412
    62.5200       368
    62.5400       380
    62.5600       376
    62.5800       364
    62.6000       388
    62.6200       394
    62.6400       382
    62.6600       364
    62.6800       362
    62.7000       352
    62.7200       410
    62.7400       358
    62.7600       376
    62.7800       370
    62.8000       330
    62.8200       380
    62.8400       364
    62.8600       324
    62.8800       356
    62.9000       340
    62.9200       326
    62.9400       314
    62.9600       344
    62.9800       302
    63.0000       316
    63.0200       294
    63.0400       300
    63.0600       296
    63.0800       318
    63.1000       296
    63.1200       282
    63.1400       258
    63.1600       268
    63.1800       272
    63.2000       242
    63.2200       242
    63.2400       264
    63.2600       268
    63.2800       266
    63.3000       256
    63.3200       264
    63.3400       258
    63.3600       272
    63.3800       284
    63.4000       284
    63.4200       270
    63.4400       272
    63.4600       284
    63.4800       274
    63.5000       304
    63.5200       320
    63.5400       288
    63.5600       326
    63.5800       332
    63.6000       352
    63.6200       340
    63.6400       356
    63.6600       344
    63.6800       436
    63.7000       376
    63.7200       434
    63.7400       458
    63.7600       490
    63.7800       470
    63.8000       524
    63.8200       490
    63.8400       552
    63.8600       550
    63.8800       538
    63.9000       510
    63.9200       548
    63.9400       506
    63.9600       508
    63.9800       504
    64.0000       510
    64.0200       504
    64.0400       540
    64.0600       436
    64.0800       414
    64.1000       380
    64.1200       406
    64.1400       360
    64.1600       384
    64.1800       346
    64.2000       354
    64.2200       368
    64.2400       320
    64.2600       344
    64.2800       350
    64.3000       298
    64.3200       344
    64.3400       330
    64.3600       322
    64.3800       290
    64.4000       310
    64.4200       288
    64.4400       334
    64.4600       290
    64.4800       288
    64.5000       318
    64.5200       268
    64.5400       304
    64.5600       318
    64.5800       310
    64.6000       346
    64.6200       338
    64.6400       320
    64.6600       306
    64.6800       366
    64.7000       378
    64.7200       328
    64.7400       374
    64.7600       364
    64.7800       384
    64.8000       448
    64.8200       444
    64.8400       462
    64.8600       464
    64.8800       516
    64.9000       494
    64.9200       494
    64.9400       564
    64.9600       580
    64.9800       576
    65.0000       594
    65.0200       648
    65.0400       582
    65.0600       648
    65.0800       648
    65.1000       666
    65.1200       674
    65.1400       662
    65.1600       678
    65.1800       626
    65.2000       666
    65.2200       630
    65.2400       670
    65.2600       658
    65.2800       660
    65.3000       584
    65.3200       560
    65.3400       568
    65.3600       546
    65.3800       604
    65.4000       568
    65.4200       552
    65.4400       518
    65.4600       480
    65.4800       504
    65.5000       512
    65.5200       450
    65.5400       432
    65.5600       428
    65.5800       420
    65.6000       408
    65.6200       444
    65.6400       394
    65.6600       372
    65.6800       396
    65.7000       374
    65.7200       326
    65.7400       360
    65.7600       350
    65.7800       354
    65.8000       326
    65.8200       324
    65.8400       304
    65.8600       304
    65.8800       324
    65.9000       306
    65.9200       340
    65.9400       298
    65.9600       264
    65.9800       246
    66.0000       294
    66.0200       268
    66.0400       276
    66.0600       262
    66.0800       238
    66.1000       270
    66.1200       274
    66.1400       268
    66.1600       286
    66.1800       280
    66.2000       282
    66.2200       256
    66.2400       254
    66.2600       310
    66.2800       276
    66.3000       286
    66.3200       312
    66.3400       280
    66.3600       304
    66.3800       286
    66.4000       298
    66.4200       324
    66.4400       312
    66.4600       394
    66.4800       342
    66.5000       344
    66.5200       374
    66.5400       364
    66.5600       396
    66.5800       390
    66.6000       424
    66.6200       424
    66.6400       484
    66.6600       490
    66.6800       484
    66.7000       492
    66.7200       548
    66.7400       552
    66.7600       584
    66.7800       620
    66.8000       640
    66.8200       660
    66.8400       626
    66.8600       650
    66.8800       700
    66.9000       734
    66.9200       716
    66.9400       722
    66.9600       660
    66.9800       692
    67.0000       676
    67.0200       668
    67.0400       608
    67.0600       592
    67.0800       616
    67.1000       642
    67.1200       570
    67.1400       566
    67.1600       516
    67.1800       514
    67.2000       472
    67.2200       488
    67.2400       446
    67.2600       408
    67.2800       390
    67.3000       428
    67.3200       378
    67.3400       384
    67.3600       384
    67.3800       330
    67.4000       304
    67.4200       308
    67.4400       316
    67.4600       320
    67.4800       330
    67.5000       298
    67.5200       302
    67.5400       304
    67.5600       262
    67.5800       304
    67.6000       274
    67.6200       314
    67.6400       314
    67.6600       282
    67.6800       338
    67.7000       336
    67.7200       308
    67.7400       310
    67.7600       316
    67.7800       362
    67.8000       360
    67.8200       364
    67.8400       396
    67.8600       436
    67.8800       416
    67.9000       456
    67.9200       466
    67.9400       518
    67.9600       560
    67.9800       602
    68.0000       628
    68.0200       664
    68.0400       670
    68.0600       804
    68.0800       836
    68.1000       886
    68.1200       936
    68.1400       848
    68.1600       980
    68.1800       936
    68.2000       948
    68.2200       974
    68.2400       948
    68.2600       992
    68.2800      1008
    68.3000       960
    68.3200       922
    68.3400       916
    68.3600       854
    68.3800       840
    68.4000       816
    68.4200       776
    68.4400       728
    68.4600       702
    68.4800       696
    68.5000       660
    68.5200       614
    68.5400       540
    68.5600       522
    68.5800       556
    68.6000       520
    68.6200       516
    68.6400       448
    68.6600       430
    68.6800       420
    68.7000       404
    68.7200       416
    68.7400       344
    68.7600       356
    68.7800       342
    68.8000       308
    68.8200       340
    68.8400       338
    68.8600       304
    68.8800       316
    68.9000       292
    68.9200       336
    68.9400       292
    68.9600       324
    68.9800       336
    69.0000       268
    69.0200       318
    69.0400       334
    69.0600       296
    69.0800       322
    69.1000       344
    69.1200       352
    69.1400       324
    69.1600       374
    69.1800       348
    69.2000       346
    69.2200       324
    69.2400       382
    69.2600       376
    69.2800       366
    69.3000       402
    69.3200       434
    69.3400       422
    69.3600       474
    69.3800       482
    69.4000       462
    69.4200       464
    69.4400       464
    69.4600       436
    69.4800       464
    69.5000       450
    69.5200       430
    69.5400       454
    69.5600       470
    69.5800       472
    69.6000       420
    69.6200       412
    69.6400       418
    69.6600       386
    69.6800       392
    69.7000       382
    69.7200       406
    69.7400       376
    69.7600       392
    69.7800       356
    69.8000       374
    69.8200       378
    69.8400       354
    69.8600       336
    69.8800       322
    69.9000       324
    69.9200       282
    69.9400       332
    69.9600       304
    69.9800       290
    70.0000       292
    70.0200       308
    70.0400       254
    70.0600       290
    70.0800       250
    70.1000       234
    70.1200       238
    70.1400       258
    70.1600       250
    70.1800       260
    70.2000       226
    70.2200       244
    70.2400       254
    70.2600       252
    70.2800       262
    70.3000       216
    70.3200       200
    70.3400       228
    70.3600       222
    70.3800       222
    70.4000       208
    70.4200       246
    70.4400       224
    70.4600       244
    70.4800       230
    70.5000       218
    70.5200       188
    70.5400       232
    70.5600       230
    70.5800       232
    70.6000       238
    70.6200       244
    70.6400       240
    70.6600       256
    70.6800       254
    70.7000       246
    70.7200       242
    70.7400       210
    70.7600       246
    70.7800       238
    70.8000       234
    70.8200       214
    70.8400       226
    70.8600       208
    70.8800       236
    70.9000       220
    70.9200       216
    70.9400       226
    70.9600       212
    70.9800       226
    71.0000       194
    71.0200       218
    71.0400       226
    71.0600       236
    71.0800       234
    71.1000       252
    71.1200       232
    71.1400       244
    71.1600       256
    71.1800       272
    71.2000       250
    71.2200       278
    71.2400       280
    71.2600       248
    71.2800       298
    71.3000       324
    71.3200       326
    71.3400       354
    71.3600       362
    71.3800       384
    71.4000       428
    71.4200       446
    71.4400       430
    71.4600       460
    71.4800       466
    71.5000       524
    71.5200       472
    71.5400       506
    71.5600       498
    71.5800       560
    71.6000       518
    71.6200       506
    71.6400       494
    71.6600       516
    71.6800       558
    71.7000       460
    71.7200       512
    71.7400       486
    71.7600       494
    71.7800       474
    71.8000       476
    71.8200       436
    71.8400       454
    71.8600       434
    71.8800       444
    71.9000       424
    71.9200       376
    71.9400       410
    71.9600       450
    71.9800       452
    72.0000       380
    72.0200       388
    72.0400       382
    72.0600       424
    72.0800       394
    72.1000       384
    72.1200       398
    72.1400       380
    72.1600       404
    72.1800       420
    72.2000       426
    72.2200       412
    72.2400       448
    72.2600       448
    72.2800       406
    72.3000       474
    72.3200       468
    72.3400       412
    72.3600       458
    72.3800       476
    72.4000       444
    72.4200       452
    72.4400       468
    72.4600       418
    72.4800       460
    72.5000       446
    72.5200       450
    72.5400       446
    72.5600       438
    72.5800       444
    72.6000       458
    72.6200       428
    72.6400       420
    72.6600       422
    72.6800       420
    72.7000       452
    72.7200       430
    72.7400       392
    72.7600       418
    72.7800       450
    72.8000       444
    72.8200       416
    72.8400       396
    72.8600       454
    72.8800       412
    72.9000       392
    72.9200       386
    72.9400       388
    72.9600       396
    72.9800       394
    73.0000       356
    73.0200       384
    73.0400       328
    73.0600       360
    73.0800       300
    73.1000       306
    73.1200       324
    73.1400       300
    73.1600       278
    73.1800       296
    73.2000       308
    73.2200       278
    73.2400       296
    73.2600       300
    73.2800       280
    73.3000       300
    73.3200       296
    73.3400       260
    73.3600       270
    73.3800       258
    73.4000       274
    73.4200       248
    73.4400       252
    73.4600       250
    73.4800       256
    73.5000       284
    73.5200       256
    73.5400       274
    73.5600       272
    73.5800       264
    73.6000       254
    73.6200       268
    73.6400       300
    73.6600       274
    73.6800       310
    73.7000       296
    73.7200       318
    73.7400       320
    73.7600       340
    73.7800       340
    73.8000       338
    73.8200       316
    73.8400       330
    73.8600       390
    73.8800       340
    73.9000       336
    73.9200       392
    73.9400       354
    73.9600       372
    73.9800       386
    74.0000       392
    74.0200       340
    74.0400       382
    74.0600       356
    74.0800       374
    74.1000       398
    74.1200       364
    74.1400       356
    74.1600       388
    74.1800       324
    74.2000       340
    74.2200       344
    74.2400       334
    74.2600       344
    74.2800       362
    74.3000       278
    74.3200       292
    74.3400       272
    74.3600       270
    74.3800       296
    74.4000       242
    74.4200       268
    74.4400       266
    74.4600       246
    74.4800       244
    74.5000       242
    74.5200       246
    74.5400       218
    74.5600       210
    74.5800       198
    74.6000       228
    74.6200       228
    74.6400       218
    74.6600       204
    74.6800       190
    74.7000       214
    74.7200       230
    74.7400       206
    74.7600       210
    74.7800       204
    74.8000       188
    74.8200       208
    74.8400       232
    74.8600       220
    74.8800       186
    74.9000       208
    74.9200       222
    74.9400       224
    74.9600       190
    74.9800       206
    75.0000       212
    75.0200       234
    75.0400       230
    75.0600       224
    75.0800       218
    75.1000       232
    75.1200       190
    75.1400       230
    75.1600       216
    75.1800       216
    75.2000       246
    75.2200       220
    75.2400       234
    75.2600       232
    75.2800       222
    75.3000       218
    75.3200       224
    75.3400       230
    75.3600       248
    75.3800       244
    75.4000       232
    75.4200       224
    75.4400       226
    75.4600       220
    75.4800       268
    75.5000       226
    75.5200       232
    75.5400       228
    75.5600       240
    75.5800       224
    75.6000       226
    75.6200       238
    75.6400       222
    75.6600       174
    75.6800       246
    75.7000       232
    75.7200       246
    75.7400       228
    75.7600       226
    75.7800       204
    75.8000       266
    75.8200       206
    75.8400       212
    75.8600       228
    75.8800       196
    75.9000       222
    75.9200       230
    75.9400       222
    75.9600       252
    75.9800       258
    76.0000       272
    76.0200       212
    76.0400       264
    76.0600       266
    76.0800       244
    76.1000       234
    76.1200       242
    76.1400       258
    76.1600       242
    76.1800       282
    76.2000       276
    76.2200       276
    76.2400       270
    76.2600       292
    76.2800       274
    76.3000       302
    76.3200       280
    76.3400       336
    76.3600       306
    76.3800       298
    76.4000       296
    76.4200       300
    76.4400       320
    76.4600       332
    76.4800       316
    76.5000       336
    76.5200       360
    76.5400       334
    76.5600       364
    76.5800       338
    76.6000       358
    76.6200       370
    76.6400       368
    76.6600       308
    76.6800       356
    76.7000       338
    76.7200       386
    76.7400       332
    76.7600       348
    76.7800       328
    76.8000       358
    76.8200       344
    76.8400       344
    76.8600       370
    76.8800       358
    76.9000       318
    76.9200       370
    76.9400       338
    76.9600       348
    76.9800       286
    77.0000       310
    77.0200       312
    77.0400       330
    77.0600       310
    77.0800       302
    77.1000       324
    77.1200       296
    77.1400       304
    77.1600       308
    77.1800       306
    77.2000       312
    77.2200       330
    77.2400       350
    77.2600       364
    77.2800       392
    77.3000       362
    77.3200       372
    77.3400       418
    77.3600       396
    77.3800       408
    77.4000       388
    77.4200       466
    77.4400       464
    77.4600       494
    77.4800       524
    77.5000       546
    77.5200       526
    77.5400       608
    77.5600       638
    77.5800       662
    77.6000       678
    77.6200       656
    77.6400       622
    77.6600       684
    77.6800       734
    77.7000       718
    77.7200       708
    77.7400       718
    77.7600       704
    77.7800       692
    77.8000       702
    77.8200       600
    77.8400       602
    77.8600       628
    77.8800       568
    77.9000       638
    77.9200       578
    77.9400       556
    77.9600       558
    77.9800       524
    78.0000       496
    78.0200       522
    78.0400       468
    78.0600       462
    78.0800       464
    78.1000       420
    78.1200       466
    78.1400       446
    78.1600       394
    78.1800       412
    78.2000       396
    78.2200       392
    78.2400       402
    78.2600       386
    78.2800       424
    78.3000       394
    78.3200       402
    78.3400       376
    78.3600       346
    78.3800       344
    78.4000       360
    78.4200       398
    78.4400       392
    78.4600       406
    78.4800       390
    78.5000       396
    78.5200       398
    78.5400       414
    78.5600       396
    78.5800       408
    78.6000       384
    78.6200       378
    78.6400       388
    78.6600       420
    78.6800       404
    78.7000       378
    78.7200       380
    78.7400       370
    78.7600       406
    78.7800       394
    78.8000       392
    78.8200       358
    78.8400       346
    78.8600       340
    78.8800       348
    78.9000       348
    78.9200       290
    78.9400       324
    78.9600       342
    78.9800       334
    79.0000       280
    79.0200       308
    79.0400       278
    79.0600       282
    79.0800       284
    79.1000       252
    79.1200       280
    79.1400       272
    79.1600       276
    79.1800       278
    79.2000       236
    79.2200       276
    79.2400       248
    79.2600       236
    79.2800       218
    79.3000       260
    79.3200       252
    79.3400       270
    79.3600       240
    79.3800       262
    79.4000       244
    79.4200       210
    79.4400       258
    79.4600       256
    79.4800       236
    79.5000       252
    79.5200       258
    79.5400       250
    79.5600       234
    79.5800       248
    79.6000       234
    79.6200       280
    79.6400       258
    79.6600       232
    79.6800       248
    79.7000       252
    79.7200       252
    79.7400       228
    79.7600       234
    79.7800       234
    79.8000       216
    79.8200       266
    79.8400       260
    79.8600       248
    79.8800       238
    79.9000       238
    79.9200       214
    79.9400       264
    79.9600       250
    79.9800       256
    80.0000       216
    80.0200       230
    80.0400       232
    80.0600       254
    80.0800       234
    80.1000       258
    80.1200       230
    80.1400       222
    80.1600       224
    80.1800       216
    80.2000       258
    80.2200       242
    80.2400       212
    80.2600       234
    80.2800       256
    80.3000       242
    80.3200       230
    80.3400       246
    80.3600       232
    80.3800       256
    80.4000       246
    80.4200       254
    80.4400       244
    80.4600       268
    80.4800       258
    80.5000       260
    80.5200       290
    80.5400       262
    80.5600       256
    80.5800       266
    80.6000       246
    80.6200       252
    80.6400       258
    80.6600       266
    80.6800       280
    80.7000       248
    80.7200       252
    80.7400       274
    80.7600       250
    80.7800       236
    80.8000       246
    80.8200       234
    80.8400       236
    80.8600       246
    80.8800       236
    80.9000       218
    80.9200       230
    80.9400       242
    80.9600       218
    80.9800       222
    81.0000       220
    81.0200       252
    81.0400       252
    81.0600       216
    81.0800       224
    81.1000       244
    81.1200       216
    81.1400       214
    81.1600       222
    81.1800       228
    81.2000       232
    81.2200       230
    81.2400       260
    81.2600       252
    81.2800       220
    81.3000       252
    81.3200       242
    81.3400       246
    81.3600       256
    81.3800       238
    81.4000       256
    81.4200       256
    81.4400       258
    81.4600       264
    81.4800       256
    81.5000       246
    81.5200       266
    81.5400       288
    81.5600       254
    81.5800       248
    81.6000       258
    81.6200       282
    81.6400       274
    81.6600       282
    81.6800       258
    81.7000       262
    81.7200       286
    81.7400       282
    81.7600       274
    81.7800       284
    81.8000       300
    81.8200       312
    81.8400       288
    81.8600       292
    81.8800       348
    81.9000       288
    81.9200       334
    81.9400       320
    81.9600       336
    81.9800       312
    82.0000       352
    82.0200       318
    82.0400       334
    82.0600       324
    82.0800       322
    82.1000       356
    82.1200       364
    82.1400       334
    82.1600       334
    82.1800       356
    82.2000       368
    82.2200       358
    82.2400       394
    82.2600       402
    82.2800       400
    82.3000       368
    82.3200       418
    82.3400       416
    82.3600       424
    82.3800       374
    82.4000       428
    82.4200       402
    82.4400       424
    82.4600       434
    82.4800       418
    82.5000       482
    82.5200       412
    82.5400       444
    82.5600       458
    82.5800       436
    82.6000       444
    82.6200       452
    82.6400       458
    82.6600       476
    82.6800       440
    82.7000       494
    82.7200       516
    82.7400       532
    82.7600       540
    82.7800       480
    82.8000       546
    82.8200       504
    82.8400       538
    82.8600       528
    82.8800       496
    82.9000       568
    82.9200       538
    82.9400       498
    82.9600       524
    82.9800       492
    83.0000       466
    83.0200       530
    83.0400       454
    83.0600       470
    83.0800       504
    83.1000       476
    83.1200       442
    83.1400       420
    83.1600       434
    83.1800       406
    83.2000       436
    83.2200       422
    83.2400       420
    83.2600       396
    83.2800       396
    83.3000       416
    83.3200       382
    83.3400       408
    83.3600       404
    83.3800       386
    83.4000       386
    83.4200       362
    83.4400       340
    83.4600       352
    83.4800       354
    83.5000       332
    83.5200       358
    83.5400       336
    83.5600       316
    83.5800       296
    83.6000       312
    83.6200       324
    83.6400       308
    83.6600       298
    83.6800       308
    83.7000       294
    83.7200       300
    83.7400       260
    83.7600       290
    83.7800       284
    83.8000       304
    83.8200       278
    83.8400       296
    83.8600       262
    83.8800       304
    83.9000       272
    83.9200       292
    83.9400       274
    83.9600       280
    83.9800       302
    84.0000       302
    84.0200       262
    84.0400       274
    84.0600       268
    84.0800       292
    84.1000       314
    84.1200       288
    84.1400       296
    84.1600       288
    84.1800       280
    84.2000       296
    84.2200       314
    84.2400       262
    84.2600       306
    84.2800       280
    84.3000       272
    84.3200       320
    84.3400       344
    84.3600       276
    84.3800       310
    84.4000       278
    84.4200       286
    84.4400       298
    84.4600       286
    84.4800       298
    84.5000       320
    84.5200       284
    84.5400       264
    84.5600       254
    84.5800       290
    84.6000       298
    84.6200       310
    84.6400       288
    84.6600       272
    84.6800       272
    84.7000       288
    84.7200       262
    84.7400       248
    84.7600       268
    84.7800       248
    84.8000       246
    84.8200       238
    84.8400       248
    84.8600       260
    84.8800       260
    84.9000       230
    84.9200       264
    84.9400       264
    84.9600       248
    84.9800       244
    85.0000       234
    85.0200       246
    85.0400       254
    85.0600       246
    85.0800       216
    85.1000       244
    85.1200       208
    85.1400       216
    85.1600       222
    85.1800       244
    85.2000       220
    85.2200       216
    85.2400       246
    85.2600       214
    85.2800       254
    85.3000       220
    85.3200       232
    85.3400       238
    85.3600       238
    85.3800       260
    85.4000       288
    85.4200       284
    85.4400       256
    85.4600       272
    85.4800       282
    85.5000       250
    85.5200       278
    85.5400       254
    85.5600       248
    85.5800       292
    85.6000       292
    85.6200       284
    85.6400       298
    85.6600       252
    85.6800       290
    85.7000       254
    85.7200       258
    85.7400       286
    85.7600       248
    85.7800       276
    85.8000       258
    85.8200       256
    85.8400       264
    85.8600       266
    85.8800       264
    85.9000       268
    85.9200       286
    85.9400       242
    85.9600       276
    85.9800       248
    86.0000       262
    86.0200       252
    86.0400       240
    86.0600       236
    86.0800       240
    86.1000       240
    86.1200       220
    86.1400       226
    86.1600       236
    86.1800       252
    86.2000       232
    86.2200       236
    86.2400       208
    86.2600       248
    86.2800       204
    86.3000       234
    86.3200       206
    86.3400       188
    86.3600       226
    86.3800       236
    86.4000       226
    86.4200       210
    86.4400       242
    86.4600       234
    86.4800       228
    86.5000       222
    86.5200       220
    86.5400       256
    86.5600       230
    86.5800       236
    86.6000       248
    86.6200       236
    86.6400       230
    86.6600       268
    86.6800       214
    86.7000       284
    86.7200       260
    86.7400       310
    86.7600       282
    86.7800       286
    86.8000       304
    86.8200       286
    86.8400       306
    86.8600       262
    86.8800       282
    86.9000       308
    86.9200       298
    86.9400       304
    86.9600       316
    86.9800       320
    87.0000       310
    87.0200       300
    87.0400       300
    87.0600       338
    87.0800       290
    87.1000       310
    87.1200       320
    87.1400       290
    87.1600       288
    87.1800       280
    87.2000       262
    87.2200       320
    87.2400       310
    87.2600       294
    87.2800       270
    87.3000       314
    87.3200       300
    87.3400       276
    87.3600       320
    87.3800       282
    87.4000       282
    87.4200       310
    87.4400       290
    87.4600       298
    87.4800       308
    87.5000       282
    87.5200       278
    87.5400       264
    87.5600       298
    87.5800       276
    87.6000       294
    87.6200       270
    87.6400       296
    87.6600       346
    87.6800       278
    87.7000       302
    87.7200       312
    87.7400       324
    87.7600       276
    87.7800       304
    87.8000       302
    87.8200       306
    87.8400       322
    87.8600       326
    87.8800       354
    87.9000       318
    87.9200       340
    87.9400       334
    87.9600       292
    87.9800       334
    88.0000       332
    88.0200       320
    88.0400       332
    88.0600       334
    88.0800       334
    88.1000       340
    88.1200       324
    88.1400       334
    88.1600       340
    88.1800       348
    88.2000       342
    88.2200       354
    88.2400       350
    88.2600       376
    88.2800       422
    88.3000       352
    88.3200       340
    88.3400       356
    88.3600       366
    88.3800       374
    88.4000       368
    88.4200       360
    88.4400       350
    88.4600       354
    88.4800       346
    88.5000       358
    88.5200       364
    88.5400       324
    88.5600       358
    88.5800       356
    88.6000       346
    88.6200       328
    88.6400       360
    88.6600       322
    88.6800       328
    88.7000       306
    88.7200       346
    88.7400       338
    88.7600       272
    88.7800       312
    88.8000       266
    88.8200       278
    88.8400       306
    88.8600       288
    88.8800       270
    88.9000       298
    88.9200       272
    88.9400       230
    88.9600       286
    88.9800       260
    89.0000       270
    89.0200       270
    89.0400       252
    89.0600       252
    89.0800       258
    89.1000       252
    89.1200       216
    89.1400       248
    89.1600       230
    89.1800       224
    89.2000       256
    89.2200       232
    89.2400       236
    89.2600       248
    89.2800       230
    89.3000       236
    89.3200       240
    89.3400       230
    89.3600       226
    89.3800       258
    89.4000       254
    89.4200       228
    89.4400       274
    89.4600       228
    89.4800       254
    89.5000       232
    89.5200       288
    89.5400       252
    89.5600       252
    89.5800       248
    89.6000       256
    89.6200       224
    89.6400       270
    89.6600       262
    89.6800       240
    89.7000       250
    89.7200       222
    89.7400       274
    89.7600       278
    89.7800       286
    89.8000       250
    89.8200       292
    89.8400       268
    89.8600       268
    89.8800       278
    89.9000       282
    89.9200       272
    89.9400       276
    89.9600       284
    89.9800       306
    90.0000       292
