    10.0000       342
    10.0200       354
    10.0400       368
    10.0600       358
    10.0800       368
    10.1000       376
    10.1200       380
    10.1400       362
    10.1600       346
    10.1800       358
    10.2000       324
    10.2200       368
    10.2400       340
    10.2600       358
    10.2800       358
    10.3000       374
    10.3200       372
    10.3400       362
    10.3600       338
    10.3800       324
    10.4000       334
    10.4200       344
    10.4400       360
    10.4600       342
    10.4800       334
    10.5000       332
    10.5200       348
    10.5400       348
    10.5600       368
    10.5800       344
    10.6000       340
    10.6200       332
    10.6400       374
    10.6600       344
    10.6800       348
    10.7000       292
    10.7200       346
    10.7400       318
    10.7600       372
    10.7800       320
    10.8000       334
    10.8200       358
    10.8400       312
    10.8600       378
    10.8800       330
    10.9000       326
    10.9200       354
    10.9400       330
    10.9600       342
    10.9800       338
    11.0000       316
    11.0200       334
    11.0400       358
    11.0600       358
    11.0800       318
    11.1000       346
    11.1200       308
    11.1400       336
    11.1600       336
    11.1800       346
    11.2000       312
    11.2200       312
    11.2400       288
    11.2600       290
    11.2800       342
    11.3000       320
    11.3200       306
    11.3400       330
    11.3600       298
    11.3800       314
    11.4000       310
    11.4200       298
    11.4400       326
    11.4600       284
    11.4800       304
    11.5000       312
    11.5200       302
    11.5400       326
    11.5600       332
    11.5800       324
    11.6000       326
    11.6200       318
    11.6400       318
    11.6600       296
    11.6800       308
    11.7000       268
    11.7200       316
    11.7400       330
    11.7600       292
    11.7800       328
    11.8000       312
    11.8200       298
    11.8400       300
    11.8600       296
    11.8800       330
    11.9000       320
    11.9200       304
    11.9400       292
    11.9600       324
    11.9800       310
    12.0000       312
    12.0200       296
    12.0400       290
    12.0600       294
    12.0800       316
    12.1000       266
    12.1200       324
    12.1400       330
    12.1600       314
    12.1800       318
    12.2000       270
    12.2200       282
    12.2400       312
    12.2600       300
    12.2800       310
    12.3000       322
    12.3200       292
    12.3400       312
    12.3600       266
    12.3800       290
    12.4000       314
    12.4200       288
    12.4400       304
    12.4600       300
    12.4800       268
    12.5000       296
    12.5200       276
    12.5400       290
    12.5600       274
    12.5800       286
    12.6000       308
    12.6200       296
    12.6400       286
    12.6600       292
    12.6800       268
    12.7000       320
    12.7200       274
    12.7400       244
    12.7600       312
    12.7800       266
    12.8000       290
    12.8200       280
    12.8400       262
    12.8600       312
    12.8800       284
    12.9000       282
    12.9200       290
    12.9400       280
    12.9600       266
    12.9800       276
    13.0000       252
    13.0200       288
    13.0400       264
    13.0600       280
    13.0800       244
    13.1000       302
    13.1200       276
    13.1400       264
    13.1600       222
    13.1800       270
    13.2000       258
    13.2200       248
    13.2400       284
    13.2600       266
    13.2800       266
    13.3000       282
    13.3200       250
    13.3400       246
    13.3600       234
    13.3800       294
    13.4000       246
    13.4200       272
    13.4400       278
    13.4600       282
    13.4800       270
    13.5000       252
    13.5200       278
    13.5400       280
    13.5600       270
    13.5800       244
    13.6000       272
    13.6200       240
    13.6400       260
    13.6600       258
    13.6800       258
    13.7000       246
    13.7200       260
    13.7400       246
    13.7600       238
    13.7800       260
    13.8000       258
    13.8200       248
    13.8400       256
    13.8600       242
    13.8800       256
    13.9000       256
    13.9200       256
    13.9400       238
    13.9600       254
    13.9800       280
    14.0000       268
    14.0200       290
    14.0400       252
    14.0600       272
    14.0800       270
    14.1000       262
    14.1200       248
    14.1400       258
    14.1600       260
    14.1800       220
    14.2000       260
    14.2200       258
    14.2400       260
    14.2600       218
    14.2800       236
    14.3000       246
    14.3200       222
    14.3400       256
    14.3600       250
    14.3800       268
    14.4000       222
    14.4200       262
    14.4400       232
    14.4600       238
    14.4800       252
    14.5000       232
    14.5200       246
    14.5400       248
    14.5600       248
    14.5800       248
    14.6000       254
    14.6200       230
    14.6400       224
    14.6600       232
    14.6800       244
    14.7000       246
    14.7200       236
    14.7400       220
    14.7600       238
    14.7800       234
    14.8000       234
    14.8200       264
    14.8400       250
    14.8600       270
    14.8800       250
    14.9000       230
    14.9200       242
    14.9400       208
    14.9600       234
    14.9800       234
    15.0000       250
    15.0200       266
    15.0400       262
    15.0600       236
    15.0800       248
    15.1000       254
    15.1200       258
    15.1400       230
    15.1600       246
    15.1800       256
    15.2000       256
    15.2200       258
    15.2400       270
    15.2600       258
    15.2800       258
    15.3000       288
    15.3200       270
    15.3400       276
    15.3600       290
    15.3800       276
    15.4000       266
    15.4200       296
    15.4400       270
    15.4600       266
    15.4800       262
    15.5000       312
    15.5200       298
    15.5400       272
    15.5600       268
    15.5800       296
    15.6000       280
    15.6200       288
    15.6400       248
    15.6600       238
    15.6800       286
    15.7000       274
    15.7200       294
    15.7400       216
    15.7600       272
    15.7800       246
    15.8000       246
    15.8200       278
    15.8400       250
    15.8600       210
    15.8800       230
    15.9000       240
    15.9200       236
    15.9400       248
    15.9600       256
    15.9800       262
    16.0000       210
    16.0200       238
    16.0400       214
    16.0600       254
    16.0800       224
    16.1000       228
    16.1200       208
    16.1400       236
    16.1600       190
    16.1800       216
    16.2000       212
    16.2200       240
    16.2400       228
    16.2600       202
    16.2800       210
    16.3000       208
    16.3200       204
    16.3400       210
    16.3600       206
    16.3800       242
    16.4000       232
    16.4200       226
    16.4400       218
    16.4600       244
    16.4800       228
    16.5000       190
    16.5200       246
    16.5400       224
    16.5600       246
    16.5800       234
    16.6000       222
    16.6200       248
    16.6400       202
    16.6600       224
    16.6800       230
    16.7000       238
    16.7200       208
    16.7400       208
    16.7600       210
    16.7800       228
    16.8000       218
    16.8200       198
    16.8400       214
    16.8600       238
    16.8800       212
    16.9000       218
    16.9200       240
    16.9400       234
    16.9600       228
    16.9800       238
    17.0000       230
    17.0200       228
    17.0400       218
    17.0600       212
    17.0800       204
    17.1000       220
    17.1200       238
    17.1400       224
    17.1600       220
    17.1800       238
    17.2000       226
    17.2200       204
    17.2400       246
    17.2600       226
    17.2800       218
    17.3000       208
    17.3200       218
    17.3400       236
    17.3600       208
    17.3800       190
    17.4000       190
    17.4200       224
    17.4400       202
    17.4600       232
    17.4800       212
    17.5000       212
    17.5200       216
    17.5400       194
    17.5600       228
    17.5800       194
    17.6000       208
    17.6200       208
    17.6400       210
    17.6600       212
    17.6800       216
    17.7000       200
    17.7200       192
    17.7400       228
    17.7600       208
    17.7800       202
    17.8000       200
    17.8200       202
    17.8400       210
    17.8600       244
    17.8800       186
    17.9000       208
    17.9200       204
    17.9400       206
    17.9600       176
    17.9800       228
    18.0000       222
    18.0200       212
    18.0400       226
    18.0600       212
    18.0800       190
    18.1000       242
    18.1200       194
    18.1400       210
    18.1600       180
    18.1800       206
    18.2000       206
    18.2200       204
    18.2400       196
    18.2600       202
    18.2800       222
    18.3000       240
    18.3200       232
    18.3400       218
    18.3600       216
    18.3800       240
    18.4000       224
    18.4200       240
    18.4400       228
    18.4600       214
    18.4800       280
    18.5000       202
    18.5200       222
    18.5400       238
    18.5600       258
    18.5800       248
    18.6000       254
    18.6200       270
    18.6400       286
    18.6600       248
    18.6800       276
    18.7000       360
    18.7200       324
    18.7400       312
    18.7600       344
    18.7800       364
    18.8000       412
    18.8200       428
    18.8400       494
    18.8600       458
    18.8800       464
    18.9000       498
    18.9200       516
    18.9400       566
    18.9600       562
    18.9800       558
    19.0000       542
    19.0200       510
    19.0400       520
    19.0600       518
    19.0800       490
    19.1000       484
    19.1200       478
    19.1400       512
    19.1600       538
    19.1800       566
    19.2000       612
    19.2200       674
    19.2400       704
    19.2600       796
    19.2800       840
    19.3000       960
    19.3200      1130
    19.3400      1266
    19.3600      1440
    19.3800      1696
    19.4000      1898
    19.4200      2220
    19.4400      2524
    19.4600      2930
    19.4800      3372
    19.5000      3724
    19.5200      3786
    19.5400      3980
    19.5600      3688
    19.5800      3436
    19.6000      2868
    19.6200      2408
    19.6400      1906
    19.6600      1660
    19.6800      1432
    19.7000      1276
    19.7200      1234
    19.7400      1134
    19.7600      1158
    19.7800      1324
    19.8000      1368
    19.8200      1568
    19.8400      1704
    19.8600      1878
    19.8800      2172
    19.9000      2262
    19.9200      2568
    19.9400      2786
    19.9600      2844
    19.9800      2916
    20.0000      2950
    20.0200      2694
    20.0400      2376
    20.0600      1844
    20.0800      1548
    20.1000      1238
    20.1200       994
    20.1400       798
    20.1600       720
    20.1800       644
    20.2000       514
    20.2200       458
    20.2400       454
    20.2600       438
    20.2800       350
    20.3000       346
    20.3200       350
    20.3400       330
    20.3600       304
    20.3800       290
    20.4000       284
    20.4200       300
    20.4400       238
    20.4600       266
    20.4800       272
    20.5000       258
    20.5200       262
    20.5400       248
    20.5600       230
    20.5800       222
    20.6000       246
    20.6200       252
    20.6400       244
    20.6600       248
    20.6800       264
    20.7000       248
    20.7200       230
    20.7400       246
    20.7600       242
    20.7800       250
    20.8000       248
    20.8200       246
    20.8400       254
    20.8600       240
    20.8800       256
    20.9000       198
    20.9200       260
    20.9400       256
    20.9600       282
    20.9800       224
    21.0000       252
    21.0200       246
    21.0400       258
    21.0600       256
    21.0800       204
    21.1000       240
    21.1200       204
    21.1400       210
    21.1600       260
    21.1800       220
    21.2000       202
    21.2200       212
    21.2400       220
    21.2600       208
    21.2800       210
    21.3000       236
    21.3200       188
    21.3400       210
    21.3600       188
    21.3800       214
    21.4000       178
    21.4200       208
    21.4400       206
    21.4600       174
    21.4800       218
    21.5000       208
    21.5200       188
    21.5400       232
    21.5600       188
    21.5800       212
    21.6000       200
    21.6200       224
    21.6400       210
    21.6600       208
    21.6800       204
    21.7000       206
    21.7200       226
    21.7400       226
    21.7600       218
    21.7800       226
    21.8000       218
    21.8200       192
    21.8400       260
    21.8600       250
    21.8800       226
    21.9000       274
    21.9200       264
    21.9400       244
    21.9600       240
    21.9800       230
    22.0000       270
    22.0200       232
    22.0400       244
    22.0600       212
    22.0800       220
    22.1000       238
    22.1200       234
    22.1400       246
    22.1600       220
    22.1800       234
    22.2000       256
    22.2200       250
    22.2400       258
    22.2600       258
    22.2800       326
    22.3000       258
    22.3200       280
    22.3400       330
    22.3600       308
    22.3800       368
    22.4000       374
    22.4200       394
    22.4400       470
    22.4600       464
    22.4800       504
    22.5000       590
    22.5200       604
    22.5400       760
    22.5600       800
    22.5800       960
    22.6000      1062
    22.6200      1238
    22.6400      1340
    22.6600      1532
    22.6800      1900
    22.7000      2154
    22.7200      2650
    22.7400      3000
    22.7600      3470
    22.7800      3960
    22.8000      4572
    22.8200      4906
    22.8400      5214
    22.8600      5104
    22.8800      4838
    22.9000      4502
    22.9200      3842
    22.9400      3056
    22.9600      2344
    22.9800      1952
    23.0000      1462
    23.0200      1212
    23.0400       986
    23.0600       886
    23.0800       764
    23.1000       600
    23.1200       612
    23.1400       560
    23.1600       452
    23.1800       430
    23.2000       414
    23.2200       384
    23.2400       358
    23.2600       336
    23.2800       340
    23.3000       310
    23.3200       304
    23.3400       282
    23.3600       270
    23.3800       238
    23.4000       254
    23.4200       252
    23.4400       258
    23.4600       226
    23.4800       226
    23.5000       216
    23.5200       234
    23.5400       236
    23.5600       210
    23.5800       234
    23.6000       206
    23.6200       178
    23.6400       206
    23.6600       224
    23.6800       188
    23.7000       192
    23.7200       190
    23.7400       184
    23.7600       188
    23.7800       200
    23.8000       202
    23.8200       204
    23.8400       202
    23.8600       222
    23.8800       168
    23.9000       202
    23.9200       190
    23.9400       186
    23.9600       214
    23.9800       202
    24.0000       192
    24.0200       216
    24.0400       164
    24.0600       170
    24.0800       178
    24.1000       168
    24.1200       190
    24.1400       208
    24.1600       160
    24.1800       178
    24.2000       184
    24.2200       182
    24.2400       170
    24.2600       188
    24.2800       178
    24.3000       200
    24.3200       210
    24.3400       186
    24.3600       178
    24.3800       198
    24.4000       198
    24.4200       192
    24.4400       220
    24.4600       204
    24.4800       208
    24.5000       200
    24.5200       190
    24.5400       224
    24.5600       202
    24.5800       198
    24.6000       218
    24.6200       198
    24.6400       172
    24.6600       204
    24.6800       172
    24.7000       194
    24.7200       176
    24.7400       196
    24.7600       194
    24.7800       192
    24.8000       202
    24.8200       210
    24.8400       204
    24.8600       188
    24.8800       226
    24.9000       208
    24.9200       188
    24.9400       202
    24.9600       202
    24.9800       210
    25.0000       210
    25.0200       210
    25.0400       206
    25.0600       218
    25.0800       218
    25.1000       230
    25.1200       214
    25.1400       224
    25.1600       254
    25.1800       244
    25.2000       294
    25.2200       278
    25.2400       264
    25.2600       356
    25.2800       294
    25.3000       352
    25.3200       352
    25.3400       352
    25.3600       426
    25.3800       438
    25.4000       482
    25.4200       532
    25.4400       624
    25.4600       700
    25.4800       760
    25.5000       926
    25.5200       958
    25.5400      1036
    25.5600      1190
    25.5800      1204
    25.6000      1186
    25.6200      1166
    25.6400      1030
    25.6600      1004
    25.6800       830
    25.7000       736
    25.7200       638
    25.7400       504
    25.7600       450
    25.7800       398
    25.8000       362
    25.8200       344
    25.8400       314
    25.8600       328
    25.8800       300
    25.9000       288
    25.9200       266
    25.9400       250
    25.9600       258
    25.9800       254
    26.0000       226
    26.0200       222
    26.0400       212
    26.0600       214
    26.0800       210
    26.1000       214
    26.1200       198
    26.1400       218
    26.1600       184
    26.1800       190
    26.2000       234
    26.2200       242
    26.2400       170
    26.2600       218
    26.2800       206
    26.3000       190
    26.3200       188
    26.3400       206
    26.3600       208
    26.3800       186
    26.4000       168
    26.4200       178
    26.4400       204
    26.4600       202
    26.4800       196
    26.5000       206
    26.5200       186
    26.5400       190
    26.5600       172
    26.5800       192
    26.6000       200
    26.6200       180
    26.6400       178
    26.6600       178
    26.6800       224
    26.7000       202
    26.7200       200
    26.7400       212
    26.7600       170
    26.7800       202
    26.8000       198
    26.8200       204
    26.8400       178
    26.8600       202
    26.8800       204
    26.9000       202
    26.9200       186
    26.9400       186
    26.9600       200
    26.9800       192
    27.0000       212
    27.0200       206
    27.0400       224
    27.0600       198
    27.0800       174
    27.1000       194
    27.1200       188
    27.1400       208
    27.1600       184
    27.1800       216
    27.2000       194
    27.2200       190
    27.2400       188
    27.2600       192
    27.2800       196
    27.3000       196
    27.3200       194
    27.3400       198
    27.3600       204
    27.3800       202
    27.4000       200
    27.4200       188
    27.4400       210
    27.4600       218
    27.4800       222
    27.5000       226
    27.5200       246
    27.5400       222
    27.5600       248
    27.5800       230
    27.6000       262
    27.6200       234
    27.6400       284
    27.6600       256
    27.6800       254
    27.7000       280
    27.7200       278
    27.7400       308
    27.7600       320
    27.7800       320
    27.8000       322
    27.8200       352
    27.8400       394
    27.8600       454
    27.8800       450
    27.9000       498
    27.9200       592
    27.9400       594
    27.9600       716
    27.9800       770
    28.0000       890
    28.0200      1032
    28.0400      1186
    28.0600      1348
    28.0800      1520
    28.1000      1846
    28.1200      2152
    28.1400      2556
    28.1600      2960
    28.1800      3382
    28.2000      3958
    28.2200      4204
    28.2400      4642
    28.2600      4570
    28.2800      4488
    28.3000      4096
    28.3200      3698
    28.3400      3200
    28.3600      2696
    28.3800      2236
    28.4000      1774
    28.4200      1438
    28.4400      1176
    28.4600       972
    28.4800       886
    28.5000       688
    28.5200       672
    28.5400       574
    28.5600       544
    28.5800       486
    28.6000       410
    28.6200       392
    28.6400       346
    28.6600       346
    28.6800       312
    28.7000       342
    28.7200       306
    28.7400       302
    28.7600       264
    28.7800       268
    28.8000       292
    28.8200       252
    28.8400       244
    28.8600       216
    28.8800       212
    28.9000       222
    28.9200       248
    28.9400       238
    28.9600       196
    28.9800       202
    29.0000       224
    29.0200       208
    29.0400       206
    29.0600       216
    29.0800       234
    29.1000       208
    29.1200       206
    29.1400       206
    29.1600       198
    29.1800       200
    29.2000       212
    29.2200       202
    29.2400       186
    29.2600       178
    29.2800       188
    29.3000       184
    29.3200       196
    29.3400       222
    29.3600       176
    29.3800       182
    29.4000       176
    29.4200       222
    29.4400       178
    29.4600       218
    29.4800       196
    29.5000       224
    29.5200       200
    29.5400       200
    29.5600       198
    29.5800       186
    29.6000       218
    29.6200       212
    29.6400       224
    29.6600       178
    29.6800       196
    29.7000       214
    29.7200       178
    29.7400       216
    29.7600       218
    29.7800       218
    29.8000       202
    29.8200       204
    29.8400       206
    29.8600       226
    29.8800       256
    29.9000       196
    29.9200       218
    29.9400       204
    29.9600       216
    29.9800       188
    30.0000       220
    30.0200       208
    30.0400       196
    30.0600       190
    30.0800       226
    30.1000       210
    30.1200       228
    30.1400       248
    30.1600       254
    30.1800       226
    30.2000       236
    30.2200       236
    30.2400       212
    30.2600       222
    30.2800       246
    30.3000       216
    30.3200       228
    30.3400       222
    30.3600       222
    30.3800       248
    30.4000       244
    30.4200       260
    30.4400       284
    30.4600       290
    30.4800       242
    30.5000       240
    30.5200       264
    30.5400       286
    30.5600       286
    30.5800       264
    30.6000       316
    30.6200       322
    30.6400       308
    30.6600       368
    30.6800       314
    30.7000       334
    30.7200       352
    30.7400       336
    30.7600       328
    30.7800       360
    30.8000       380
    30.8200       406
    30.8400       434
    30.8600       460
    30.8800       488
    30.9000       472
    30.9200       504
    30.9400       580
    30.9600       584
    30.9800       652
    31.0000       742
    31.0200       774
    31.0400       872
    31.0600      1004
    31.0800      1030
    31.1000      1114
    31.1200      1200
    31.1400      1284
    31.1600      1382
    31.1800      1370
    31.2000      1400
    31.2200      1440
    31.2400      1386
    31.2600      1334
    31.2800      1290
    31.3000      1322
    31.3200      1148
    31.3400      1138
    31.3600      1070
    31.3800       950
    31.4000       868
    31.4200       808
    31.4400       738
    31.4600       672
    31.4800       718
    31.5000       636
    31.5200       632
    31.5400       620
    31.5600       632
    31.5800       626
    31.6000       602
    31.6200       686
    31.6400       672
    31.6600       684
    31.6800       748
    31.7000       772
    31.7200       878
    31.7400       954
    31.7600      1012
    31.7800      1148
    31.8000      1296
    31.8200      1500
    31.8400      1626
    31.8600      1940
    31.8800      2092
    31.9000      2446
    31.9200      2598
    31.9400      2768
    31.9600      2936
    31.9800      3124
    32.0000      3018
    32.0200      3052
    32.0400      2804
    32.0600      2566
    32.0800      2384
    32.1000      2224
    32.1200      2048
    32.1400      1782
    32.1600      1792
    32.1800      1738
    32.2000      1632
    32.2200      1746
    32.2400      1892
    32.2600      1934
    32.2800      2182
    32.3000      2356
    32.3200      2730
    32.3400      3156
    32.3600      3406
    32.3800      4108
    32.4000      4724
    32.4200      5296
    32.4400      6090
    32.4600      7122
    32.4800      7784
    32.5000      8366
    32.5200      8862
    32.5400      8950
    32.5600      9006
    32.5800      8772
    32.6000      8092
    32.6200      7182
    32.6400      6386
    32.6600      5514
    32.6800      4846
    32.7000      3996
    32.7200      3390
    32.7400      2892
    32.7600      2466
    32.7800      2198
    32.8000      1918
    32.8200      1800
    32.8400      1668
    32.8600      1560
    32.8800      1474
    32.9000      1558
    32.9200      1388
    32.9400      1448
    32.9600      1498
    32.9800      1622
    33.0000      1680
    33.0200      1814
    33.0400      1830
    33.0600      1916
    33.0800      1950
    33.1000      1910
    33.1200      1860
    33.1400      1722
    33.1600      1520
    33.1800      1404
    33.2000      1196
    33.2200      1080
    33.2400       970
    33.2600       868
    33.2800       754
    33.3000       648
    33.3200       558
    33.3400       526
    33.3600       512
    33.3800       454
    33.4000       424
    33.4200       382
    33.4400       416
    33.4600       426
    33.4800       370
    33.5000       368
    33.5200       342
    33.5400       318
    33.5600       330
    33.5800       288
    33.6000       284
    33.6200       272
    33.6400       276
    33.6600       282
    33.6800       278
    33.7000       272
    33.7200       270
    33.7400       270
    33.7600       276
    33.7800       256
    33.8000       252
    33.8200       230
    33.8400       262
    33.8600       244
    33.8800       252
    33.9000       266
    33.9200       258
    33.9400       280
    33.9600       310
    33.9800       254
    34.0000       274
    34.0200       278
    34.0400       328
    34.0600       282
    34.0800       284
    34.1000       306
    34.1200       322
    34.1400       326
    34.1600       312
    34.1800       328
    34.2000       296
    34.2200       342
    34.2400       340
    34.2600       326
    34.2800       338
    34.3000       342
    34.3200       304
    34.3400       312
    34.3600       316
    34.3800       340
    34.4000       304
    34.4200       348
    34.4400       332
    34.4600       280
    34.4800       306
    34.5000       316
    34.5200       308
    34.5400       280
    34.5600       314
    34.5800       328
    34.6000       278
    34.6200       326
    34.6400       292
    34.6600       282
    34.6800       308
    34.7000       270
    34.7200       250
    34.7400       266
    34.7600       308
    34.7800       278
    34.8000       274
    34.8200       256
    34.8400       252
    34.8600       270
    34.8800       272
    34.9000       280
    34.9200       272
    34.9400       250
    34.9600       276
    34.9800       246
    35.0000       256
    35.0200       274
    35.0400       258
    35.0600       242
    35.0800       266
    35.1000       266
    35.1200       258
    35.1400       260
    35.1600       282
    35.1800       276
    35.2000       292
    35.2200       240
    35.2400       242
    35.2600       242
    35.2800       262
    35.3000       266
    35.3200       262
    35.3400       258
    35.3600       258
    35.3800       262
    35.4000       264
    35.4200       304
    35.4400       300
    35.4600       306
    35.4800       316
    35.5000       274
    35.5200       320
    35.5400       300
    35.5600       324
    35.5800       372
    35.6000       362
    35.6200       358
    35.6400       394
    35.6600       364
    35.6800       356
    35.7000       380
    35.7200       346
    35.7400       404
    35.7600       406
    35.7800       396
    35.8000       360
    35.8200       414
    35.8400       418
    35.8600       388
    35.8800       408
    35.9000       454
    35.9200       458
    35.9400       454
    35.9600       484
    35.9800       498
    36.0000       512
    36.0200       590
    36.0400       652
    36.0600       678
    36.0800       746
    36.1000       746
    36.1200       812
    36.1400       800
    36.1600       786
    36.1800       792
    36.2000       740
    36.2200       682
    36.2400       656
    36.2600       594
    36.2800       602
    36.3000       524
    36.3200       458
    36.3400       490
    36.3600       438
    36.3800       412
    36.4000       450
    36.4200       404
    36.4400       410
    36.4600       470
    36.4800       494
    36.5000       508
    36.5200       556
    36.5400       550
    36.5600       518
    36.5800       582
    36.6000       618
    36.6200       690
    36.6400       748
    36.6600       754
    36.6800       884
    36.7000      1014
    36.7200      1088
    36.7400      1216
    36.7600      1358
    36.7800      1584
    36.8000      1746
    36.8200      1864
    36.8400      2104
    36.8600      2186
    36.8800      2296
    36.9000      2308
    36.9200      2172
    36.9400      2094
    36.9600      1966
    36.9800      1846
    37.0000      1732
    37.0200      1468
    37.0400      1300
    37.0600      1320
    37.0800      1110
    37.1000      1006
    37.1200       948
    37.1400       886
    37.1600       854
    37.1800       704
    37.2000       680
    37.2200       688
    37.2400       658
    37.2600       610
    37.2800       548
    37.3000       562
    37.3200       542
    37.3400       534
    37.3600       520
    37.3800       478
    37.4000       492
    37.4200       454
    37.4400       450
    37.4600       498
    37.4800       476
    37.5000       464
    37.5200       442
    37.5400       472
    37.5600       472
    37.5800       524
    37.6000       460
    37.6200       544
    37.6400       550
    37.6600       584
    37.6800       586
    37.7000       610
    37.7200       700
    37.7400       716
    37.7600       720
    37.7800       840
    37.8000       910
    37.8200      1004
    37.8400      1096
    37.8600      1244
    37.8800      1370
    37.9000      1586
    37.9200      1838
    37.9400      1944
    37.9600      2144
    37.9800      2300
    38.0000      2412
    38.0200      2448
    38.0400      2454
    38.0600      2362
    38.0800      2372
    38.1000      2240
    38.1200      2188
    38.1400      2240
    38.1600      2066
    38.1800      1978
    38.2000      1950
    38.2200      2050
    38.2400      2032
    38.2600      2212
    38.2800      2464
    38.3000      2564
    38.3200      2858
    38.3400      3180
    38.3600      3558
    38.3800      3778
    38.4000      4222
    38.4200      4602
    38.4400      5030
    38.4600      5294
    38.4800      5234
    38.5000      5260
    38.5200      5118
    38.5400      5228
    38.5600      5010
    38.5800      4994
    38.6000      4800
    38.6200      4718
    38.6400      4616
    38.6600      4552
    38.6800      4350
    38.7000      4392
    38.7200      4276
    38.7400      4030
    38.7600      3824
    38.7800      3584
    38.8000      3302
    38.8200      3018
    38.8400      2744
    38.8600      2550
    38.8800      2194
    38.9000      2042
    38.9200      1766
    38.9400      1554
    38.9600      1410
    38.9800      1236
    39.0000      1104
    39.0200      1044
    39.0400       968
    39.0600       942
    39.0800       838
    39.1000       820
    39.1200       792
    39.1400       766
    39.1600       764
    39.1800       770
    39.2000       696
    39.2200       660
    39.2400       710
    39.2600       714
    39.2800       666
    39.3000       644
    39.3200       696
    39.3400       750
    39.3600       724
    39.3800       800
    39.4000       828
    39.4200       858
    39.4400       962
    39.4600       976
    39.4800      1054
    39.5000      1140
    39.5200      1322
    39.5400      1498
    39.5600      1620
    39.5800      1822
    39.6000      2002
    39.6200      2198
    39.6400      2420
    39.6600      2570
    39.6800      2614
    39.7000      2632
    39.7200      2540
    39.7400      2448
    39.7600      2234
    39.7800      1998
    39.8000      1808
    39.8200      1652
    39.8400      1490
    39.8600      1252
    39.8800      1130
    39.9000      1016
    39.9200       858
    39.9400       778
    39.9600       682
    39.9800       678
    40.0000       620
    40.0200       608
    40.0400       576
    40.0600       512
    40.0800       552
    40.1000       528
    40.1200       512
    40.1400       534
    40.1600       474
    40.1800       516
    40.2000       530
    40.2200       516
    40.2400       574
    40.2600       564
    40.2800       626
    40.3000       606
    40.3200       646
    40.3400       686
    40.3600       688
    40.3800       762
    40.4000       770
    40.4200       868
    40.4400       966
    40.4600      1062
    40.4800      1104
    40.5000      1158
    40.5200      1326
    40.5400      1368
    40.5600      1396
    40.5800      1378
    40.6000      1426
    40.6200      1366
    40.6400      1352
    40.6600      1272
    40.6800      1266
    40.7000      1162
    40.7200      1002
    40.7400       996
    40.7600       930
    40.7800       834
    40.8000       744
    40.8200       704
    40.8400       614
    40.8600       580
    40.8800       574
    40.9000       524
    40.9200       468
    40.9400       440
    40.9600       470
    40.9800       436
    41.0000       446
    41.0200       386
    41.0400       378
    41.0600       402
    41.0800       382
    41.1000       392
    41.1200       356
    41.1400       356
    41.1600       352
    41.1800       388
    41.2000       358
    41.2200       342
    41.2400       396
    41.2600       350
    41.2800       380
    41.3000       396
    41.3200       378
    41.3400       382
    41.3600       386
    41.3800       444
    41.4000       414
    41.4200       398
    41.4400       426
    41.4600       450
    41.4800       472
    41.5000       506
    41.5200       542
    41.5400       504
    41.5600       572
    41.5800       630
    41.6000       628
    41.6200       666
    41.6400       756
    41.6600       784
    41.6800       848
    41.7000      1004
    41.7200      1080
    41.7400      1208
    41.7600      1398
    41.7800      1484
    41.8000      1718
    41.8200      1740
    41.8400      1838
    41.8600      1994
    41.8800      1974
    41.9000      1934
    41.9200      2002
    41.9400      1896
    41.9600      1748
    41.9800      1750
    42.0000      1518
    42.0200      1396
    42.0400      1292
    42.0600      1120
    42.0800      1080
    42.1000       872
    42.1200       906
    42.1400       732
    42.1600       702
    42.1800       650
    42.2000       566
    42.2200       550
    42.2400       542
    42.2600       520
    42.2800       488
    42.3000       446
    42.3200       426
    42.3400       462
    42.3600       436
    42.3800       402
    42.4000       400
    42.4200       388
    42.4400       400
    42.4600       392
    42.4800       384
    42.5000       366
    42.5200       390
    42.5400       374
    42.5600       350
    42.5800       400
    42.6000       396
    42.6200       402
    42.6400       352
    42.6600       392
    42.6800       420
    42.7000       402
    42.7200       372
    42.7400       446
    42.7600       428
    42.7800       456
    42.8000       546
    42.8200       522
    42.8400       504
    42.8600       578
    42.8800       600
    42.9000       608
    42.9200       680
    42.9400       726
    42.9600       756
    42.9800       842
    43.0000       894
    43.0200       968
    43.0400      1158
    43.0600      1222
    43.0800      1432
    43.1000      1480
    43.1200      1632
    43.1400      1774
    43.1600      1904
    43.1800      1988
    43.2000      1924
    43.2200      1924
    43.2400      1904
    43.2600      1944
    43.2800      1640
    43.3000      1500
    43.3200      1398
    43.3400      1298
    43.3600      1192
    43.3800      1056
    43.4000       934
    43.4200       828
    43.4400       800
    43.4600       760
    43.4800       684
    43.5000       628
    43.5200       580
    43.5400       560
    43.5600       592
    43.5800       566
    43.6000       564
    43.6200       618
    43.6400       618
    43.6600       608
    43.6800       594
    43.7000       656
    43.7200       682
    43.7400       688
    43.7600       720
    43.7800       774
    43.8000       808
    43.8200       784
    43.8400       812
    43.8600       756
    43.8800       688
    43.9000       770
    43.9200       696
    43.9400       672
    43.9600       718
    43.9800       548
    44.0000       606
    44.0200       576
    44.0400       534
    44.0600       534
    44.0800       500
    44.1000       512
    44.1200       460
    44.1400       476
    44.1600       444
    44.1800       424
    44.2000       478
    44.2200       460
    44.2400       492
    44.2600       466
    44.2800       472
    44.3000       436
    44.3200       488
    44.3400       522
    44.3600       530
    44.3800       494
    44.4000       552
    44.4200       682
    44.4400       620
    44.4600       668
    44.4800       636
    44.5000       748
    44.5200       764
    44.5400       888
    44.5600       838
    44.5800       942
    44.6000       978
    44.6200      1028
    44.6400      1042
    44.6600      1108
    44.6800      1106
    44.7000      1178
    44.7200      1128
    44.7400      1216
    44.7600      1238
    44.7800      1188
    44.8000      1108
    44.8200      1102
    44.8400      1068
    44.8600      1094
    44.8800       998
    44.9000      1002
    44.9200       986
    44.9400       862
    44.9600       894
    44.9800       840
    45.0000       748
    45.0200       700
    45.0400       652
    45.0600       598
    45.0800       604
    45.1000       616
    45.1200       566
    45.1400       510
    45.1600       534
    45.1800       536
    45.2000       504
    45.2200       478
    45.2400       484
    45.2600       456
    45.2800       468
    45.3000       464
    45.3200       430
    45.3400       484
    45.3600       464
    45.3800       418
    45.4000       432
    45.4200       424
    45.4400       464
    45.4600       456
    45.4800       422
    45.5000       426
    45.5200       464
    45.5400       484
    45.5600       482
    45.5800       458
    45.6000       438
    45.6200       508
    45.6400       512
    45.6600       546
    45.6800       502
    45.7000       558
    45.7200       566
    45.7400       564
    45.7600       580
    45.7800       596
    45.8000       656
    45.8200       610
    45.8400       604
    45.8600       628
    45.8800       618
    45.9000       680
    45.9200       692
    45.9400       672
    45.9600       652
    45.9800       678
    46.0000       672
    46.0200       688
    46.0400       652
    46.0600       688
    46.0800       814
    46.1000       732
    46.1200       792
    46.1400       844
    46.1600       858
    46.1800       908
    46.2000       910
    46.2200      1030
    46.2400       978
    46.2600      1198
    46.2800      1220
    46.3000      1322
    46.3200      1380
    46.3400      1532
    46.3600      1668
    46.3800      1898
    46.4000      2080
    46.4200      2294
    46.4400      2528
    46.4600      2814
    46.4800      3332
    46.5000      3662
    46.5200      4018
    46.5400      4626
    46.5600      5248
    46.5800      6020
    46.6000      6694
    46.6200      7372
    46.6400      8012
    46.6600      8558
    46.6800      9058
    46.7000      9172
    46.7200      9220
    46.7400      9242
    46.7600      8922
    46.7800      8602
    46.8000      8392
    46.8200      7854
    46.8400      7660
    46.8600      7258
    46.8800      6772
    46.9000      6498
    46.9200      6480
    46.9400      6226
    46.9600      6080
    46.9800      5916
    47.0000      5616
    47.0200      5472
    47.0400      5094
    47.0600      4668
    47.0800      4314
    47.1000      3944
    47.1200      3592
    47.1400      3272
    47.1600      2988
    47.1800      2634
    47.2000      2332
    47.2200      2130
    47.2400      1870
    47.2600      1748
    47.2800      1508
    47.3000      1352
    47.3200      1290
    47.3400      1082
    47.3600      1100
    47.3800      1020
    47.4000       924
    47.4200       930
    47.4400       844
    47.4600       802
    47.4800       750
    47.5000       670
    47.5200       704
    47.5400       670
    47.5600       674
    47.5800       704
    47.6000       664
    47.6200       650
    47.6400       680
    47.6600       662
    47.6800       676
    47.7000       716
    47.7200       764
    47.7400       810
    47.7600       854
    47.7800       838
    47.8000       838
    47.8200       912
    47.8400       926
    47.8600       948
    47.8800       828
    47.9000       842
    47.9200       818
    47.9400       838
    47.9600       798
    47.9800       782
    48.0000       772
    48.0200       710
    48.0400       744
    48.0600       746
    48.0800       762
    48.1000       762
    48.1200       774
    48.1400       806
    48.1600       872
    48.1800       822
    48.2000       872
    48.2200       862
    48.2400       800
    48.2600       820
    48.2800       808
    48.3000       790
    48.3200       752
    48.3400       726
    48.3600       672
    48.3800       612
    48.4000       614
    48.4200       516
    48.4400       520
    48.4600       488
    48.4800       446
    48.5000       404
    48.5200       378
    48.5400       372
    48.5600       374
    48.5800       390
    48.6000       344
    48.6200       338
    48.6400       332
    48.6600       346
    48.6800       304
    48.7000       310
    48.7200       324
    48.7400       310
    48.7600       360
    48.7800       304
    48.8000       292
    48.8200       306
    48.8400       312
    48.8600       318
    48.8800       296
    48.9000       300
    48.9200       316
    48.9400       282
    48.9600       282
    48.9800       294
    49.0000       286
    49.0200       280
    49.0400       278
    49.0600       280
    49.0800       328
    49.1000       314
    49.1200       284
    49.1400       294
    49.1600       278
    49.1800       266
    49.2000       260
    49.2200       282
    49.2400       280
    49.2600       266
    49.2800       252
    49.3000       258
    49.3200       278
    49.3400       230
    49.3600       268
    49.3800       240
    49.4000       258
    49.4200       248
    49.4400       264
    49.4600       266
    49.4800       262
    49.5000       236
    49.5200       270
    49.5400       282
    49.5600       298
    49.5800       264
    49.6000       290
    49.6200       286
    49.6400       252
    49.6600       290
    49.6800       290
    49.7000       284
    49.7200       268
    49.7400       250
    49.7600       262
    49.7800       294
    49.8000       268
    49.8200       260
    49.8400       260
    49.8600       278
    49.8800       270
    49.9000       264
    49.9200       262
    49.9400       300
    49.9600       228
    49.9800       240
    50.0000       280
    50.0200       250
    50.0400       264
    50.0600       280
    50.0800       246
    50.1000       266
    50.1200       262
    50.1400       288
    50.1600       256
    50.1800       290
    50.2000       292
    50.2200       302
    50.2400       312
    50.2600       306
    50.2800       300
    50.3000       306
    50.3200       330
    50.3400       298
    50.3600       308
    50.3800       328
    50.4000       340
    50.4200       308
    50.4400       322
    50.4600       302
    50.4800       316
    50.5000       334
    50.5200       290
    50.5400       302
    50.5600       294
    50.5800       336
    50.6000       346
    50.6200       344
    50.6400       402
    50.6600       376
    50.6800       428
    50.7000       396
    50.7200       528
    50.7400       484
    50.7600       514
    50.7800       542
    50.8000       566
    50.8200       624
    50.8400       654
    50.8600       646
    50.8800       680
    50.9000       728
    50.9200       752
    50.9400       660
    50.9600       696
    50.9800       690
    51.0000       730
    51.0200       700
    51.0400       590
    51.0600       604
    51.0800       608
    51.1000       588
    51.1200       558
    51.1400       526
    51.1600       524
    51.1800       518
    51.2000       550
    51.2200       494
    51.2400       538
    51.2600       552
    51.2800       560
    51.3000       568
    51.3200       592
    51.3400       616
    51.3600       644
    51.3800       592
    51.4000       674
    51.4200       660
    51.4400       658
    51.4600       718
    51.4800       702
    51.5000       632
    51.5200       700
    51.5400       640
    51.5600       622
    51.5800       640
    51.6000       682
    51.6200       720
    51.6400       710
    51.6600       644
    51.6800       696
    51.7000       724
    51.7200       766
    51.7400       832
    51.7600       864
    51.7800       892
    51.8000       928
    51.8200       952
    51.8400       982
    51.8600      1042
    51.8800      1030
    51.9000       980
    51.9200      1052
    51.9400      1008
    51.9600      1012
    51.9800       936
    52.0000       918
    52.0200       918
    52.0400       908
    52.0600       828
    52.0800       826
    52.1000       792
    52.1200       770
    52.1400       740
    52.1600       742
    52.1800       640
    52.2000       694
    52.2200       680
    52.2400       656
    52.2600       634
    52.2800       702
    52.3000       702
    52.3200       730
    52.3400       710
    52.3600       772
    52.3800       780
    52.4000       822
    52.4200       970
    52.4400      1030
    52.4600      1116
    52.4800      1166
    52.5000      1268
    52.5200      1264
    52.5400      1428
    52.5600      1392
    52.5800      1484
    52.6000      1474
    52.6200      1442
    52.6400      1504
    52.6600      1496
    52.6800      1480
    52.7000      1392
    52.7200      1382
    52.7400      1316
    52.7600      1184
    52.7800      1104
    52.8000      1100
    52.8200      1016
    52.8400       950
    52.8600       898
    52.8800       886
    52.9000       860
    52.9200       862
    52.9400       862
    52.9600       842
    52.9800       944
    53.0000       842
    53.0200       942
    53.0400       990
    53.0600      1046
    53.0800      1106
    53.1000      1222
    53.1200      1166
    53.1400      1318
    53.1600      1526
    53.1800      1578
    53.2000      1662
    53.2200      1852
    53.2400      1856
    53.2600      1844
    53.2800      1894
    53.3000      1788
    53.3200      1708
    53.3400      1670
    53.3600      1506
    53.3800      1554
    53.4000      1412
    53.4200      1254
    53.4400      1194
    53.4600      1150
    53.4800      1034
    53.5000       860
    53.5200       792
    53.5400       724
    53.5600       648
    53.5800       644
    53.6000       564
    53.6200       592
    53.6400       522
    53.6600       432
    53.6800       428
    53.7000       444
    53.7200       424
    53.7400       430
    53.7600       338
    53.7800       374
    53.8000       352
    53.8200       318
    53.8400       348
    53.8600       346
    53.8800       298
    53.9000       306
    53.9200       320
    53.9400       302
    53.9600       300
    53.9800       284
    54.0000       252
    54.0200       302
    54.0400       304
    54.0600       308
    54.0800       290
    54.1000       284
    54.1200       288
    54.1400       288
    54.1600       292
    54.1800       296
    54.2000       336
    54.2200       348
    54.2400       326
    54.2600       332
    54.2800       348
    54.3000       344
    54.3200       330
    54.3400       342
    54.3600       394
    54.3800       366
    54.4000       410
    54.4200       424
    54.4400       430
    54.4600       408
    54.4800       478
    54.5000       514
    54.5200       550
    54.5400       522
    54.5600       570
    54.5800       678
    54.6000       616
    54.6200       680
    54.6400       718
    54.6600       686
    54.6800       776
    54.7000       812
    54.7200       788
    54.7400       758
    54.7600       812
    54.7800       870
    54.8000       832
    54.8200       818
    54.8400       740
    54.8600       774
    54.8800       720
    54.9000       674
    54.9200       616
    54.9400       560
    54.9600       588
    54.9800       536
    55.0000       514
    55.0200       498
    55.0400       492
    55.0600       416
    55.0800       468
    55.1000       492
    55.1200       422
    55.1400       462
    55.1600       454
    55.1800       404
    55.2000       418
    55.2200       424
    55.2400       430
    55.2600       426
    55.2800       456
    55.3000       490
    55.3200       532
    55.3400       468
    55.3600       546
    55.3800       560
    55.4000       578
    55.4200       592
    55.4400       676
    55.4600       654
    55.4800       682
    55.5000       712
    55.5200       758
    55.5400       816
    55.5600       876
    55.5800       926
    55.6000       980
    55.6200      1114
    55.6400      1142
    55.6600      1256
    55.6800      1284
    55.7000      1370
    55.7200      1402
    55.7400      1468
    55.7600      1446
    55.7800      1338
    55.8000      1330
    55.8200      1288
    55.8400      1196
    55.8600      1220
    55.8800      1130
    55.9000      1080
    55.9200       984
    55.9400       914
    55.9600       810
    55.9800       774
    56.0000       734
    56.0200       636
    56.0400       578
    56.0600       548
    56.0800       504
    56.1000       482
    56.1200       432
    56.1400       446
    56.1600       404
    56.1800       422
    56.2000       418
    56.2200       382
    56.2400       384
    56.2600       368
    56.2800       362
    56.3000       346
    56.3200       356
    56.3400       352
    56.3600       328
    56.3800       374
    56.4000       346
    56.4200       318
    56.4400       332
    56.4600       336
    56.4800       288
    56.5000       336
    56.5200       336
    56.5400       338
    56.5600       334
    56.5800       338
    56.6000       324
    56.6200       378
    56.6400       338
    56.6600       390
    56.6800       320
    56.7000       384
    56.7200       422
    56.7400       406
    56.7600       400
    56.7800       444
    56.8000       412
    56.8200       382
    56.8400       402
    56.8600       448
    56.8800       460
    56.9000       464
    56.9200       450
    56.9400       498
    56.9600       526
    56.9800       534
    57.0000       580
    57.0200       594
    57.0400       622
    57.0600       662
    57.0800       670
    57.1000       694
    57.1200       804
    57.1400       852
    57.1600       898
    57.1800      1026
    57.2000      1102
    57.2200      1200
    57.2400      1226
    57.2600      1406
    57.2800      1516
    57.3000      1578
    57.3200      1678
    57.3400      1836
    57.3600      1724
    57.3800      1802
    57.4000      1806
    57.4200      1850
    57.4400      1886
    57.4600      1864
    57.4800      1828
    57.5000      1748
    57.5200      1790
    57.5400      1708
    57.5600      1806
    57.5800      1798
    57.6000      1764
    57.6200      1834
    57.6400      1784
    57.6600      1840
    57.6800      1852
    57.7000      1940
    57.7200      1918
    57.7400      1906
    57.7600      1844
    57.7800      1734
    57.8000      1710
    57.8200      1656
    57.8400      1662
    57.8600      1566
    57.8800      1550
    57.9000      1408
    57.9200      1390
    57.9400      1184
    57.9600      1208
    57.9800      1174
    58.0000      1074
    58.0200       994
    58.0400      1032
    58.0600       998
    58.0800       922
    58.1000       994
    58.1200       956
    58.1400       988
    58.1600       994
    58.1800      1084
    58.2000      1090
    58.2200      1102
    58.2400      1150
    58.2600      1278
    58.2800      1270
    58.3000      1384
    58.3200      1538
    58.3400      1582
    58.3600      1626
    58.3800      1704
    58.4000      1896
    58.4200      1926
    58.4400      2050
    58.4600      2244
    58.4800      2326
    58.5000      2400
    58.5200      2556
    58.5400      2646
    58.5600      2844
    58.5800      2804
    58.6000      3006
    58.6200      3026
    58.6400      3226
    58.6600      3260
    58.6800      3462
    58.7000      3448
    58.7200      3472
    58.7400      3506
    58.7600      3482
    58.7800      3450
    58.8000      3500
    58.8200      3144
    58.8400      3176
    58.8600      2942
    58.8800      2912
    58.9000      2682
    58.9200      2520
    58.9400      2324
    58.9600      2204
    58.9800      1932
    59.0000      1908
    59.0200      1806
    59.0400      1570
    59.0600      1386
    59.0800      1358
    59.1000      1174
    59.1200      1066
    59.1400      1050
    59.1600       986
    59.1800       968
    59.2000       896
    59.2200       888
    59.2400       816
    59.2600       752
    59.2800       708
    59.3000       648
    59.3200       650
    59.3400       612
    59.3600       606
    59.3800       542
    59.4000       554
    59.4200       566
    59.4400       546
    59.4600       476
    59.4800       496
    59.5000       472
    59.5200       482
    59.5400       446
    59.5600       420
    59.5800       430
    59.6000       392
    59.6200       402
    59.6400       408
    59.6600       348
    59.6800       388
    59.7000       358
    59.7200       374
    59.7400       336
    59.7600       348
    59.7800       340
    59.8000       358
    59.8200       324
    59.8400       278
    59.8600       334
    59.8800       334
    59.9000       316
    59.9200       318
    59.9400       286
    59.9600       292
    59.9800       272
    60.0000       314
    60.0200       296
    60.0400       258
    60.0600       284
    60.0800       286
    60.1000       266
    60.1200       268
    60.1400       306
    60.1600       280
    60.1800       310
    60.2000       256
    60.2200       240
    60.2400       326
    60.2600       252
    60.2800       244
    60.3000       308
    60.3200       282
    60.3400       254
    60.3600       282
    60.3800       302
    60.4000       286
    60.4200       272
    60.4400       314
    60.4600       274
    60.4800       278
    60.5000       282
    60.5200       270
    60.5400       274
    60.5600       276
    60.5800       262
    60.6000       288
    60.6200       330
    60.6400       264
    60.6600       296
    60.6800       306
    60.7000       294
    60.7200       298
    60.7400       276
    60.7600       278
    60.7800       302
    60.8000       304
    60.8200       366
    60.8400       300
    60.8600       340
    60.8800       378
    60.9000       388
    60.9200       356
    60.9400       368
    60.9600       400
    60.9800       466
    61.0000       420
    61.0200       464
    61.0400       462
    61.0600       476
    61.0800       496
    61.1000       482
    61.1200       548
    61.1400       484
    61.1600       478
    61.1800       500
    61.2000       504
    61.2200       480
    61.2400       474
    61.2600       506
    61.2800       476
    61.3000       498
    61.3200       518
    61.3400       486
    61.3600       518
    61.3800       524
    61.4000       432
    61.4200       516
    61.4400       528
    61.4600       522
    61.4800       576
    61.5000       550
    61.5200       532
    61.5400       536
    61.5600       568
    61.5800       520
    61.6000       552
    61.6200       538
    61.6400       588
    61.6600       532
    61.6800       482
    61.7000       526
    61.7200       512
    61.7400       536
    61.7600       542
    61.7800       468
    61.8000       462
    61.8200       512
    61.8400       524
    61.8600       502
    61.8800       494
    61.9000       520
    61.9200       516
    61.9400       586
    61.9600       566
    61.9800       518
    62.0000       574
    62.0200       530
    62.0400       538
    62.0600       582
    62.0800       614
    62.1000       552
    62.1200       544
    62.1400       584
    62.1600       526
    62.1800       550
    62.2000       590
    62.2200       508
    62.2400       506
    62.2600       516
    62.2800       490
    62.3000       542
    62.3200       502
    62.3400       474
    62.3600       468
    62.3800       448
    62.4000       488
    62.4200       464
    62.4400       408
    62.4600       400
    62.4800       402
    62.5000       406
    62.5200       372
    62.5400       402
    62.5600       334
    62.5800       350
    62.6000       344
    62.6200       334
    62.6400       292
    62.6600       328
    62.6800       298
    62.7000       262
    62.7200       264
    62.7400       286
    62.7600       254
    62.7800       280
    62.8000       248
    62.8200       290
    62.8400       232
    62.8600       270
    62.8800       260
    62.9000       244
    62.9200       222
    62.9400       240
    62.9600       240
    62.9800       258
    63.0000       230
    63.0200       250
    63.0400       208
    63.0600       240
    63.0800       208
    63.1000       240
    63.1200       224
    63.1400       246
    63.1600       252
    63.1800       218
    63.2000       250
    63.2200       240
    63.2400       222
    63.2600       238
    63.2800       268
    63.3000       246
    63.3200       232
    63.3400       242
    63.3600       234
    63.3800       232
    63.4000       230
    63.4200       240
    63.4400       248
    63.4600       268
    63.4800       266
    63.5000       264
    63.5200       276
    63.5400       258
    63.5600       290
    63.5800       304
    63.6000       288
    63.6200       326
    63.6400       326
    63.6600       306
    63.6800       360
    63.7000       332
    63.7200       330
    63.7400       408
    63.7600       392
    63.7800       408
    63.8000       402
    63.8200       472
    63.8400       452
    63.8600       466
    63.8800       450
    63.9000       468
    63.9200       460
    63.9400       416
    63.9600       400
    63.9800       436
    64.0000       400
    64.0200       368
    64.0400       382
    64.0600       374
    64.0800       374
    64.1000       342
    64.1200       346
    64.1400       276
    64.1600       300
    64.1800       298
    64.2000       300
    64.2200       268
    64.2400       280
    64.2600       294
    64.2800       276
    64.3000       270
    64.3200       258
    64.3400       254
    64.3600       248
    64.3800       236
    64.4000       246
    64.4200       264
    64.4400       250
    64.4600       240
    64.4800       266
    64.5000       282
    64.5200       272
    64.5400       334
    64.5600       270
    64.5800       288
    64.6000       286
    64.6200       284
    64.6400       312
    64.6600       284
    64.6800       304
    64.7000       286
    64.7200       320
    64.7400       302
    64.7600       338
    64.7800       324
    64.8000       364
    64.8200       346
    64.8400       388
    64.8600       420
    64.8800       436
    64.9000       422
    64.9200       466
    64.9400       460
    64.9600       476
    64.9800       472
    65.0000       508
    65.0200       560
    65.0400       528
    65.0600       512
    65.0800       558
    65.1000       594
    65.1200       580
    65.1400       624
    65.1600       642
    65.1800       602
    65.2000       624
    65.2200       644
    65.2400       618
    65.2600       646
    65.2800       614
    65.3000       674
    65.3200       616
    65.3400       644
    65.3600       618
    65.3800       630
    65.4000       532
    65.4200       540
    65.4400       518
    65.4600       534
    65.4800       488
    65.5000       520
    65.5200       436
    65.5400       504
    65.5600       408
    65.5800       408
    65.6000       370
    65.6200       336
    65.6400       368
    65.6600       354
    65.6800       326
    65.7000       302
    65.7200       302
    65.7400       316
    65.7600       308
    65.7800       280
    65.8000       276
    65.8200       290
    65.8400       314
    65.8600       276
    65.8800       272
    65.9000       268
    65.9200       266
    65.9400       278
    65.9600       284
    65.9800       226
    66.0000       272
    66.0200       226
    66.0400       262
    66.0600       264
    66.0800       278
    66.1000       252
    66.1200       222
    66.1400       254
    66.1600       284
    66.1800       264
    66.2000       292
    66.2200       268
    66.2400       280
    66.2600       284
    66.2800       282
    66.3000       284
    66.3200       278
    66.3400       306
    66.3600       326
    66.3800       350
    66.4000       362
    66.4200       352
    66.4400       382
    66.4600       414
    66.4800       386
    66.5000       422
    66.5200       444
    66.5400       444
    66.5600       474
    66.5800       518
    66.6000       534
    66.6200       546
    66.6400       618
    66.6600       546
    66.6800       602
    66.7000       662
    66.7200       646
    66.7400       618
    66.7600       712
    66.7800       750
    66.8000       690
    66.8200       738
    66.8400       710
    66.8600       700
    66.8800       718
    66.9000       708
    66.9200       720
    66.9400       698
    66.9600       674
    66.9800       646
    67.0000       644
    67.0200       628
    67.0400       628
    67.0600       578
    67.0800       612
    67.1000       544
    67.1200       508
    67.1400       522
    67.1600       478
    67.1800       512
    67.2000       434
    67.2200       434
    67.2400       412
    67.2600       420
    67.2800       398
    67.3000       384
    67.3200       384
    67.3400       348
    67.3600       322
    67.3800       348
    67.4000       326
    67.4200       370
    67.4400       354
    67.4600       318
    67.4800       352
    67.5000       330
    67.5200       356
    67.5400       334
    67.5600       328
    67.5800       318
    67.6000       350
    67.6200       324
    67.6400       362
    67.6600       380
    67.6800       376
    67.7000       368
    67.7200       388
    67.7400       422
    67.7600       442
    67.7800       476
    67.8000       498
    67.8200       562
    67.8400       532
    67.8600       554
    67.8800       612
    67.9000       596
    67.9200       678
    67.9400       696
    67.9600       764
    67.9800       832
    68.0000       928
    68.0200       998
    68.0400       966
    68.0600      1020
    68.0800      1060
    68.1000      1150
    68.1200      1134
    68.1400      1218
    68.1600      1310
    68.1800      1240
    68.2000      1238
    68.2200      1184
    68.2400      1226
    68.2600      1228
    68.2800      1206
    68.3000      1198
    68.3200      1180
    68.3400      1118
    68.3600      1050
    68.3800      1014
    68.4000       976
    68.4200      1016
    68.4400       930
    68.4600       934
    68.4800       952
    68.5000       846
    68.5200       848
    68.5400       790
    68.5600       860
    68.5800       794
    68.6000       820
    68.6200       808
    68.6400       734
    68.6600       776
    68.6800       728
    68.7000       730
    68.7200       666
    68.7400       602
    68.7600       600
    68.7800       604
    68.8000       600
    68.8200       534
    68.8400       562
    68.8600       546
    68.8800       516
    68.9000       460
    68.9200       492
    68.9400       420
    68.9600       442
    68.9800       472
    69.0000       424
    69.0200       422
    69.0400       444
    69.0600       442
    69.0800       432
    69.1000       382
    69.1200       418
    69.1400       444
    69.1600       452
    69.1800       410
    69.2000       414
    69.2200       420
    69.2400       432
    69.2600       426
    69.2800       464
    69.3000       520
    69.3200       550
    69.3400       580
    69.3600       564
    69.3800       504
    69.4000       548
    69.4200       556
    69.4400       552
    69.4600       522
    69.4800       522
    69.5000       470
    69.5200       516
    69.5400       520
    69.5600       458
    69.5800       450
    69.6000       424
    69.6200       424
    69.6400       418
    69.6600       426
    69.6800       396
    69.7000       330
    69.7200       378
    69.7400       332
    69.7600       308
    69.7800       298
    69.8000       304
    69.8200       304
    69.8400       282
    69.8600       272
    69.8800       264
    69.9000       272
    69.9200       260
    69.9400       272
    69.9600       234
    69.9800       242
    70.0000       216
    70.0200       228
    70.0400       240
    70.0600       232
    70.0800       228
    70.1000       202
    70.1200       218
    70.1400       212
    70.1600       208
    70.1800       206
    70.2000       220
    70.2200       202
    70.2400       234
    70.2600       202
    70.2800       248
    70.3000       202
    70.3200       216
    70.3400       186
    70.3600       222
    70.3800       228
    70.4000       218
    70.4200       230
    70.4400       230
    70.4600       210
    70.4800       220
    70.5000       252
    70.5200       268
    70.5400       244
    70.5600       238
    70.5800       210
    70.6000       264
    70.6200       236
    70.6400       250
    70.6600       284
    70.6800       246
    70.7000       248
    70.7200       236
    70.7400       248
    70.7600       234
    70.7800       224
    70.8000       264
    70.8200       218
    70.8400       242
    70.8600       240
    70.8800       244
    70.9000       220
    70.9200       238
    70.9400       242
    70.9600       280
    70.9800       264
    71.0000       262
    71.0200       260
    71.0400       294
    71.0600       272
    71.0800       238
    71.1000       292
    71.1200       302
    71.1400       278
    71.1600       304
    71.1800       340
    71.2000       338
    71.2200       356
    71.2400       384
    71.2600       372
    71.2800       426
    71.3000       434
    71.3200       448
    71.3400       484
    71.3600       452
    71.3800       570
    71.4000       558
    71.4200       582
    71.4400       588
    71.4600       636
    71.4800       572
    71.5000       644
    71.5200       646
    71.5400       652
    71.5600       660
    71.5800       640
    71.6000       634
    71.6200       618
    71.6400       716
    71.6600       636
    71.6800       660
    71.7000       572
    71.7200       562
    71.7400       616
    71.7600       618
    71.7800       586
    71.8000       568
    71.8200       592
    71.8400       612
    71.8600       560
    71.8800       560
    71.9000       532
    71.9200       552
    71.9400       532
    71.9600       476
    71.9800       508
    72.0000       486
    72.0200       454
    72.0400       468
    72.0600       468
    72.0800       458
    72.1000       450
    72.1200       496
    72.1400       474
    72.1600       474
    72.1800       506
    72.2000       516
    72.2200       462
    72.2400       464
    72.2600       504
    72.2800       458
    72.3000       512
    72.3200       506
    72.3400       498
    72.3600       502
    72.3800       484
    72.4000       478
    72.4200       434
    72.4400       452
    72.4600       386
    72.4800       428
    72.5000       432
    72.5200       392
    72.5400       406
    72.5600       358
    72.5800       372
    72.6000       346
    72.6200       356
    72.6400       316
    72.6600       310
    72.6800       326
    72.7000       288
    72.7200       278
    72.7400       324
    72.7600       282
    72.7800       298
    72.8000       320
    72.8200       326
    72.8400       278
    72.8600       294
    72.8800       286
    72.9000       308
    72.9200       296
    72.9400       298
    72.9600       300
    72.9800       288
    73.0000       288
    73.0200       278
    73.0400       286
    73.0600       278
    73.0800       228
    73.1000       286
    73.1200       250
    73.1400       268
    73.1600       236
    73.1800       230
    73.2000       218
    73.2200       222
    73.2400       212
    73.2600       244
    73.2800       244
    73.3000       222
    73.3200       226
    73.3400       204
    73.3600       250
    73.3800       232
    73.4000       218
    73.4200       224
    73.4400       228
    73.4600       208
    73.4800       216
    73.5000       228
    73.5200       234
    73.5400       236
    73.5600       236
    73.5800       242
    73.6000       236
    73.6200       224
    73.6400       264
    73.6600       230
    73.6800       260
    73.7000       254
    73.7200       244
    73.7400       264
    73.7600       252
    73.7800       294
    73.8000       260
    73.8200       284
    73.8400       260
    73.8600       288
    73.8800       298
    73.9000       296
    73.9200       312
    73.9400       292
    73.9600       322
    73.9800       330
    74.0000       338
    74.0200       316
    74.0400       322
    74.0600       320
    74.0800       354
    74.1000       342
    74.1200       320
    74.1400       338
    74.1600       386
    74.1800       314
    74.2000       336
    74.2200       332
    74.2400       298
    74.2600       302
    74.2800       296
    74.3000       306
    74.3200       296
    74.3400       320
    74.3600       256
    74.3800       284
    74.4000       288
    74.4200       262
    74.4400       274
    74.4600       248
    74.4800       256
    74.5000       256
    74.5200       232
    74.5400       214
    74.5600       210
    74.5800       266
    74.6000       204
    74.6200       204
    74.6400       220
    74.6600       236
    74.6800       220
    74.7000       206
    74.7200       198
    74.7400       194
    74.7600       192
    74.7800       176
    74.8000       180
    74.8200       212
    74.8400       190
    74.8600       178
    74.8800       190
    74.9000       190
    74.9200       182
    74.9400       226
    74.9600       162
    74.9800       172
    75.0000       182
    75.0200       186
    75.0400       206
    75.0600       176
    75.0800       222
    75.1000       208
    75.1200       186
    75.1400       204
    75.1600       204
    75.1800       218
    75.2000       226
    75.2200       198
    75.2400       206
    75.2600       182
    75.2800       212
    75.3000       200
    75.3200       226
    75.3400       198
    75.3600       214
    75.3800       218
    75.4000       226
    75.4200       212
    75.4400       204
    75.4600       248
    75.4800       230
    75.5000       246
    75.5200       236
    75.5400       274
    75.5600       264
    75.5800       288
    75.6000       266
    75.6200       300
    75.6400       314
    75.6600       322
    75.6800       362
    75.7000       344
    75.7200       362
    75.7400       382
    75.7600       414
    75.7800       450
    75.8000       440
    75.8200       438
    75.8400       408
    75.8600       436
    75.8800       430
    75.9000       406
    75.9200       412
    75.9400       396
    75.9600       388
    75.9800       390
    76.0000       402
    76.0200       408
    76.0400       424
    76.0600       376
    76.0800       376
    76.1000       388
    76.1200       326
    76.1400       314
    76.1600       326
    76.1800       348
    76.2000       332
    76.2200       350
    76.2400       322
    76.2600       320
    76.2800       322
    76.3000       344
    76.3200       304
    76.3400       332
    76.3600       330
    76.3800       328
    76.4000       300
    76.4200       342
    76.4400       350
    76.4600       344
    76.4800       326
    76.5000       342
    76.5200       346
    76.5400       368
    76.5600       336
    76.5800       380
    76.6000       326
    76.6200       342
    76.6400       360
    76.6600       340
    76.6800       418
    76.7000       390
    76.7200       384
    76.7400       408
    76.7600       362
    76.7800       354
    76.8000       344
    76.8200       382
    76.8400       358
    76.8600       370
    76.8800       344
    76.9000       372
    76.9200       380
    76.9400       302
    76.9600       336
    76.9800       374
    77.0000       318
    77.0200       350
    77.0400       364
    77.0600       342
    77.0800       352
    77.1000       338
    77.1200       344
    77.1400       404
    77.1600       316
    77.1800       378
    77.2000       376
    77.2200       426
    77.2400       420
    77.2600       452
    77.2800       454
    77.3000       454
    77.3200       480
    77.3400       500
    77.3600       516
    77.3800       570
    77.4000       576
    77.4200       588
    77.4400       612
    77.4600       632
    77.4800       682
    77.5000       714
    77.5200       768
    77.5400       784
    77.5600       786
    77.5800       816
    77.6000       848
    77.6200       922
    77.6400       806
    77.6600       848
    77.6800       862
    77.7000       810
    77.7200       796
    77.7400       774
    77.7600       830
    77.7800       764
    77.8000       756
    77.8200       738
    77.8400       708
    77.8600       730
    77.8800       746
    77.9000       656
    77.9200       618
    77.9400       600
    77.9600       562
    77.9800       540
    78.0000       548
    78.0200       510
    78.0400       488
    78.0600       466
    78.0800       450
    78.1000       442
    78.1200       478
    78.1400       412
    78.1600       434
    78.1800       440
    78.2000       386
    78.2200       420
    78.2400       426
    78.2600       432
    78.2800       400
    78.3000       410
    78.3200       396
    78.3400       388
    78.3600       426
    78.3800       426
    78.4000       406
    78.4200       408
    78.4400       402
    78.4600       426
    78.4800       430
    78.5000       448
    78.5200       402
    78.5400       400
    78.5600       428
    78.5800       476
    78.6000       480
    78.6200       434
    78.6400       414
    78.6600       412
    78.6800       454
    78.7000       438
    78.7200       436
    78.7400       414
    78.7600       436
    78.7800       416
    78.8000       412
    78.8200       352
    78.8400       384
    78.8600       388
    78.8800       374
    78.9000       366
    78.9200       376
    78.9400       328
    78.9600       322
    78.9800       338
    79.0000       314
    79.0200       304
    79.0400       296
    79.0600       278
    79.0800       286
    79.1000       270
    79.1200       256
    79.1400       276
    79.1600       230
    79.1800       250
    79.2000       246
    79.2200       242
    79.2400       228
    79.2600       236
    79.2800       238
    79.3000       226
    79.3200       218
    79.3400       222
    79.3600       224
    79.3800       222
    79.4000       214
    79.4200       246
    79.4400       238
    79.4600       236
    79.4800       220
    79.5000       248
    79.5200       218
    79.5400       242
    79.5600       236
    79.5800       268
    79.6000       230
    79.6200       258
    79.6400       256
    79.6600       262
    79.6800       230
    79.7000       260
    79.7200       230
    79.7400       284
    79.7600       236
    79.7800       272
    79.8000       264
    79.8200       262
    79.8400       242
    79.8600       220
    79.8800       246
    79.9000       246
    79.9200       248
    79.9400       232
    79.9600       210
    79.9800       238
    80.0000       234
    80.0200       244
    80.0400       198
    80.0600       230
    80.0800       216
    80.1000       220
    80.1200       214
    80.1400       220
    80.1600       222
    80.1800       208
    80.2000       222
    80.2200       192
    80.2400       228
    80.2600       238
    80.2800       232
    80.3000       212
    80.3200       228
    80.3400       212
    80.3600       214
    80.3800       180
    80.4000       200
    80.4200       202
    80.4400       222
    80.4600       180
    80.4800       198
    80.5000       208
    80.5200       196
    80.5400       192
    80.5600       200
    80.5800       174
    80.6000       208
    80.6200       174
    80.6400       194
    80.6600       192
    80.6800       176
    80.7000       190
    80.7200       178
    80.7400       182
    80.7600       162
    80.7800       178
    80.8000       172
    80.8200       182
    80.8400       162
    80.8600       208
    80.8800       194
    80.9000       196
    80.9200       186
    80.9400       184
    80.9600       206
    80.9800       204
    81.0000       218
    81.0200       188
    81.0400       224
    81.0600       214
    81.0800       218
    81.1000       212
    81.1200       218
    81.1400       244
    81.1600       262
    81.1800       216
    81.2000       242
    81.2200       224
    81.2400       246
    81.2600       256
    81.2800       216
    81.3000       254
    81.3200       256
    81.3400       294
    81.3600       218
    81.3800       238
    81.4000       284
    81.4200       256
    81.4400       258
    81.4600       228
    81.4800       246
    81.5000       276
    81.5200       230
    81.5400       268
    81.5600       240
    81.5800       282
    81.6000       266
    81.6200       246
    81.6400       248
    81.6600       246
    81.6800       258
    81.7000       244
    81.7200       206
    81.7400       274
    81.7600       266
    81.7800       242
    81.8000       242
    81.8200       256
    81.8400       244
    81.8600       240
    81.8800       240
    81.9000       272
    81.9200       262
    81.9400       282
    81.9600       256
    81.9800       240
    82.0000       266
    82.0200       290
    82.0400       276
    82.0600       320
    82.0800       268
    82.1000       306
    82.1200       298
    82.1400       322
    82.1600       284
    82.1800       316
    82.2000       330
    82.2200       304
    82.2400       306
    82.2600       308
    82.2800       354
    82.3000       332
    82.3200       336
    82.3400       368
    82.3600       328
    82.3800       344
    82.4000       386
    82.4200       358
    82.4400       386
    82.4600       358
    82.4800       362
    82.5000       408
    82.5200       388
    82.5400       406
    82.5600       378
    82.5800       418
    82.6000       386
    82.6200       370
    82.6400       392
    82.6600       378
    82.6800       388
    82.7000       396
    82.7200       436
    82.7400       426
    82.7600       412
    82.7800       458
    82.8000       418
    82.8200       430
    82.8400       422
    82.8600       422
    82.8800       406
    82.9000       406
    82.9200       394
    82.9400       444
    82.9600       396
    82.9800       444
    83.0000       400
    83.0200       430
    83.0400       406
    83.0600       406
    83.0800       394
    83.1000       374
    83.1200       418
    83.1400       422
    83.1600       352
    83.1800       388
    83.2000       400
    83.2200       400
    83.2400       418
    83.2600       394
    83.2800       366
    83.3000       350
    83.3200       318
    83.3400       354
    83.3600       386
    83.3800       406
    83.4000       376
    83.4200       366
    83.4400       346
    83.4600       344
    83.4800       344
    83.5000       336
    83.5200       334
    83.5400       342
    83.5600       338
    83.5800       356
    83.6000       318
    83.6200       322
    83.6400       344
    83.6600       276
    83.6800       328
    83.7000       300
    83.7200       300
    83.7400       304
    83.7600       282
    83.7800       288
    83.8000       296
    83.8200       300
    83.8400       302
    83.8600       260
    83.8800       280
    83.9000       272
    83.9200       294
    83.9400       258
    83.9600       270
    83.9800       260
    84.0000       286
    84.0200       292
    84.0400       238
    84.0600       274
    84.0800       256
    84.1000       272
    84.1200       264
    84.1400       270
    84.1600       256
    84.1800       264
    84.2000       246
    84.2200       236
    84.2400       254
    84.2600       240
    84.2800       256
    84.3000       214
    84.3200       216
    84.3400       208
    84.3600       208
    84.3800       234
    84.4000       246
    84.4200       200
    84.4400       216
    84.4600       218
    84.4800       204
    84.5000       212
    84.5200       220
    84.5400       230
    84.5600       224
    84.5800       212
    84.6000       208
    84.6200       232
    84.6400       194
    84.6600       206
    84.6800       220
    84.7000       204
    84.7200       210
    84.7400       228
    84.7600       226
    84.7800       192
    84.8000       186
    84.8200       236
    84.8400       208
    84.8600       212
    84.8800       222
    84.9000       206
    84.9200       214
    84.9400       220
    84.9600       196
    84.9800       212
    85.0000       220
    85.0200       240
    85.0400       206
    85.0600       192
    85.0800       186
    85.1000       214
    85.1200       204
    85.1400       188
    85.1600       216
    85.1800       222
    85.2000       226
    85.2200       214
    85.2400       214
    85.2600       228
    85.2800       206
    85.3000       242
    85.3200       238
    85.3400       230
    85.3600       224
    85.3800       228
    85.4000       226
    85.4200       244
    85.4400       260
    85.4600       238
    85.4800       278
    85.5000       242
    85.5200       206
    85.5400       266
    85.5600       254
    85.5800       248
    85.6000       248
    85.6200       240
    85.6400       284
    85.6600       254
    85.6800       240
    85.7000       228
    85.7200       234
    85.7400       250
    85.7600       258
    85.7800       242
    85.8000       206
    85.8200       222
    85.8400       210
    85.8600       224
    85.8800       206
    85.9000       214
    85.9200       234
    85.9400       192
    85.9600       190
    85.9800       200
    86.0000       178
    86.0200       246
    86.0400       170
    86.0600       180
    86.0800       182
    86.1000       190
    86.1200       196
    86.1400       182
    86.1600       170
    86.1800       186
    86.2000       192
    86.2200       204
    86.2400       184
    86.2600       152
    86.2800       188
    86.3000       180
    86.3200       228
    86.3400       184
    86.3600       208
    86.3800       200
    86.4000       184
    86.4200       202
    86.4400       200
    86.4600       210
    86.4800       190
    86.5000       224
    86.5200       236
    86.5400       224
    86.5600       210
    86.5800       228
    86.6000       258
    86.6200       234
    86.6400       236
    86.6600       234
    86.6800       256
    86.7000       298
    86.7200       268
    86.7400       280
    86.7600       288
    86.7800       306
    86.8000       316
    86.8200       290
    86.8400       340
    86.8600       338
    86.8800       362
    86.9000       382
    86.9200       356
    86.9400       404
    86.9600       356
    86.9800       358
    87.0000       394
    87.0200       364
    87.0400       424
    87.0600       410
    87.0800       452
    87.1000       446
    87.1200       422
    87.1400       456
    87.1600       486
    87.1800       474
    87.2000       534
    87.2200       520
    87.2400       522
    87.2600       548
    87.2800       584
    87.3000       584
    87.3200       654
    87.3400       648
    87.3600       598
    87.3800       590
    87.4000       576
    87.4200       586
    87.4400       562
    87.4600       624
    87.4800       524
    87.5000       546
    87.5200       544
    87.5400       560
    87.5600       566
    87.5800       562
    87.6000       536
    87.6200       582
    87.6400       548
    87.6600       512
    87.6800       510
    87.7000       512
    87.7200       516
    87.7400       458
    87.7600       446
    87.7800       432
    87.8000       426
    87.8200       430
    87.8400       416
    87.8600       402
    87.8800       380
    87.9000       398
    87.9200       388
    87.9400       378
    87.9600       418
    87.9800       400
    88.0000       380
    88.0200       370
    88.0400       340
    88.0600       314
    88.0800       366
    88.1000       340
    88.1200       320
    88.1400       324
    88.1600       326
    88.1800       304
    88.2000       302
    88.2200       298
    88.2400       280
    88.2600       296
    88.2800       278
    88.3000       290
    88.3200       264
    88.3400       264
    88.3600       310
    88.3800       262
    88.4000       246
    88.4200       246
    88.4400       254
    88.4600       276
    88.4800       258
    88.5000       236
    88.5200       274
    88.5400       250
    88.5600       266
    88.5800       256
    88.6000       238
    88.6200       252
    88.6400       248
    88.6600       246
    88.6800       252
    88.7000       250
    88.7200       248
    88.7400       278
    88.7600       230
    88.7800       270
    88.8000       244
    88.8200       228
    88.8400       218
    88.8600       236
    88.8800       262
    88.9000       216
    88.9200       264
    88.9400       238
    88.9600       246
    88.9800       228
    89.0000       230
    89.0200       230
    89.0400       240
    89.0600       228
    89.0800       184
    89.1000       220
    89.1200       212
    89.1400       216
    89.1600       252
    89.1800       220
    89.2000       190
    89.2200       240
    89.2400       238
    89.2600       236
    89.2800       224
    89.3000       240
    89.3200       220
    89.3400       246
    89.3600       258
    89.3800       280
    89.4000       232
    89.4200       254
    89.4400       240
    89.4600       274
    89.4800       280
    89.5000       274
    89.5200       236
    89.5400       246
    89.5600       252
    89.5800       250
    89.6000       266
    89.6200       282
    89.6400       284
    89.6600       282
    89.6800       256
    89.7000       282
    89.7200       276
    89.7400       262
    89.7600       292
    89.7800       274
    89.8000       274
    89.8200       308
    89.8400       278
    89.8600       286
    89.8800       312
    89.9000       324
    89.9200       314
    89.9400       286
    89.9600       290
    89.9800       292
    90.0000       298
