    10.0000       370
    10.0200       344
    10.0400       364
    10.0600       396
    10.0800       378
    10.1000       368
    10.1200       376
    10.1400       346
    10.1600       372
    10.1800       350
    10.2000       362
    10.2200       354
    10.2400       370
    10.2600       380
    10.2800       358
    10.3000       360
    10.3200       368
    10.3400       336
    10.3600       322
    10.3800       362
    10.4000       392
    10.4200       346
    10.4400       364
    10.4600       348
    10.4800       308
    10.5000       364
    10.5200       356
    10.5400       348
    10.5600       380
    10.5800       366
    10.6000       356
    10.6200       340
    10.6400       334
    10.6600       352
    10.6800       346
    10.7000       314
    10.7200       362
    10.7400       346
    10.7600       322
    10.7800       350
    10.8000       322
    10.8200       350
    10.8400       318
    10.8600       344
    10.8800       360
    10.9000       366
    10.9200       340
    10.9400       336
    10.9600       334
    10.9800       326
    11.0000       376
    11.0200       348
    11.0400       348
    11.0600       332
    11.0800       294
    11.1000       356
    11.1200       330
    11.1400       318
    11.1600       338
    11.1800       314
    11.2000       286
    11.2200       336
    11.2400       312
    11.2600       324
    11.2800       320
    11.3000       332
    11.3200       318
    11.3400       320
    11.3600       340
    11.3800       324
    11.4000       298
    11.4200       344
    11.4400       308
    11.4600       312
    11.4800       306
    11.5000       318
    11.5200       336
    11.5400       310
    11.5600       348
    11.5800       324
    11.6000       346
    11.6200       356
    11.6400       322
    11.6600       320
    11.6800       344
    11.7000       350
    11.7200       354
    11.7400       346
    11.7600       328
    11.7800       368
    11.8000       358
    11.8200       362
    11.8400       382
    11.8600       346
    11.8800       348
    11.9000       432
    11.9200       408
    11.9400       396
    11.9600       434
    11.9800       422
    12.0000       462
    12.0200       474
    12.0400       452
    12.0600       522
    12.0800       534
    12.1000       604
    12.1200       660
    12.1400       698
    12.1600       632
    12.1800       764
    12.2000       762
    12.2200       710
    12.2400       640
    12.2600       576
    12.2800       506
    12.3000       438
    12.3200       394
    12.3400       338
    12.3600       364
    12.3800       338
    12.4000       316
    12.4200       314
    12.4400       312
    12.4600       328
    12.4800       332
    12.5000       314
    12.5200       318
    12.5400       282
    12.5600       310
    12.5800       312
    12.6000       322
    12.6200       306
    12.6400       314
    12.6600       284
    12.6800       292
    12.7000       304
    12.7200       300
    12.7400       278
    12.7600       290
    12.7800       306
    12.8000       260
    12.8200       280
    12.8400       304
    12.8600       316
    12.8800       294
    12.9000       296
    12.9200       280
    12.9400       272
    12.9600       284
    12.9800       274
    13.0000       266
    13.0200       296
    13.0400       262
    13.0600       262
    13.0800       282
    13.1000       254
    13.1200       274
    13.1400       248
    13.1600       296
    13.1800       274
    13.2000       276
    13.2200       280
    13.2400       286
    13.2600       288
    13.2800       270
    13.3000       282
    13.3200       288
    13.3400       250
    13.3600       280
    13.3800       274
    13.4000       260
    13.4200       262
    13.4400       282
    13.4600       266
    13.4800       276
    13.5000       260
    13.5200       284
    13.5400       268
    13.5600       278
    13.5800       262
    13.6000       266
    13.6200       272
    13.6400       256
    13.6600       282
    13.6800       246
    13.7000       246
    13.7200       282
    13.7400       270
    13.7600       266
    13.7800       248
    13.8000       276
    13.8200       262
    13.8400       240
    13.8600       274
    13.8800       278
    13.9000       244
    13.9200       252
    13.9400       278
    13.9600       276
    13.9800       278
    14.0000       266
    14.0200       262
    14.0400       236
    14.0600       254
    14.0800       244
    14.1000       266
    14.1200       264
    14.1400       244
    14.1600       234
    14.1800       268
    14.2000       286
    14.2200       240
    14.2400       246
    14.2600       278
    14.2800       238
    14.3000       246
    14.3200       274
    14.3400       256
    14.3600       268
    14.3800       256
    14.4000       248
    14.4200       244
    14.4400       264
    14.4600       272
    14.4800       284
    14.5000       258
    14.5200       262
    14.5400       278
    14.5600       276
    14.5800       278
    14.6000       254
    14.6200       314
    14.6400       290
    14.6600       286
    14.6800       272
    14.7000       308
    14.7200       320
    14.7400       336
    14.7600       352
    14.7800       336
    14.8000       346
    14.8200       390
    14.8400       376
    14.8600       394
    14.8800       426
    14.9000       436
    14.9200       478
    14.9400       526
    14.9600       578
    14.9800       570
    15.0000       682
    15.0200       672
    15.0400       756
    15.0600       806
    15.0800       836
    15.1000       864
    15.1200       938
    15.1400      1076
    15.1600      1080
    15.1800      1096
    15.2000      1028
    15.2200       934
    15.2400       786
    15.2600       642
    15.2800       494
    15.3000       444
    15.3200       392
    15.3400       342
    15.3600       326
    15.3800       330
    15.4000       288
    15.4200       292
    15.4400       304
    15.4600       274
    15.4800       298
    15.5000       314
    15.5200       264
    15.5400       252
    15.5600       270
    15.5800       270
    15.6000       262
    15.6200       260
    15.6400       272
    15.6600       256
    15.6800       236
    15.7000       260
    15.7200       282
    15.7400       270
    15.7600       268
    15.7800       216
    15.8000       242
    15.8200       234
    15.8400       274
    15.8600       222
    15.8800       266
    15.9000       282
    15.9200       246
    15.9400       274
    15.9600       222
    15.9800       240
    16.0000       268
    16.0200       254
    16.0400       248
    16.0600       262
    16.0800       308
    16.1000       300
    16.1200       268
    16.1400       300
    16.1600       286
    16.1800       296
    16.2000       298
    16.2200       258
    16.2400       308
    16.2600       282
    16.2800       310
    16.3000       306
    16.3200       288
    16.3400       260
    16.3600       270
    16.3800       246
    16.4000       254
    16.4200       298
    16.4400       280
    16.4600       256
    16.4800       278
    16.5000       298
    16.5200       294
    16.5400       286
    16.5600       274
    16.5800       288
    16.6000       298
    16.6200       308
    16.6400       366
    16.6600       312
    16.6800       374
    16.7000       374
    16.7200       392
    16.7400       414
    16.7600       434
    16.7800       488
    16.8000       458
    16.8200       564
    16.8400       558
    16.8600       640
    16.8800       724
    16.9000       792
    16.9200       854
    16.9400       990
    16.9600      1122
    16.9800      1282
    17.0000      1498
    17.0200      1640
    17.0400      1824
    17.0600      1888
    17.0800      1768
    17.1000      1780
    17.1200      1442
    17.1400      1322
    17.1600      1188
    17.1800      1066
    17.2000       992
    17.2200       924
    17.2400       940
    17.2600       846
    17.2800       796
    17.3000       810
    17.3200       736
    17.3400       672
    17.3600       606
    17.3800       576
    17.4000       556
    17.4200       516
    17.4400       446
    17.4600       488
    17.4800       448
    17.5000       462
    17.5200       448
    17.5400       446
    17.5600       426
    17.5800       462
    17.6000       426
    17.6200       426
    17.6400       458
    17.6600       440
    17.6800       518
    17.7000       532
    17.7200       550
    17.7400       584
    17.7600       650
    17.7800       626
    17.8000       562
    17.8200       592
    17.8400       518
    17.8600       488
    17.8800       424
    17.9000       382
    17.9200       304
    17.9400       280
    17.9600       270
    17.9800       274
    18.0000       254
    18.0200       260
    18.0400       260
    18.0600       234
    18.0800       242
    18.1000       214
    18.1200       242
    18.1400       222
    18.1600       198
    18.1800       224
    18.2000       222
    18.2200       202
    18.2400       232
    18.2600       206
    18.2800       232
    18.3000       220
    18.3200       208
    18.3400       228
    18.3600       230
    18.3800       230
    18.4000       204
    18.4200       232
    18.4400       218
    18.4600       226
    18.4800       216
    18.5000       228
    18.5200       256
    18.5400       230
    18.5600       222
    18.5800       220
    18.6000       234
    18.6200       238
    18.6400       254
    18.6600       268
    18.6800       246
    18.7000       286
    18.7200       298
    18.7400       276
    18.7600       304
    18.7800       340
    18.8000       338
    18.8200       360
    18.8400       368
    18.8600       374
    18.8800       438
    18.9000       430
    18.9200       452
    18.9400       456
    18.9600       480
    18.9800       460
    19.0000       384
    19.0200       388
    19.0400       372
    19.0600       378
    19.0800       360
    19.1000       374
    19.1200       366
    19.1400       350
    19.1600       396
    19.1800       438
    19.2000       402
    19.2200       420
    19.2400       472
    19.2600       512
    19.2800       580
    19.3000       620
    19.3200       706
    19.3400       770
    19.3600       876
    19.3800       932
    19.4000      1112
    19.4200      1320
    19.4400      1440
    19.4600      1664
    19.4800      1972
    19.5000      2188
    19.5200      2446
    19.5400      2636
    19.5600      2510
    19.5800      2316
    19.6000      2100
    19.6200      1642
    19.6400      1392
    19.6600      1172
    19.6800       960
    19.7000       802
    19.7200       816
    19.7400       788
    19.7600       846
    19.7800       834
    19.8000       906
    19.8200       970
    19.8400      1122
    19.8600      1224
    19.8800      1384
    19.9000      1510
    19.9200      1686
    19.9400      1856
    19.9600      1926
    19.9800      1930
    20.0000      1872
    20.0200      1816
    20.0400      1552
    20.0600      1202
    20.0800      1046
    20.1000       832
    20.1200       668
    20.1400       554
    20.1600       474
    20.1800       432
    20.2000       386
    20.2200       370
    20.2400       360
    20.2600       338
    20.2800       316
    20.3000       296
    20.3200       322
    20.3400       280
    20.3600       278
    20.3800       256
    20.4000       260
    20.4200       236
    20.4400       242
    20.4600       260
    20.4800       294
    20.5000       262
    20.5200       242
    20.5400       254
    20.5600       260
    20.5800       242
    20.6000       246
    20.6200       276
    20.6400       264
    20.6600       262
    20.6800       268
    20.7000       258
    20.7200       276
    20.7400       288
    20.7600       254
    20.7800       282
    20.8000       310
    20.8200       378
    20.8400       340
    20.8600       358
    20.8800       416
    20.9000       438
    20.9200       468
    20.9400       546
    20.9600       538
    20.9800       594
    21.0000       730
    21.0200       770
    21.0400       882
    21.0600      1004
    21.0800      1190
    21.1000      1320
    21.1200      1562
    21.1400      1744
    21.1600      1948
    21.1800      2022
    21.2000      2176
    21.2200      2188
    21.2400      2136
    21.2600      1884
    21.2800      1642
    21.3000      1434
    21.3200      1152
    21.3400      1002
    21.3600       854
    21.3800       672
    21.4000       550
    21.4200       478
    21.4400       392
    21.4600       382
    21.4800       340
    21.5000       358
    21.5200       280
    21.5400       264
    21.5600       288
    21.5800       262
    21.6000       282
    21.6200       248
    21.6400       260
    21.6600       250
    21.6800       242
    21.7000       238
    21.7200       252
    21.7400       216
    21.7600       290
    21.7800       224
    21.8000       256
    21.8200       264
    21.8400       242
    21.8600       252
    21.8800       244
    21.9000       260
    21.9200       256
    21.9400       278
    21.9600       272
    21.9800       232
    22.0000       276
    22.0200       266
    22.0400       238
    22.0600       206
    22.0800       244
    22.1000       254
    22.1200       230
    22.1400       244
    22.1600       218
    22.1800       230
    22.2000       222
    22.2200       230
    22.2400       228
    22.2600       218
    22.2800       240
    22.3000       244
    22.3200       258
    22.3400       270
    22.3600       274
    22.3800       302
    22.4000       330
    22.4200       296
    22.4400       348
    22.4600       340
    22.4800       366
    22.5000       424
    22.5200       444
    22.5400       522
    22.5600       518
    22.5800       592
    22.6000       662
    22.6200       716
    22.6400       856
    22.6600       934
    22.6800      1094
    22.7000      1290
    22.7200      1434
    22.7400      1722
    22.7600      1994
    22.7800      2302
    22.8000      2774
    22.8200      3088
    22.8400      3358
    22.8600      3440
    22.8800      3362
    22.9000      2930
    22.9200      2764
    22.9400      2188
    22.9600      1770
    22.9800      1356
    23.0000      1182
    23.0200       870
    23.0400       774
    23.0600       688
    23.0800       582
    23.1000       564
    23.1200       488
    23.1400       502
    23.1600       478
    23.1800       428
    23.2000       388
    23.2200       402
    23.2400       386
    23.2600       328
    23.2800       358
    23.3000       346
    23.3200       322
    23.3400       282
    23.3600       300
    23.3800       288
    23.4000       268
    23.4200       258
    23.4400       266
    23.4600       258
    23.4800       270
    23.5000       234
    23.5200       248
    23.5400       254
    23.5600       232
    23.5800       258
    23.6000       258
    23.6200       238
    23.6400       250
    23.6600       266
    23.6800       232
    23.7000       232
    23.7200       212
    23.7400       270
    23.7600       228
    23.7800       208
    23.8000       234
    23.8200       232
    23.8400       238
    23.8600       254
    23.8800       256
    23.9000       260
    23.9200       264
    23.9400       228
    23.9600       228
    23.9800       230
    24.0000       246
    24.0200       240
    24.0400       260
    24.0600       276
    24.0800       242
    24.1000       312
    24.1200       276
    24.1400       276
    24.1600       288
    24.1800       324
    24.2000       326
    24.2200       356
    24.2400       360
    24.2600       370
    24.2800       430
    24.3000       454
    24.3200       494
    24.3400       534
    24.3600       604
    24.3800       640
    24.4000       838
    24.4200       888
    24.4400      1006
    24.4600      1050
    24.4800      1096
    24.5000      1200
    24.5200      1290
    24.5400      1370
    24.5600      1354
    24.5800      1328
    24.6000      1270
    24.6200      1142
    24.6400      1076
    24.6600       924
    24.6800       830
    24.7000       798
    24.7200       756
    24.7400       778
    24.7600       676
    24.7800       598
    24.8000       604
    24.8200       538
    24.8400       548
    24.8600       518
    24.8800       488
    24.9000       464
    24.9200       454
    24.9400       474
    24.9600       472
    24.9800       490
    25.0000       510
    25.0200       516
    25.0400       546
    25.0600       536
    25.0800       566
    25.1000       618
    25.1200       604
    25.1400       692
    25.1600       732
    25.1800       802
    25.2000       814
    25.2200       874
    25.2400      1040
    25.2600      1008
    25.2800       958
    25.3000       936
    25.3200       880
    25.3400       774
    25.3600       756
    25.3800       654
    25.4000       670
    25.4200       612
    25.4400       574
    25.4600       622
    25.4800       640
    25.5000       696
    25.5200       784
    25.5400       858
    25.5600       890
    25.5800       864
    25.6000       886
    25.6200       882
    25.6400       810
    25.6600       756
    25.6800       684
    25.7000       570
    25.7200       576
    25.7400       450
    25.7600       422
    25.7800       410
    25.8000       348
    25.8200       366
    25.8400       356
    25.8600       336
    25.8800       290
    25.9000       296
    25.9200       300
    25.9400       286
    25.9600       276
    25.9800       260
    26.0000       254
    26.0200       238
    26.0400       262
    26.0600       248
    26.0800       262
    26.1000       252
    26.1200       242
    26.1400       288
    26.1600       246
    26.1800       264
    26.2000       240
    26.2200       246
    26.2400       254
    26.2600       258
    26.2800       280
    26.3000       290
    26.3200       262
    26.3400       270
    26.3600       266
    26.3800       242
    26.4000       302
    26.4200       270
    26.4400       306
    26.4600       292
    26.4800       294
    26.5000       286
    26.5200       282
    26.5400       288
    26.5600       300
    26.5800       312
    26.6000       266
    26.6200       342
    26.6400       292
    26.6600       272
    26.6800       284
    26.7000       300
    26.7200       264
    26.7400       258
    26.7600       290
    26.7800       256
    26.8000       248
    26.8200       290
    26.8400       248
    26.8600       244
    26.8800       246
    26.9000       230
    26.9200       242
    26.9400       254
    26.9600       272
    26.9800       248
    27.0000       254
    27.0200       298
    27.0400       264
    27.0600       296
    27.0800       308
    27.1000       320
    27.1200       330
    27.1400       358
    27.1600       350
    27.1800       360
    27.2000       360
    27.2200       404
    27.2400       476
    27.2600       506
    27.2800       546
    27.3000       606
    27.3200       710
    27.3400       712
    27.3600       800
    27.3800       926
    27.4000      1004
    27.4200      1204
    27.4400      1154
    27.4600      1224
    27.4800      1252
    27.5000      1376
    27.5200      1346
    27.5400      1262
    27.5600      1202
    27.5800      1092
    27.6000       976
    27.6200       858
    27.6400       710
    27.6600       626
    27.6800       568
    27.7000       526
    27.7200       494
    27.7400       420
    27.7600       382
    27.7800       376
    27.8000       358
    27.8200       352
    27.8400       304
    27.8600       314
    27.8800       266
    27.9000       308
    27.9200       302
    27.9400       314
    27.9600       278
    27.9800       340
    28.0000       268
    28.0200       278
    28.0400       256
    28.0600       252
    28.0800       256
    28.1000       254
    28.1200       292
    28.1400       282
    28.1600       292
    28.1800       276
    28.2000       290
    28.2200       296
    28.2400       296
    28.2600       280
    28.2800       312
    28.3000       308
    28.3200       304
    28.3400       266
    28.3600       272
    28.3800       300
    28.4000       270
    28.4200       268
    28.4400       228
    28.4600       246
    28.4800       242
    28.5000       236
    28.5200       260
    28.5400       268
    28.5600       288
    28.5800       284
    28.6000       300
    28.6200       318
    28.6400       316
    28.6600       318
    28.6800       312
    28.7000       360
    28.7200       378
    28.7400       392
    28.7600       332
    28.7800       318
    28.8000       332
    28.8200       284
    28.8400       282
    28.8600       274
    28.8800       302
    28.9000       284
    28.9200       268
    28.9400       284
    28.9600       262
    28.9800       264
    29.0000       264
    29.0200       298
    29.0400       282
    29.0600       276
    29.0800       314
    29.1000       274
    29.1200       264
    29.1400       290
    29.1600       298
    29.1800       270
    29.2000       286
    29.2200       322
    29.2400       342
    29.2600       332
    29.2800       360
    29.3000       352
    29.3200       400
    29.3400       410
    29.3600       398
    29.3800       462
    29.4000       488
    29.4200       534
    29.4400       540
    29.4600       588
    29.4800       622
    29.5000       700
    29.5200       692
    29.5400       728
    29.5600       826
    29.5800       836
    29.6000       920
    29.6200       906
    29.6400       870
    29.6600       826
    29.6800       826
    29.7000       742
    29.7200       690
    29.7400       622
    29.7600       562
    29.7800       538
    29.8000       478
    29.8200       522
    29.8400       506
    29.8600       528
    29.8800       582
    29.9000       604
    29.9200       596
    29.9400       624
    29.9600       714
    29.9800       816
    30.0000       912
    30.0200      1042
    30.0400      1102
    30.0600      1314
    30.0800      1560
    30.1000      1802
    30.1200      1906
    30.1400      2066
    30.1600      2260
    30.1800      2336
    30.2000      2470
    30.2200      2446
    30.2400      2430
    30.2600      2394
    30.2800      2238
    30.3000      2080
    30.3200      2156
    30.3400      2024
    30.3600      1888
    30.3800      1930
    30.4000      1926
    30.4200      1974
    30.4400      2108
    30.4600      2178
    30.4800      2350
    30.5000      2772
    30.5200      2914
    30.5400      3352
    30.5600      3834
    30.5800      4180
    30.6000      4558
    30.6200      5064
    30.6400      5286
    30.6600      5240
    30.6800      5082
    30.7000      4678
    30.7200      4204
    30.7400      3644
    30.7600      3168
    30.7800      2710
    30.8000      2226
    30.8200      1854
    30.8400      1580
    30.8600      1418
    30.8800      1234
    30.9000      1252
    30.9200      1122
    30.9400      1196
    30.9600      1148
    30.9800      1172
    31.0000      1166
    31.0200      1176
    31.0400      1258
    31.0600      1300
    31.0800      1310
    31.1000      1356
    31.1200      1322
    31.1400      1444
    31.1600      1378
    31.1800      1420
    31.2000      1366
    31.2200      1330
    31.2400      1264
    31.2600      1196
    31.2800      1150
    31.3000      1014
    31.3200       936
    31.3400       832
    31.3600       776
    31.3800       692
    31.4000       588
    31.4200       590
    31.4400       512
    31.4600       494
    31.4800       460
    31.5000       448
    31.5200       456
    31.5400       466
    31.5600       444
    31.5800       426
    31.6000       430
    31.6200       442
    31.6400       442
    31.6600       480
    31.6800       446
    31.7000       474
    31.7200       566
    31.7400       490
    31.7600       654
    31.7800       602
    31.8000       688
    31.8200       746
    31.8400       812
    31.8600       876
    31.8800       962
    31.9000      1112
    31.9200      1262
    31.9400      1336
    31.9600      1568
    31.9800      1726
    32.0000      1866
    32.0200      1840
    32.0400      1766
    32.0600      1684
    32.0800      1598
    32.1000      1526
    32.1200      1330
    32.1400      1270
    32.1600      1116
    32.1800      1044
    32.2000      1010
    32.2200      1024
    32.2400      1032
    32.2600      1120
    32.2800      1164
    32.3000      1204
    32.3200      1442
    32.3400      1526
    32.3600      1814
    32.3800      2060
    32.4000      2482
    32.4200      2802
    32.4400      3388
    32.4600      3998
    32.4800      4614
    32.5000      5082
    32.5200      5530
    32.5400      5810
    32.5600      6022
    32.5800      5986
    32.6000      5636
    32.6200      5286
    32.6400      4766
    32.6600      4228
    32.6800      3740
    32.7000      3214
    32.7200      2648
    32.7400      2260
    32.7600      1818
    32.7800      1634
    32.8000      1434
    32.8200      1324
    32.8400      1170
    32.8600      1020
    32.8800      1058
    32.9000       988
    32.9200       948
    32.9400       950
    32.9600       982
    32.9800      1032
    33.0000      1056
    33.0200      1196
    33.0400      1202
    33.0600      1252
    33.0800      1336
    33.1000      1372
    33.1200      1218
    33.1400      1146
    33.1600      1064
    33.1800       934
    33.2000       832
    33.2200       768
    33.2400       650
    33.2600       578
    33.2800       518
    33.3000       468
    33.3200       432
    33.3400       400
    33.3600       362
    33.3800       350
    33.4000       354
    33.4200       316
    33.4400       320
    33.4600       274
    33.4800       296
    33.5000       294
    33.5200       292
    33.5400       272
    33.5600       268
    33.5800       260
    33.6000       246
    33.6200       298
    33.6400       268
    33.6600       262
    33.6800       276
    33.7000       246
    33.7200       246
    33.7400       242
    33.7600       236
    33.7800       222
    33.8000       250
    33.8200       248
    33.8400       236
    33.8600       232
    33.8800       268
    33.9000       218
    33.9200       224
    33.9400       230
    33.9600       236
    33.9800       226
    34.0000       262
    34.0200       222
    34.0400       252
    34.0600       228
    34.0800       256
    34.1000       236
    34.1200       260
    34.1400       244
    34.1600       252
    34.1800       260
    34.2000       260
    34.2200       264
    34.2400       250
    34.2600       258
    34.2800       258
    34.3000       288
    34.3200       304
    34.3400       304
    34.3600       344
    34.3800       334
    34.4000       364
    34.4200       406
    34.4400       444
    34.4600       472
    34.4800       526
    34.5000       500
    34.5200       520
    34.5400       578
    34.5600       554
    34.5800       506
    34.6000       506
    34.6200       426
    34.6400       432
    34.6600       432
    34.6800       396
    34.7000       374
    34.7200       386
    34.7400       382
    34.7600       334
    34.7800       342
    34.8000       332
    34.8200       318
    34.8400       354
    34.8600       338
    34.8800       326
    34.9000       338
    34.9200       358
    34.9400       368
    34.9600       320
    34.9800       314
    35.0000       308
    35.0200       362
    35.0400       362
    35.0600       362
    35.0800       360
    35.1000       334
    35.1200       324
    35.1400       310
    35.1600       302
    35.1800       274
    35.2000       264
    35.2200       276
    35.2400       260
    35.2600       286
    35.2800       278
    35.3000       246
    35.3200       286
    35.3400       272
    35.3600       270
    35.3800       248
    35.4000       270
    35.4200       276
    35.4400       282
    35.4600       252
    35.4800       280
    35.5000       272
    35.5200       282
    35.5400       274
    35.5600       284
    35.5800       274
    35.6000       284
    35.6200       294
    35.6400       332
    35.6600       300
    35.6800       296
    35.7000       322
    35.7200       342
    35.7400       346
    35.7600       348
    35.7800       328
    35.8000       340
    35.8200       416
    35.8400       390
    35.8600       382
    35.8800       470
    35.9000       450
    35.9200       472
    35.9400       576
    35.9600       534
    35.9800       596
    36.0000       638
    36.0200       702
    36.0400       712
    36.0600       724
    36.0800       742
    36.1000       800
    36.1200       764
    36.1400       758
    36.1600       730
    36.1800       702
    36.2000       740
    36.2200       710
    36.2400       618
    36.2600       584
    36.2800       524
    36.3000       488
    36.3200       452
    36.3400       372
    36.3600       364
    36.3800       390
    36.4000       364
    36.4200       388
    36.4400       370
    36.4600       332
    36.4800       358
    36.5000       392
    36.5200       364
    36.5400       392
    36.5600       418
    36.5800       464
    36.6000       474
    36.6200       446
    36.6400       498
    36.6600       510
    36.6800       598
    36.7000       632
    36.7200       708
    36.7400       824
    36.7600       900
    36.7800      1012
    36.8000      1094
    36.8200      1222
    36.8400      1348
    36.8600      1470
    36.8800      1602
    36.9000      1502
    36.9200      1578
    36.9400      1506
    36.9600      1406
    36.9800      1412
    37.0000      1294
    37.0200      1220
    37.0400      1146
    37.0600      1092
    37.0800      1016
    37.1000      1012
    37.1200       944
    37.1400      1024
    37.1600       902
    37.1800       860
    37.2000       864
    37.2200       848
    37.2400       876
    37.2600       816
    37.2800       746
    37.3000       712
    37.3200       660
    37.3400       670
    37.3600       644
    37.3800       664
    37.4000       558
    37.4200       542
    37.4400       534
    37.4600       570
    37.4800       526
    37.5000       514
    37.5200       502
    37.5400       468
    37.5600       516
    37.5800       536
    37.6000       518
    37.6200       528
    37.6400       564
    37.6600       606
    37.6800       572
    37.7000       588
    37.7200       580
    37.7400       628
    37.7600       592
    37.7800       710
    37.8000       666
    37.8200       732
    37.8400       842
    37.8600       864
    37.8800       916
    37.9000      1058
    37.9200      1088
    37.9400      1196
    37.9600      1306
    37.9800      1550
    38.0000      1598
    38.0200      1642
    38.0400      1728
    38.0600      1810
    38.0800      1724
    38.1000      1708
    38.1200      1700
    38.1400      1580
    38.1600      1574
    38.1800      1534
    38.2000      1524
    38.2200      1584
    38.2400      1612
    38.2600      1706
    38.2800      1750
    38.3000      1886
    38.3200      2162
    38.3400      2354
    38.3600      2632
    38.3800      2960
    38.4000      3304
    38.4200      3540
    38.4400      3930
    38.4600      4280
    38.4800      4614
    38.5000      4776
    38.5200      4980
    38.5400      4984
    38.5600      5124
    38.5800      5234
    38.6000      5358
    38.6200      5108
    38.6400      5214
    38.6600      5014
    38.6800      4744
    38.7000      4636
    38.7200      4438
    38.7400      4134
    38.7600      3938
    38.7800      3706
    38.8000      3258
    38.8200      2940
    38.8400      2536
    38.8600      2330
    38.8800      2090
    38.9000      1942
    38.9200      1694
    38.9400      1442
    38.9600      1354
    38.9800      1274
    39.0000      1210
    39.0200      1146
    39.0400      1094
    39.0600      1188
    39.0800      1172
    39.1000      1182
    39.1200      1150
    39.1400      1188
    39.1600      1178
    39.1800      1186
    39.2000      1180
    39.2200      1268
    39.2400      1228
    39.2600      1230
    39.2800      1240
    39.3000      1232
    39.3200      1288
    39.3400      1204
    39.3600      1226
    39.3800      1168
    39.4000      1130
    39.4200      1110
    39.4400      1116
    39.4600      1076
    39.4800      1080
    39.5000      1014
    39.5200      1010
    39.5400      1132
    39.5600      1170
    39.5800      1186
    39.6000      1272
    39.6200      1430
    39.6400      1492
    39.6600      1640
    39.6800      1780
    39.7000      1836
    39.7200      1866
    39.7400      1792
    39.7600      1684
    39.7800      1558
    39.8000      1530
    39.8200      1348
    39.8400      1280
    39.8600      1166
    39.8800      1108
    39.9000       942
    39.9200       822
    39.9400       782
    39.9600       786
    39.9800       764
    40.0000       766
    40.0200       722
    40.0400       758
    40.0600       752
    40.0800       734
    40.1000       770
    40.1200       788
    40.1400       836
    40.1600       808
    40.1800       810
    40.2000       844
    40.2200       816
    40.2400       766
    40.2600       838
    40.2800       766
    40.3000       846
    40.3200       884
    40.3400       858
    40.3600       958
    40.3800      1012
    40.4000      1052
    40.4200      1132
    40.4400      1134
    40.4600      1242
    40.4800      1318
    40.5000      1326
    40.5200      1376
    40.5400      1462
    40.5600      1416
    40.5800      1438
    40.6000      1402
    40.6200      1362
    40.6400      1348
    40.6600      1184
    40.6800      1110
    40.7000      1036
    40.7200      1000
    40.7400       994
    40.7600       858
    40.7800       792
    40.8000       740
    40.8200       734
    40.8400       716
    40.8600       626
    40.8800       636
    40.9000       618
    40.9200       624
    40.9400       672
    40.9600       630
    40.9800       670
    41.0000       674
    41.0200       708
    41.0400       704
    41.0600       806
    41.0800       856
    41.1000       922
    41.1200      1028
    41.1400      1102
    41.1600      1248
    41.1800      1328
    41.2000      1396
    41.2200      1562
    41.2400      1692
    41.2600      1784
    41.2800      1874
    41.3000      1934
    41.3200      1930
    41.3400      1994
    41.3600      1994
    41.3800      1970
    41.4000      1934
    41.4200      1916
    41.4400      1922
    41.4600      1812
    41.4800      1690
    41.5000      1590
    41.5200      1482
    41.5400      1320
    41.5600      1224
    41.5800      1128
    41.6000      1102
    41.6200       946
    41.6400       868
    41.6600       882
    41.6800       884
    41.7000       920
    41.7200       908
    41.7400       902
    41.7600       998
    41.7800      1096
    41.8000      1170
    41.8200      1166
    41.8400      1330
    41.8600      1374
    41.8800      1460
    41.9000      1436
    41.9200      1530
    41.9400      1428
    41.9600      1396
    41.9800      1296
    42.0000      1158
    42.0200      1028
    42.0400      1014
    42.0600       972
    42.0800       844
    42.1000       790
    42.1200       660
    42.1400       630
    42.1600       588
    42.1800       528
    42.2000       516
    42.2200       446
    42.2400       456
    42.2600       452
    42.2800       450
    42.3000       452
    42.3200       424
    42.3400       432
    42.3600       382
    42.3800       372
    42.4000       366
    42.4200       362
    42.4400       364
    42.4600       350
    42.4800       368
    42.5000       362
    42.5200       376
    42.5400       334
    42.5600       320
    42.5800       358
    42.6000       406
    42.6200       348
    42.6400       358
    42.6600       386
    42.6800       370
    42.7000       358
    42.7200       378
    42.7400       360
    42.7600       384
    42.7800       412
    42.8000       398
    42.8200       390
    42.8400       394
    42.8600       380
    42.8800       426
    42.9000       462
    42.9200       482
    42.9400       504
    42.9600       526
    42.9800       524
    43.0000       622
    43.0200       616
    43.0400       712
    43.0600       778
    43.0800       896
    43.1000       934
    43.1200      1010
    43.1400      1194
    43.1600      1326
    43.1800      1360
    43.2000      1464
    43.2200      1466
    43.2400      1438
    43.2600      1506
    43.2800      1440
    43.3000      1344
    43.3200      1252
    43.3400      1152
    43.3600      1046
    43.3800       990
    43.4000       860
    43.4200       822
    43.4400       722
    43.4600       626
    43.4800       556
    43.5000       516
    43.5200       510
    43.5400       492
    43.5600       452
    43.5800       484
    43.6000       470
    43.6200       498
    43.6400       482
    43.6600       468
    43.6800       516
    43.7000       522
    43.7200       524
    43.7400       544
    43.7600       584
    43.7800       614
    43.8000       662
    43.8200       586
    43.8400       580
    43.8600       626
    43.8800       630
    43.9000       632
    43.9200       568
    43.9400       584
    43.9600       606
    43.9800       562
    44.0000       538
    44.0200       476
    44.0400       484
    44.0600       454
    44.0800       460
    44.1000       410
    44.1200       436
    44.1400       440
    44.1600       422
    44.1800       454
    44.2000       452
    44.2200       476
    44.2400       516
    44.2600       494
    44.2800       488
    44.3000       498
    44.3200       492
    44.3400       530
    44.3600       588
    44.3800       590
    44.4000       574
    44.4200       538
    44.4400       620
    44.4600       706
    44.4800       758
    44.5000       770
    44.5200       818
    44.5400       850
    44.5600       898
    44.5800       924
    44.6000      1058
    44.6200      1114
    44.6400      1106
    44.6600      1182
    44.6800      1234
    44.7000      1306
    44.7200      1326
    44.7400      1362
    44.7600      1314
    44.7800      1326
    44.8000      1390
    44.8200      1352
    44.8400      1382
    44.8600      1380
    44.8800      1418
    44.9000      1442
    44.9200      1494
    44.9400      1614
    44.9600      1672
    44.9800      1776
    45.0000      1870
    45.0200      2002
    45.0400      1938
    45.0600      2038
    45.0800      2086
    45.1000      2072
    45.1200      2172
    45.1400      2202
    45.1600      2256
    45.1800      2198
    45.2000      2194
    45.2200      2212
    45.2400      2028
    45.2600      2018
    45.2800      1872
    45.3000      1764
    45.3200      1720
    45.3400      1618
    45.3600      1564
    45.3800      1422
    45.4000      1430
    45.4200      1290
    45.4400      1296
    45.4600      1162
    45.4800      1128
    45.5000      1088
    45.5200      1096
    45.5400      1064
    45.5600       964
    45.5800       922
    45.6000       888
    45.6200       860
    45.6400       920
    45.6600       784
    45.6800       830
    45.7000       784
    45.7200       764
    45.7400       776
    45.7600       754
    45.7800       800
    45.8000       770
    45.8200       786
    45.8400       750
    45.8600       774
    45.8800       692
    45.9000       698
    45.9200       732
    45.9400       702
    45.9600       740
    45.9800       680
    46.0000       692
    46.0200       670
    46.0400       704
    46.0600       646
    46.0800       672
    46.1000       698
    46.1200       716
    46.1400       680
    46.1600       724
    46.1800       742
    46.2000       762
    46.2200       764
    46.2400       804
    46.2600       848
    46.2800       894
    46.3000       860
    46.3200       988
    46.3400      1034
    46.3600      1118
    46.3800      1232
    46.4000      1232
    46.4200      1398
    46.4400      1524
    46.4600      1678
    46.4800      1882
    46.5000      2080
    46.5200      2252
    46.5400      2592
    46.5600      2866
    46.5800      3254
    46.6000      3582
    46.6200      4150
    46.6400      4584
    46.6600      5100
    46.6800      5368
    46.7000      5572
    46.7200      5876
    46.7400      5744
    46.7600      5612
    46.7800      5224
    46.8000      5040
    46.8200      4578
    46.8400      4218
    46.8600      3890
    46.8800      3476
    46.9000      3066
    46.9200      2616
    46.9400      2270
    46.9600      1988
    46.9800      1752
    47.0000      1524
    47.0200      1306
    47.0400      1228
    47.0600      1142
    47.0800       922
    47.1000       888
    47.1200       832
    47.1400       854
    47.1600       754
    47.1800       712
    47.2000       652
    47.2200       608
    47.2400       624
    47.2600       592
    47.2800       556
    47.3000       554
    47.3200       518
    47.3400       520
    47.3600       572
    47.3800       508
    47.4000       484
    47.4200       434
    47.4400       444
    47.4600       488
    47.4800       502
    47.5000       464
    47.5200       424
    47.5400       442
    47.5600       460
    47.5800       396
    47.6000       422
    47.6200       476
    47.6400       414
    47.6600       468
    47.6800       460
    47.7000       466
    47.7200       532
    47.7400       522
    47.7600       542
    47.7800       588
    47.8000       614
    47.8200       642
    47.8400       704
    47.8600       704
    47.8800       684
    47.9000       666
    47.9200       672
    47.9400       656
    47.9600       624
    47.9800       624
    48.0000       624
    48.0200       592
    48.0400       654
    48.0600       620
    48.0800       676
    48.1000       640
    48.1200       652
    48.1400       704
    48.1600       704
    48.1800       706
    48.2000       732
    48.2200       756
    48.2400       754
    48.2600       746
    48.2800       752
    48.3000       768
    48.3200       802
    48.3400       774
    48.3600       790
    48.3800       840
    48.4000       860
    48.4200       908
    48.4400       918
    48.4600       948
    48.4800      1006
    48.5000      1026
    48.5200      1068
    48.5400      1126
    48.5600      1146
    48.5800      1100
    48.6000      1204
    48.6200      1182
    48.6400      1168
    48.6600      1228
    48.6800      1130
    48.7000      1128
    48.7200      1080
    48.7400      1022
    48.7600       978
    48.7800       922
    48.8000       908
    48.8200       812
    48.8400       762
    48.8600       706
    48.8800       672
    48.9000       632
    48.9200       584
    48.9400       576
    48.9600       566
    48.9800       540
    49.0000       458
    49.0200       478
    49.0400       454
    49.0600       426
    49.0800       422
    49.1000       420
    49.1200       420
    49.1400       384
    49.1600       400
    49.1800       366
    49.2000       344
    49.2200       390
    49.2400       364
    49.2600       340
    49.2800       336
    49.3000       326
    49.3200       328
    49.3400       308
    49.3600       326
    49.3800       338
    49.4000       312
    49.4200       330
    49.4400       282
    49.4600       306
    49.4800       314
    49.5000       298
    49.5200       328
    49.5400       342
    49.5600       300
    49.5800       318
    49.6000       370
    49.6200       346
    49.6400       340
    49.6600       320
    49.6800       338
    49.7000       368
    49.7200       350
    49.7400       350
    49.7600       364
    49.7800       312
    49.8000       374
    49.8200       366
    49.8400       348
    49.8600       424
    49.8800       414
    49.9000       414
    49.9200       414
    49.9400       456
    49.9600       462
    49.9800       482
    50.0000       532
    50.0200       548
    50.0400       536
    50.0600       566
    50.0800       652
    50.1000       682
    50.1200       718
    50.1400       784
    50.1600       844
    50.1800       924
    50.2000       952
    50.2200      1114
    50.2400      1130
    50.2600      1214
    50.2800      1320
    50.3000      1334
    50.3200      1394
    50.3400      1318
    50.3600      1392
    50.3800      1400
    50.4000      1350
    50.4200      1438
    50.4400      1418
    50.4600      1306
    50.4800      1266
    50.5000      1254
    50.5200      1274
    50.5400      1250
    50.5600      1142
    50.5800      1166
    50.6000      1198
    50.6200      1200
    50.6400      1248
    50.6600      1308
    50.6800      1368
    50.7000      1370
    50.7200      1468
    50.7400      1582
    50.7600      1566
    50.7800      1672
    50.8000      1736
    50.8200      1716
    50.8400      1656
    50.8600      1590
    50.8800      1588
    50.9000      1544
    50.9200      1474
    50.9400      1390
    50.9600      1398
    50.9800      1326
    51.0000      1182
    51.0200      1148
    51.0400      1028
    51.0600       962
    51.0800       896
    51.1000       880
    51.1200       856
    51.1400       840
    51.1600       770
    51.1800       748
    51.2000       758
    51.2200       784
    51.2400       806
    51.2600       776
    51.2800       760
    51.3000       778
    51.3200       824
    51.3400       784
    51.3600       844
    51.3800       842
    51.4000       868
    51.4200       828
    51.4400       866
    51.4600       842
    51.4800       898
    51.5000       852
    51.5200       850
    51.5400       856
    51.5600       816
    51.5800       822
    51.6000       884
    51.6200       876
    51.6400       872
    51.6600       952
    51.6800       962
    51.7000      1022
    51.7200      1014
    51.7400      1092
    51.7600      1086
    51.7800      1274
    51.8000      1312
    51.8200      1400
    51.8400      1506
    51.8600      1568
    51.8800      1706
    51.9000      1702
    51.9200      1768
    51.9400      1652
    51.9600      1634
    51.9800      1586
    52.0000      1554
    52.0200      1370
    52.0400      1358
    52.0600      1342
    52.0800      1238
    52.1000      1204
    52.1200      1026
    52.1400       988
    52.1600       912
    52.1800       798
    52.2000       838
    52.2200       736
    52.2400       690
    52.2600       696
    52.2800       634
    52.3000       658
    52.3200       632
    52.3400       640
    52.3600       700
    52.3800       696
    52.4000       718
    52.4200       698
    52.4400       718
    52.4600       844
    52.4800       876
    52.5000       934
    52.5200      1018
    52.5400      1004
    52.5600      1058
    52.5800      1132
    52.6000      1192
    52.6200      1198
    52.6400      1140
    52.6600      1094
    52.6800      1226
    52.7000      1114
    52.7200      1126
    52.7400      1118
    52.7600      1110
    52.7800      1064
    52.8000       976
    52.8200       992
    52.8400       952
    52.8600       876
    52.8800       828
    52.9000       732
    52.9200       722
    52.9400       758
    52.9600       722
    52.9800       708
    53.0000       724
    53.0200       716
    53.0400       714
    53.0600       720
    53.0800       746
    53.1000       726
    53.1200       804
    53.1400       846
    53.1600       912
    53.1800       948
    53.2000       986
    53.2200      1074
    53.2400      1198
    53.2600      1250
    53.2800      1344
    53.3000      1330
    53.3200      1262
    53.3400      1302
    53.3600      1262
    53.3800      1194
    53.4000      1186
    53.4200      1200
    53.4400      1098
    53.4600      1068
    53.4800      1022
    53.5000       920
    53.5200       922
    53.5400       800
    53.5600       808
    53.5800       714
    53.6000       660
    53.6200       642
    53.6400       638
    53.6600       600
    53.6800       562
    53.7000       600
    53.7200       554
    53.7400       526
    53.7600       548
    53.7800       500
    53.8000       558
    53.8200       480
    53.8400       472
    53.8600       442
    53.8800       492
    53.9000       476
    53.9200       462
    53.9400       482
    53.9600       428
    53.9800       454
    54.0000       458
    54.0200       424
    54.0400       436
    54.0600       500
    54.0800       454
    54.1000       498
    54.1200       468
    54.1400       482
    54.1600       506
    54.1800       518
    54.2000       590
    54.2200       554
    54.2400       552
    54.2600       592
    54.2800       574
    54.3000       644
    54.3200       624
    54.3400       632
    54.3600       590
    54.3800       640
    54.4000       654
    54.4200       668
    54.4400       646
    54.4600       676
    54.4800       604
    54.5000       632
    54.5200       646
    54.5400       610
    54.5600       608
    54.5800       654
    54.6000       654
    54.6200       706
    54.6400       688
    54.6600       678
    54.6800       754
    54.7000       710
    54.7200       788
    54.7400       832
    54.7600       788
    54.7800       794
    54.8000       826
    54.8200       798
    54.8400       832
    54.8600       774
    54.8800       766
    54.9000       804
    54.9200       792
    54.9400       756
    54.9600       830
    54.9800       852
    55.0000       858
    55.0200       790
    55.0400       872
    55.0600       898
    55.0800       916
    55.1000       966
    55.1200       902
    55.1400       942
    55.1600      1014
    55.1800      1048
    55.2000      1050
    55.2200      1084
    55.2400      1060
    55.2600      1028
    55.2800      1054
    55.3000       992
    55.3200       976
    55.3400       942
    55.3600       896
    55.3800       928
    55.4000       950
    55.4200       884
    55.4400       854
    55.4600       826
    55.4800       816
    55.5000       762
    55.5200       780
    55.5400       726
    55.5600       676
    55.5800       670
    55.6000       560
    55.6200       558
    55.6400       570
    55.6600       552
    55.6800       518
    55.7000       514
    55.7200       478
    55.7400       454
    55.7600       446
    55.7800       436
    55.8000       382
    55.8200       412
    55.8400       422
    55.8600       356
    55.8800       396
    55.9000       360
    55.9200       372
    55.9400       320
    55.9600       358
    55.9800       316
    56.0000       340
    56.0200       326
    56.0400       316
    56.0600       326
    56.0800       322
    56.1000       316
    56.1200       312
    56.1400       320
    56.1600       330
    56.1800       350
    56.2000       346
    56.2200       298
    56.2400       344
    56.2600       344
    56.2800       318
    56.3000       362
    56.3200       302
    56.3400       314
    56.3600       338
    56.3800       346
    56.4000       338
    56.4200       386
    56.4400       356
    56.4600       394
    56.4800       364
    56.5000       376
    56.5200       426
    56.5400       416
    56.5600       450
    56.5800       460
    56.6000       460
    56.6200       426
    56.6400       526
    56.6600       530
    56.6800       536
    56.7000       572
    56.7200       538
    56.7400       564
    56.7600       530
    56.7800       508
    56.8000       506
    56.8200       516
    56.8400       476
    56.8600       488
    56.8800       486
    56.9000       478
    56.9200       464
    56.9400       474
    56.9600       440
    56.9800       464
    57.0000       400
    57.0200       458
    57.0400       412
    57.0600       422
    57.0800       464
    57.1000       496
    57.1200       498
    57.1400       544
    57.1600       560
    57.1800       602
    57.2000       598
    57.2200       670
    57.2400       722
    57.2600       798
    57.2800       874
    57.3000       944
    57.3200      1078
    57.3400      1172
    57.3600      1124
    57.3800      1064
    57.4000      1224
    57.4200      1290
    57.4400      1306
    57.4600      1254
    57.4800      1228
    57.5000      1210
    57.5200      1200
    57.5400      1194
    57.5600      1186
    57.5800      1170
    57.6000      1100
    57.6200      1160
    57.6400      1152
    57.6600      1166
    57.6800      1156
    57.7000      1202
    57.7200      1280
    57.7400      1318
    57.7600      1294
    57.7800      1310
    57.8000      1218
    57.8200      1196
    57.8400      1122
    57.8600      1062
    57.8800      1046
    57.9000       996
    57.9200       960
    57.9400       950
    57.9600       932
    57.9800       828
    58.0000       836
    58.0200       764
    58.0400       762
    58.0600       724
    58.0800       674
    58.1000       682
    58.1200       650
    58.1400       708
    58.1600       676
    58.1800       718
    58.2000       750
    58.2200       798
    58.2400       822
    58.2600       872
    58.2800       902
    58.3000       892
    58.3200       944
    58.3400      1036
    58.3600      1078
    58.3800      1138
    58.4000      1238
    58.4200      1254
    58.4400      1356
    58.4600      1404
    58.4800      1510
    58.5000      1566
    58.5200      1602
    58.5400      1686
    58.5600      1742
    58.5800      1894
    58.6000      1846
    58.6200      1966
    58.6400      2000
    58.6600      2166
    58.6800      2188
    58.7000      2378
    58.7200      2242
    58.7400      2382
    58.7600      2352
    58.7800      2244
    58.8000      2196
    58.8200      2258
    58.8400      2076
    58.8600      1954
    58.8800      1958
    58.9000      1784
    58.9200      1768
    58.9400      1572
    58.9600      1586
    58.9800      1458
    59.0000      1338
    59.0200      1290
    59.0400      1162
    59.0600      1158
    59.0800       998
    59.1000       988
    59.1200       902
    59.1400       928
    59.1600       888
    59.1800       896
    59.2000       900
    59.2200       838
    59.2400       954
    59.2600       914
    59.2800       970
    59.3000       960
    59.3200       988
    59.3400       994
    59.3600      1054
    59.3800      1108
    59.4000      1126
    59.4200      1150
    59.4400      1248
    59.4600      1280
    59.4800      1322
    59.5000      1330
    59.5200      1308
    59.5400      1304
    59.5600      1246
    59.5800      1206
    59.6000      1142
    59.6200      1206
    59.6400      1100
    59.6600      1150
    59.6800      1090
    59.7000      1070
    59.7200      1084
    59.7400      1024
    59.7600      1040
    59.7800       932
    59.8000       938
    59.8200       980
    59.8400       940
    59.8600       890
    59.8800       922
    59.9000       816
    59.9200       912
    59.9400       860
    59.9600       770
    59.9800       714
    60.0000       706
    60.0200       684
    60.0400       738
    60.0600       628
    60.0800       652
    60.1000       664
    60.1200       552
    60.1400       576
    60.1600       520
    60.1800       518
    60.2000       500
    60.2200       498
    60.2400       502
    60.2600       460
    60.2800       442
    60.3000       420
    60.3200       408
    60.3400       412
    60.3600       418
    60.3800       404
    60.4000       430
    60.4200       376
    60.4400       406
    60.4600       388
    60.4800       428
    60.5000       400
    60.5200       380
    60.5400       378
    60.5600       412
    60.5800       398
    60.6000       420
    60.6200       400
    60.6400       414
    60.6600       422
    60.6800       406
    60.7000       402
    60.7200       376
    60.7400       402
    60.7600       410
    60.7800       400
    60.8000       404
    60.8200       472
    60.8400       474
    60.8600       498
    60.8800       494
    60.9000       490
    60.9200       474
    60.9400       534
    60.9600       530
    60.9800       564
    61.0000       604
    61.0200       548
    61.0400       600
    61.0600       670
    61.0800       652
    61.1000       654
    61.1200       734
    61.1400       752
    61.1600       736
    61.1800       720
    61.2000       762
    61.2200       872
    61.2400       840
    61.2600       880
    61.2800       834
    61.3000       944
    61.3200       962
    61.3400       936
    61.3600       974
    61.3800      1016
    61.4000       980
    61.4200      1060
    61.4400      1096
    61.4600      1114
    61.4800      1142
    61.5000      1122
    61.5200      1180
    61.5400      1142
    61.5600      1120
    61.5800      1110
    61.6000      1024
    61.6200      1016
    61.6400       918
    61.6600       878
    61.6800       884
    61.7000       864
    61.7200       806
    61.7400       748
    61.7600       726
    61.7800       694
    61.8000       644
    61.8200       652
    61.8400       684
    61.8600       560
    61.8800       572
    61.9000       532
    61.9200       508
    61.9400       524
    61.9600       536
    61.9800       504
    62.0000       532
    62.0200       486
    62.0400       540
    62.0600       546
    62.0800       486
    62.1000       516
    62.1200       496
    62.1400       490
    62.1600       502
    62.1800       466
    62.2000       476
    62.2200       464
    62.2400       510
    62.2600       460
    62.2800       426
    62.3000       424
    62.3200       458
    62.3400       426
    62.3600       446
    62.3800       442
    62.4000       432
    62.4200       390
    62.4400       392
    62.4600       406
    62.4800       428
    62.5000       378
    62.5200       420
    62.5400       408
    62.5600       382
    62.5800       382
    62.6000       404
    62.6200       364
    62.6400       362
    62.6600       380
    62.6800       424
    62.7000       382
    62.7200       344
    62.7400       380
    62.7600       368
    62.7800       370
    62.8000       376
    62.8200       354
    62.8400       406
    62.8600       354
    62.8800       342
    62.9000       356
    62.9200       380
    62.9400       356
    62.9600       328
    62.9800       340
    63.0000       316
    63.0200       346
    63.0400       354
    63.0600       348
    63.0800       312
    63.1000       296
    63.1200       286
    63.1400       290
    63.1600       306
    63.1800       270
    63.2000       296
    63.2200       284
    63.2400       256
    63.2600       270
    63.2800       256
    63.3000       282
    63.3200       264
    63.3400       278
    63.3600       290
    63.3800       296
    63.4000       300
    63.4200       280
    63.4400       296
    63.4600       310
    63.4800       330
    63.5000       310
    63.5200       330
    63.5400       354
    63.5600       346
    63.5800       400
    63.6000       352
    63.6200       368
    63.6400       408
    63.6600       454
    63.6800       468
    63.7000       450
    63.7200       526
    63.7400       512
    63.7600       548
    63.7800       574
    63.8000       602
    63.8200       636
    63.8400       664
    63.8600       742
    63.8800       674
    63.9000       656
    63.9200       658
    63.9400       618
    63.9600       602
    63.9800       614
    64.0000       590
    64.0200       564
    64.0400       570
    64.0600       570
    64.0800       512
    64.1000       488
    64.1200       442
    64.1400       506
    64.1600       450
    64.1800       460
    64.2000       422
    64.2200       402
    64.2400       400
    64.2600       362
    64.2800       368
    64.3000       352
    64.3200       346
    64.3400       326
    64.3600       328
    64.3800       304
    64.4000       328
    64.4200       314
    64.4400       292
    64.4600       354
    64.4800       320
    64.5000       282
    64.5200       332
    64.5400       296
    64.5600       300
    64.5800       290
    64.6000       298
    64.6200       310
    64.6400       330
    64.6600       316
    64.6800       316
    64.7000       312
    64.7200       314
    64.7400       334
    64.7600       348
    64.7800       364
    64.8000       346
    64.8200       374
    64.8400       414
    64.8600       404
    64.8800       440
    64.9000       472
    64.9200       478
    64.9400       452
    64.9600       456
    64.9800       502
    65.0000       498
    65.0200       564
    65.0400       506
    65.0600       560
    65.0800       550
    65.1000       556
    65.1200       590
    65.1400       598
    65.1600       604
    65.1800       580
    65.2000       558
    65.2200       614
    65.2400       608
    65.2600       592
    65.2800       546
    65.3000       526
    65.3200       524
    65.3400       538
    65.3600       500
    65.3800       528
    65.4000       494
    65.4200       508
    65.4400       492
    65.4600       508
    65.4800       516
    65.5000       458
    65.5200       440
    65.5400       480
    65.5600       442
    65.5800       442
    65.6000       422
    65.6200       418
    65.6400       424
    65.6600       410
    65.6800       426
    65.7000       378
    65.7200       372
    65.7400       404
    65.7600       360
    65.7800       360
    65.8000       306
    65.8200       328
    65.8400       356
    65.8600       346
    65.8800       338
    65.9000       316
    65.9200       292
    65.9400       328
    65.9600       318
    65.9800       294
    66.0000       298
    66.0200       284
    66.0400       282
    66.0600       288
    66.0800       254
    66.1000       282
    66.1200       284
    66.1400       298
    66.1600       292
    66.1800       258
    66.2000       316
    66.2200       270
    66.2400       286
    66.2600       290
    66.2800       290
    66.3000       302
    66.3200       320
    66.3400       304
    66.3600       328
    66.3800       332
    66.4000       334
    66.4200       330
    66.4400       346
    66.4600       336
    66.4800       392
    66.5000       350
    66.5200       354
    66.5400       372
    66.5600       358
    66.5800       440
    66.6000       376
    66.6200       406
    66.6400       412
    66.6600       434
    66.6800       474
    66.7000       532
    66.7200       558
    66.7400       528
    66.7600       608
    66.7800       596
    66.8000       698
    66.8200       662
    66.8400       686
    66.8600       740
    66.8800       714
    66.9000       722
    66.9200       786
    66.9400       844
    66.9600       706
    66.9800       762
    67.0000       806
    67.0200       736
    67.0400       720
    67.0600       714
    67.0800       678
    67.1000       642
    67.1200       642
    67.1400       612
    67.1600       556
    67.1800       568
    67.2000       562
    67.2200       502
    67.2400       478
    67.2600       408
    67.2800       478
    67.3000       416
    67.3200       396
    67.3400       412
    67.3600       406
    67.3800       372
    67.4000       342
    67.4200       320
    67.4400       352
    67.4600       336
    67.4800       312
    67.5000       336
    67.5200       318
    67.5400       304
    67.5600       328
    67.5800       306
    67.6000       292
    67.6200       300
    67.6400       314
    67.6600       324
    67.6800       332
    67.7000       338
    67.7200       326
    67.7400       366
    67.7600       330
    67.7800       318
    67.8000       352
    67.8200       362
    67.8400       374
    67.8600       394
    67.8800       400
    67.9000       426
    67.9200       452
    67.9400       492
    67.9600       512
    67.9800       562
    68.0000       586
    68.0200       586
    68.0400       666
    68.0600       682
    68.0800       702
    68.1000       758
    68.1200       794
    68.1400       902
    68.1600       948
    68.1800       958
    68.2000       954
    68.2200       964
    68.2400       950
    68.2600       926
    68.2800       910
    68.3000       940
    68.3200       940
    68.3400       924
    68.3600       884
    68.3800       804
    68.4000       806
    68.4200       786
    68.4400       744
    68.4600       752
    68.4800       716
    68.5000       666
    68.5200       658
    68.5400       606
    68.5600       558
    68.5800       540
    68.6000       512
    68.6200       478
    68.6400       498
    68.6600       484
    68.6800       428
    68.7000       426
    68.7200       390
    68.7400       386
    68.7600       368
    68.7800       398
    68.8000       362
    68.8200       338
    68.8400       346
    68.8600       366
    68.8800       318
    68.9000       356
    68.9200       342
    68.9400       320
    68.9600       348
    68.9800       326
    69.0000       334
    69.0200       320
    69.0400       350
    69.0600       342
    69.0800       362
    69.1000       360
    69.1200       338
    69.1400       344
    69.1600       328
    69.1800       318
    69.2000       314
    69.2200       360
    69.2400       382
    69.2600       408
    69.2800       376
    69.3000       450
    69.3200       408
    69.3400       382
    69.3600       442
    69.3800       416
    69.4000       428
    69.4200       468
    69.4400       466
    69.4600       454
    69.4800       464
    69.5000       436
    69.5200       458
    69.5400       460
    69.5600       458
    69.5800       422
    69.6000       442
    69.6200       434
    69.6400       414
    69.6600       448
    69.6800       388
    69.7000       412
    69.7200       376
    69.7400       412
    69.7600       392
    69.7800       428
    69.8000       382
    69.8200       392
    69.8400       366
    69.8600       356
    69.8800       388
    69.9000       350
    69.9200       354
    69.9400       346
    69.9600       324
    69.9800       352
    70.0000       314
    70.0200       314
    70.0400       350
    70.0600       286
    70.0800       320
    70.1000       274
    70.1200       310
    70.1400       272
    70.1600       272
    70.1800       266
    70.2000       284
    70.2200       262
    70.2400       240
    70.2600       258
    70.2800       244
    70.3000       258
    70.3200       236
    70.3400       238
    70.3600       276
    70.3800       276
    70.4000       222
    70.4200       248
    70.4400       240
    70.4600       244
    70.4800       246
    70.5000       222
    70.5200       214
    70.5400       218
    70.5600       226
    70.5800       226
    70.6000       230
    70.6200       234
    70.6400       224
    70.6600       246
    70.6800       270
    70.7000       246
    70.7200       226
    70.7400       206
    70.7600       234
    70.7800       228
    70.8000       238
    70.8200       202
    70.8400       236
    70.8600       232
    70.8800       232
    70.9000       232
    70.9200       200
    70.9400       230
    70.9600       230
    70.9800       226
    71.0000       214
    71.0200       236
    71.0400       220
    71.0600       222
    71.0800       232
    71.1000       230
    71.1200       208
    71.1400       262
    71.1600       248
    71.1800       266
    71.2000       272
    71.2200       274
    71.2400       236
    71.2600       286
    71.2800       280
    71.3000       266
    71.3200       318
    71.3400       338
    71.3600       352
    71.3800       372
    71.4000       366
    71.4200       372
    71.4400       408
    71.4600       482
    71.4800       474
    71.5000       458
    71.5200       494
    71.5400       488
    71.5600       530
    71.5800       502
    71.6000       500
    71.6200       472
    71.6400       516
    71.6600       476
    71.6800       478
    71.7000       472
    71.7200       490
    71.7400       466
    71.7600       448
    71.7800       486
    71.8000       426
    71.8200       460
    71.8400       410
    71.8600       408
    71.8800       464
    71.9000       360
    71.9200       436
    71.9400       390
    71.9600       420
    71.9800       404
    72.0000       400
    72.0200       382
    72.0400       406
    72.0600       382
    72.0800       380
    72.1000       394
    72.1200       396
    72.1400       394
    72.1600       382
    72.1800       384
    72.2000       430
    72.2200       426
    72.2400       366
    72.2600       418
    72.2800       472
    72.3000       440
    72.3200       418
    72.3400       440
    72.3600       482
    72.3800       460
    72.4000       480
    72.4200       468
    72.4400       460
    72.4600       464
    72.4800       452
    72.5000       468
    72.5200       482
    72.5400       476
    72.5600       508
    72.5800       488
    72.6000       510
    72.6200       478
    72.6400       468
    72.6600       490
    72.6800       468
    72.7000       510
    72.7200       532
    72.7400       524
    72.7600       554
    72.7800       524
    72.8000       494
    72.8200       526
    72.8400       558
    72.8600       476
    72.8800       536
    72.9000       504
    72.9200       462
    72.9400       450
    72.9600       464
    72.9800       460
    73.0000       456
    73.0200       458
    73.0400       420
    73.0600       442
    73.0800       406
    73.1000       408
    73.1200       362
    73.1400       332
    73.1600       338
    73.1800       324
    73.2000       314
    73.2200       316
    73.2400       324
    73.2600       286
    73.2800       316
    73.3000       254
    73.3200       260
    73.3400       294
    73.3600       240
    73.3800       262
    73.4000       278
    73.4200       266
    73.4400       298
    73.4600       294
    73.4800       274
    73.5000       266
    73.5200       258
    73.5400       270
    73.5600       250
    73.5800       228
    73.6000       290
    73.6200       300
    73.6400       282
    73.6600       258
    73.6800       290
    73.7000       286
    73.7200       298
    73.7400       292
    73.7600       298
    73.7800       294
    73.8000       298
    73.8200       320
    73.8400       310
    73.8600       324
    73.8800       336
    73.9000       328
    73.9200       330
    73.9400       362
    73.9600       344
    73.9800       342
    74.0000       336
    74.0200       294
    74.0400       342
    74.0600       308
    74.0800       332
    74.1000       372
    74.1200       324
    74.1400       330
    74.1600       314
    74.1800       346
    74.2000       318
    74.2200       294
    74.2400       312
    74.2600       302
    74.2800       298
    74.3000       298
    74.3200       288
    74.3400       288
    74.3600       274
    74.3800       288
    74.4000       262
    74.4200       256
    74.4400       232
    74.4600       256
    74.4800       230
    74.5000       226
    74.5200       242
    74.5400       218
    74.5600       248
    74.5800       202
    74.6000       236
    74.6200       214
    74.6400       208
    74.6600       212
    74.6800       184
    74.7000       194
    74.7200       202
    74.7400       206
    74.7600       188
    74.7800       198
    74.8000       196
    74.8200       188
    74.8400       224
    74.8600       202
    74.8800       208
    74.9000       186
    74.9200       214
    74.9400       218
    74.9600       248
    74.9800       200
    75.0000       226
    75.0200       218
    75.0400       218
    75.0600       194
    75.0800       244
    75.1000       214
    75.1200       250
    75.1400       212
    75.1600       230
    75.1800       252
    75.2000       222
    75.2200       228
    75.2400       244
    75.2600       234
    75.2800       222
    75.3000       238
    75.3200       248
    75.3400       250
    75.3600       266
    75.3800       260
    75.4000       252
    75.4200       222
    75.4400       226
    75.4600       212
    75.4800       232
    75.5000       240
    75.5200       278
    75.5400       268
    75.5600       248
    75.5800       250
    75.6000       268
    75.6200       242
    75.6400       254
    75.6600       272
    75.6800       270
    75.7000       272
    75.7200       250
    75.7400       242
    75.7600       270
    75.7800       244
    75.8000       284
    75.8200       258
    75.8400       286
    75.8600       250
    75.8800       258
    75.9000       248
    75.9200       246
    75.9400       230
    75.9600       250
    75.9800       254
    76.0000       250
    76.0200       238
    76.0400       280
    76.0600       278
    76.0800       282
    76.1000       248
    76.1200       240
    76.1400       250
    76.1600       272
    76.1800       252
    76.2000       238
    76.2200       312
    76.2400       258
    76.2600       264
    76.2800       294
    76.3000       290
    76.3200       300
    76.3400       314
    76.3600       334
    76.3800       314
    76.4000       316
    76.4200       348
    76.4400       378
    76.4600       336
    76.4800       344
    76.5000       328
    76.5200       354
    76.5400       366
    76.5600       360
    76.5800       390
    76.6000       360
    76.6200       404
    76.6400       366
    76.6600       370
    76.6800       380
    76.7000       358
    76.7200       372
    76.7400       394
    76.7600       396
    76.7800       384
    76.8000       328
    76.8200       336
    76.8400       374
    76.8600       346
    76.8800       350
    76.9000       372
    76.9200       344
    76.9400       296
    76.9600       356
    76.9800       324
    77.0000       322
    77.0200       312
    77.0400       340
    77.0600       316
    77.0800       342
    77.1000       330
    77.1200       306
    77.1400       290
    77.1600       324
    77.1800       320
    77.2000       314
    77.2200       318
    77.2400       314
    77.2600       348
    77.2800       352
    77.3000       360
    77.3200       370
    77.3400       356
    77.3600       346
    77.3800       368
    77.4000       388
    77.4200       418
    77.4400       418
    77.4600       480
    77.4800       468
    77.5000       452
    77.5200       476
    77.5400       518
    77.5600       588
    77.5800       574
    77.6000       624
    77.6200       594
    77.6400       640
    77.6600       634
    77.6800       654
    77.7000       634
    77.7200       672
    77.7400       648
    77.7600       646
    77.7800       606
    77.8000       666
    77.8200       614
    77.8400       620
    77.8600       594
    77.8800       590
    77.9000       582
    77.9200       602
    77.9400       590
    77.9600       566
    77.9800       518
    78.0000       516
    78.0200       516
    78.0400       500
    78.0600       424
    78.0800       434
    78.1000       478
    78.1200       452
    78.1400       422
    78.1600       398
    78.1800       384
    78.2000       370
    78.2200       370
    78.2400       356
    78.2600       380
    78.2800       364
    78.3000       354
    78.3200       378
    78.3400       364
    78.3600       350
    78.3800       384
    78.4000       364
    78.4200       358
    78.4400       358
    78.4600       354
    78.4800       418
    78.5000       374
    78.5200       422
    78.5400       372
    78.5600       406
    78.5800       394
    78.6000       394
    78.6200       384
    78.6400       386
    78.6600       396
    78.6800       412
    78.7000       462
    78.7200       410
    78.7400       390
    78.7600       386
    78.7800       382
    78.8000       428
    78.8200       450
    78.8400       380
    78.8600       372
    78.8800       348
    78.9000       354
    78.9200       318
    78.9400       374
    78.9600       366
    78.9800       302
    79.0000       350
    79.0200       296
    79.0400       312
    79.0600       314
    79.0800       272
    79.1000       278
    79.1200       264
    79.1400       286
    79.1600       284
    79.1800       284
    79.2000       256
    79.2200       278
    79.2400       250
    79.2600       248
    79.2800       244
    79.3000       246
    79.3200       252
    79.3400       284
    79.3600       258
    79.3800       230
    79.4000       246
    79.4200       260
    79.4400       232
    79.4600       272
    79.4800       260
    79.5000       224
    79.5200       248
    79.5400       228
    79.5600       230
    79.5800       258
    79.6000       226
    79.6200       222
    79.6400       260
    79.6600       256
    79.6800       244
    79.7000       250
    79.7200       256
    79.7400       238
    79.7600       278
    79.7800       250
    79.8000       268
    79.8200       234
    79.8400       248
    79.8600       236
    79.8800       260
    79.9000       254
    79.9200       264
    79.9400       254
    79.9600       256
    79.9800       260
    80.0000       276
    80.0200       232
    80.0400       240
    80.0600       230
    80.0800       234
    80.1000       214
    80.1200       210
    80.1400       220
    80.1600       240
    80.1800       256
    80.2000       254
    80.2200       262
    80.2400       254
    80.2600       260
    80.2800       240
    80.3000       236
    80.3200       258
    80.3400       276
    80.3600       262
    80.3800       264
    80.4000       246
    80.4200       250
    80.4400       278
    80.4600       256
    80.4800       280
    80.5000       262
    80.5200       276
    80.5400       282
    80.5600       280
    80.5800       266
    80.6000       284
    80.6200       288
    80.6400       292
    80.6600       240
    80.6800       280
    80.7000       268
    80.7200       250
    80.7400       280
    80.7600       268
    80.7800       296
    80.8000       234
    80.8200       240
    80.8400       262
    80.8600       262
    80.8800       224
    80.9000       270
    80.9200       208
    80.9400       220
    80.9600       240
    80.9800       252
    81.0000       214
    81.0200       240
    81.0400       236
    81.0600       220
    81.0800       248
    81.1000       204
    81.1200       206
    81.1400       242
    81.1600       260
    81.1800       196
    81.2000       220
    81.2200       272
    81.2400       218
    81.2600       252
    81.2800       230
    81.3000       246
    81.3200       252
    81.3400       242
    81.3600       236
    81.3800       252
    81.4000       270
    81.4200       258
    81.4400       248
    81.4600       240
    81.4800       296
    81.5000       250
    81.5200       282
    81.5400       256
    81.5600       270
    81.5800       266
    81.6000       274
    81.6200       278
    81.6400       282
    81.6600       264
    81.6800       282
    81.7000       284
    81.7200       302
    81.7400       290
    81.7600       282
    81.7800       302
    81.8000       288
    81.8200       280
    81.8400       332
    81.8600       332
    81.8800       272
    81.9000       296
    81.9200       298
    81.9400       320
    81.9600       314
    81.9800       324
    82.0000       330
    82.0200       324
    82.0400       346
    82.0600       322
    82.0800       382
    82.1000       356
    82.1200       332
    82.1400       370
    82.1600       342
    82.1800       380
    82.2000       404
    82.2200       344
    82.2400       352
    82.2600       362
    82.2800       370
    82.3000       402
    82.3200       334
    82.3400       374
    82.3600       424
    82.3800       408
    82.4000       394
    82.4200       396
    82.4400       444
    82.4600       436
    82.4800       444
    82.5000       400
    82.5200       462
    82.5400       470
    82.5600       460
    82.5800       464
    82.6000       508
    82.6200       444
    82.6400       508
    82.6600       528
    82.6800       504
    82.7000       506
    82.7200       528
    82.7400       550
    82.7600       594
    82.7800       618
    82.8000       654
    82.8200       606
    82.8400       652
    82.8600       644
    82.8800       630
    82.9000       626
    82.9200       682
    82.9400       608
    82.9600       616
    82.9800       546
    83.0000       580
    83.0200       564
    83.0400       572
    83.0600       552
    83.0800       524
    83.1000       560
    83.1200       520
    83.1400       506
    83.1600       476
    83.1800       524
    83.2000       492
    83.2200       466
    83.2400       482
    83.2600       462
    83.2800       454
    83.3000       434
    83.3200       426
    83.3400       366
    83.3600       404
    83.3800       398
    83.4000       372
    83.4200       394
    83.4400       362
    83.4600       380
    83.4800       364
    83.5000       342
    83.5200       388
    83.5400       308
    83.5600       318
    83.5800       348
    83.6000       324
    83.6200       324
    83.6400       302
    83.6600       322
    83.6800       286
    83.7000       320
    83.7200       314
    83.7400       328
    83.7600       310
    83.7800       268
    83.8000       320
    83.8200       294
    83.8400       308
    83.8600       308
    83.8800       300
    83.9000       308
    83.9200       294
    83.9400       332
    83.9600       258
    83.9800       314
    84.0000       280
    84.0200       270
    84.0400       304
    84.0600       324
    84.0800       284
    84.1000       326
    84.1200       304
    84.1400       328
    84.1600       320
    84.1800       286
    84.2000       306
    84.2200       332
    84.2400       312
    84.2600       312
    84.2800       300
    84.3000       314
    84.3200       318
    84.3400       330
    84.3600       300
    84.3800       300
    84.4000       294
    84.4200       296
    84.4400       332
    84.4600       312
    84.4800       306
    84.5000       320
    84.5200       314
    84.5400       322
    84.5600       302
    84.5800       324
    84.6000       296
    84.6200       314
    84.6400       310
    84.6600       282
    84.6800       266
    84.7000       334
    84.7200       318
    84.7400       292
    84.7600       292
    84.7800       310
    84.8000       304
    84.8200       292
    84.8400       268
    84.8600       308
    84.8800       306
    84.9000       286
    84.9200       266
    84.9400       262
    84.9600       268
    84.9800       240
    85.0000       244
    85.0200       230
    85.0400       254
    85.0600       266
    85.0800       246
    85.1000       226
    85.1200       234
    85.1400       244
    85.1600       262
    85.1800       244
    85.2000       246
    85.2200       244
    85.2400       246
    85.2600       220
    85.2800       256
    85.3000       238
    85.3200       248
    85.3400       240
    85.3600       240
    85.3800       276
    85.4000       264
    85.4200       274
    85.4400       250
    85.4600       282
    85.4800       240
    85.5000       254
    85.5200       278
    85.5400       262
    85.5600       272
    85.5800       292
    85.6000       272
    85.6200       318
    85.6400       308
    85.6600       296
    85.6800       266
    85.7000       276
    85.7200       336
    85.7400       280
    85.7600       300
    85.7800       268
    85.8000       260
    85.8200       296
    85.8400       306
    85.8600       266
    85.8800       292
    85.9000       278
    85.9200       236
    85.9400       254
    85.9600       276
    85.9800       292
    86.0000       276
    86.0200       258
    86.0400       240
    86.0600       272
    86.0800       250
    86.1000       246
    86.1200       240
    86.1400       284
    86.1600       220
    86.1800       230
    86.2000       232
    86.2200       242
    86.2400       230
    86.2600       232
    86.2800       246
    86.3000       252
    86.3200       242
    86.3400       220
    86.3600       260
    86.3800       244
    86.4000       244
    86.4200       236
    86.4400       234
    86.4600       256
    86.4800       274
    86.5000       254
    86.5200       274
    86.5400       244
    86.5600       256
    86.5800       248
    86.6000       252
    86.6200       252
    86.6400       280
    86.6600       298
    86.6800       290
    86.7000       270
    86.7200       296
    86.7400       276
    86.7600       302
    86.7800       260
    86.8000       344
    86.8200       300
    86.8400       326
    86.8600       308
    86.8800       344
    86.9000       306
    86.9200       352
    86.9400       346
    86.9600       320
    86.9800       336
    87.0000       326
    87.0200       364
    87.0400       358
    87.0600       330
    87.0800       354
    87.1000       318
    87.1200       306
    87.1400       340
    87.1600       306
    87.1800       300
    87.2000       320
    87.2200       324
    87.2400       324
    87.2600       316
    87.2800       300
    87.3000       356
    87.3200       284
    87.3400       282
    87.3600       310
    87.3800       306
    87.4000       304
    87.4200       308
    87.4400       336
    87.4600       328
    87.4800       300
    87.5000       354
    87.5200       326
    87.5400       326
    87.5600       314
    87.5800       328
    87.6000       328
    87.6200       308
    87.6400       352
    87.6600       350
    87.6800       316
    87.7000       336
    87.7200       336
    87.7400       326
    87.7600       330
    87.7800       322
    87.8000       328
    87.8200       360
    87.8400       352
    87.8600       354
    87.8800       376
    87.9000       328
    87.9200       378
    87.9400       336
    87.9600       376
    87.9800       348
    88.0000       334
    88.0200       372
    88.0400       342
    88.0600       342
    88.0800       368
    88.1000       388
    88.1200       362
    88.1400       378
    88.1600       346
    88.1800       408
    88.2000       364
    88.2200       342
    88.2400       384
    88.2600       372
    88.2800       352
    88.3000       386
    88.3200       338
    88.3400       364
    88.3600       410
    88.3800       358
    88.4000       384
    88.4200       368
    88.4400       382
    88.4600       380
    88.4800       366
    88.5000       382
    88.5200       358
    88.5400       372
    88.5600       402
    88.5800       344
    88.6000       372
    88.6200       328
    88.6400       340
    88.6600       364
    88.6800       310
    88.7000       326
    88.7200       356
    88.7400       328
    88.7600       338
    88.7800       290
    88.8000       300
    88.8200       298
    88.8400       300
    88.8600       330
    88.8800       308
    88.9000       322
    88.9200       278
    88.9400       284
    88.9600       266
    88.9800       274
    89.0000       286
    89.0200       270
    89.0400       288
    89.0600       250
    89.0800       276
    89.1000       234
    89.1200       268
    89.1400       284
    89.1600       242
    89.1800       226
    89.2000       236
    89.2200       232
    89.2400       230
    89.2600       248
    89.2800       256
    89.3000       212
    89.3200       212
    89.3400       224
    89.3600       238
    89.3800       250
    89.4000       244
    89.4200       216
    89.4400       266
    89.4600       248
    89.4800       266
    89.5000       222
    89.5200       232
    89.5400       256
    89.5600       228
    89.5800       242
    89.6000       238
    89.6200       248
    89.6400       278
    89.6600       280
    89.6800       276
    89.7000       272
    89.7200       270
    89.7400       270
    89.7600       276
    89.7800       266
    89.8000       276
    89.8200       276
    89.8400       284
    89.8600       280
    89.8800       286
    89.9000       298
    89.9200       268
    89.9400       296
    89.9600       288
    89.9800       296
    90.0000       318
