    10.0000       344
    10.0200       362
    10.0400       346
    10.0600       344
    10.0800       354
    10.1000       388
    10.1200       378
    10.1400       366
    10.1600       352
    10.1800       346
    10.2000       362
    10.2200       346
    10.2400       386
    10.2600       362
    10.2800       362
    10.3000       334
    10.3200       350
    10.3400       362
    10.3600       364
    10.3800       386
    10.4000       368
    10.4200       350
    10.4400       364
    10.4600       336
    10.4800       352
    10.5000       386
    10.5200       346
    10.5400       350
    10.5600       376
    10.5800       356
    10.6000       358
    10.6200       342
    10.6400       368
    10.6600       374
    10.6800       346
    10.7000       358
    10.7200       364
    10.7400       334
    10.7600       344
    10.7800       342
    10.8000       350
    10.8200       334
    10.8400       368
    10.8600       298
    10.8800       328
    10.9000       284
    10.9200       334
    10.9400       366
    10.9600       332
    10.9800       380
    11.0000       360
    11.0200       356
    11.0400       326
    11.0600       322
    11.0800       342
    11.1000       340
    11.1200       338
    11.1400       312
    11.1600       338
    11.1800       348
    11.2000       322
    11.2200       348
    11.2400       338
    11.2600       306
    11.2800       276
    11.3000       338
    11.3200       358
    11.3400       304
    11.3600       344
    11.3800       336
    11.4000       334
    11.4200       322
    11.4400       336
    11.4600       298
    11.4800       332
    11.5000       328
    11.5200       324
    11.5400       338
    11.5600       366
    11.5800       356
    11.6000       308
    11.6200       330
    11.6400       356
    11.6600       334
    11.6800       330
    11.7000       316
    11.7200       314
    11.7400       356
    11.7600       334
    11.7800       350
    11.8000       354
    11.8200       382
    11.8400       366
    11.8600       386
    11.8800       382
    11.9000       396
    11.9200       322
    11.9400       386
    11.9600       422
    11.9800       462
    12.0000       440
    12.0200       436
    12.0400       484
    12.0600       522
    12.0800       596
    12.1000       562
    12.1200       630
    12.1400       626
    12.1600       714
    12.1800       708
    12.2000       712
    12.2200       698
    12.2400       672
    12.2600       610
    12.2800       540
    12.3000       482
    12.3200       392
    12.3400       372
    12.3600       344
    12.3800       352
    12.4000       352
    12.4200       322
    12.4400       334
    12.4600       332
    12.4800       292
    12.5000       306
    12.5200       284
    12.5400       274
    12.5600       316
    12.5800       304
    12.6000       304
    12.6200       310
    12.6400       278
    12.6600       314
    12.6800       300
    12.7000       312
    12.7200       290
    12.7400       304
    12.7600       306
    12.7800       314
    12.8000       324
    12.8200       284
    12.8400       274
    12.8600       300
    12.8800       254
    12.9000       334
    12.9200       282
    12.9400       272
    12.9600       262
    12.9800       282
    13.0000       266
    13.0200       298
    13.0400       284
    13.0600       318
    13.0800       274
    13.1000       260
    13.1200       298
    13.1400       310
    13.1600       292
    13.1800       268
    13.2000       290
    13.2200       250
    13.2400       286
    13.2600       294
    13.2800       262
    13.3000       230
    13.3200       272
    13.3400       264
    13.3600       278
    13.3800       274
    13.4000       252
    13.4200       246
    13.4400       258
    13.4600       262
    13.4800       264
    13.5000       268
    13.5200       276
    13.5400       278
    13.5600       280
    13.5800       246
    13.6000       252
    13.6200       290
    13.6400       272
    13.6600       244
    13.6800       294
    13.7000       256
    13.7200       244
    13.7400       280
    13.7600       272
    13.7800       280
    13.8000       272
    13.8200       310
    13.8400       274
    13.8600       262
    13.8800       302
    13.9000       232
    13.9200       256
    13.9400       242
    13.9600       250
    13.9800       294
    14.0000       278
    14.0200       234
    14.0400       294
    14.0600       254
    14.0800       250
    14.1000       270
    14.1200       242
    14.1400       244
    14.1600       244
    14.1800       258
    14.2000       240
    14.2200       260
    14.2400       278
    14.2600       268
    14.2800       258
    14.3000       264
    14.3200       262
    14.3400       266
    14.3600       256
    14.3800       220
    14.4000       276
    14.4200       276
    14.4400       276
    14.4600       270
    14.4800       256
    14.5000       252
    14.5200       282
    14.5400       246
    14.5600       282
    14.5800       242
    14.6000       254
    14.6200       304
    14.6400       262
    14.6600       288
    14.6800       288
    14.7000       260
    14.7200       292
    14.7400       310
    14.7600       308
    14.7800       308
    14.8000       296
    14.8200       316
    14.8400       316
    14.8600       354
    14.8800       368
    14.9000       384
    14.9200       396
    14.9400       434
    14.9600       428
    14.9800       454
    15.0000       454
    15.0200       560
    15.0400       564
    15.0600       582
    15.0800       602
    15.1000       594
    15.1200       622
    15.1400       638
    15.1600       654
    15.1800       626
    15.2000       612
    15.2200       604
    15.2400       530
    15.2600       466
    15.2800       418
    15.3000       376
    15.3200       364
    15.3400       338
    15.3600       308
    15.3800       300
    15.4000       302
    15.4200       282
    15.4400       266
    15.4600       308
    15.4800       244
    15.5000       230
    15.5200       224
    15.5400       270
    15.5600       244
    15.5800       244
    15.6000       266
    15.6200       244
    15.6400       264
    15.6600       216
    15.6800       262
    15.7000       266
    15.7200       216
    15.7400       250
    15.7600       248
    15.7800       260
    15.8000       262
    15.8200       214
    15.8400       228
    15.8600       252
    15.8800       250
    15.9000       252
    15.9200       282
    15.9400       230
    15.9600       246
    15.9800       238
    16.0000       226
    16.0200       270
    16.0400       222
    16.0600       248
    16.0800       242
    16.1000       290
    16.1200       234
    16.1400       208
    16.1600       256
    16.1800       242
    16.2000       260
    16.2200       230
    16.2400       240
    16.2600       236
    16.2800       268
    16.3000       258
    16.3200       250
    16.3400       248
    16.3600       254
    16.3800       270
    16.4000       252
    16.4200       240
    16.4400       250
    16.4600       218
    16.4800       264
    16.5000       242
    16.5200       262
    16.5400       274
    16.5600       254
    16.5800       304
    16.6000       238
    16.6200       240
    16.6400       276
    16.6600       276
    16.6800       290
    16.7000       326
    16.7200       332
    16.7400       342
    16.7600       374
    16.7800       336
    16.8000       378
    16.8200       408
    16.8400       450
    16.8600       440
    16.8800       498
    16.9000       534
    16.9200       574
    16.9400       640
    16.9600       692
    16.9800       808
    17.0000       954
    17.0200       954
    17.0400      1054
    17.0600      1106
    17.0800      1072
    17.1000      1112
    17.1200      1072
    17.1400      1026
    17.1600       946
    17.1800       872
    17.2000       840
    17.2200       824
    17.2400       824
    17.2600       810
    17.2800       796
    17.3000       766
    17.3200       710
    17.3400       612
    17.3600       614
    17.3800       534
    17.4000       528
    17.4200       458
    17.4400       496
    17.4600       448
    17.4800       464
    17.5000       388
    17.5200       400
    17.5400       396
    17.5600       396
    17.5800       390
    17.6000       362
    17.6200       396
    17.6400       414
    17.6600       386
    17.6800       400
    17.7000       404
    17.7200       422
    17.7400       434
    17.7600       402
    17.7800       442
    17.8000       420
    17.8200       370
    17.8400       346
    17.8600       334
    17.8800       334
    17.9000       308
    17.9200       254
    17.9400       290
    17.9600       246
    17.9800       226
    18.0000       270
    18.0200       246
    18.0400       244
    18.0600       260
    18.0800       212
    18.1000       260
    18.1200       216
    18.1400       200
    18.1600       238
    18.1800       222
    18.2000       228
    18.2200       206
    18.2400       228
    18.2600       252
    18.2800       216
    18.3000       230
    18.3200       196
    18.3400       232
    18.3600       236
    18.3800       214
    18.4000       238
    18.4200       218
    18.4400       242
    18.4600       218
    18.4800       212
    18.5000       206
    18.5200       258
    18.5400       232
    18.5600       226
    18.5800       258
    18.6000       244
    18.6200       250
    18.6400       244
    18.6600       234
    18.6800       258
    18.7000       274
    18.7200       300
    18.7400       280
    18.7600       318
    18.7800       324
    18.8000       356
    18.8200       358
    18.8400       368
    18.8600       392
    18.8800       416
    18.9000       460
    18.9200       450
    18.9400       470
    18.9600       462
    18.9800       432
    19.0000       414
    19.0200       432
    19.0400       398
    19.0600       410
    19.0800       392
    19.1000       352
    19.1200       420
    19.1400       400
    19.1600       416
    19.1800       474
    19.2000       512
    19.2200       536
    19.2400       532
    19.2600       580
    19.2800       636
    19.3000       720
    19.3200       790
    19.3400       882
    19.3600       984
    19.3800      1128
    19.4000      1262
    19.4200      1490
    19.4400      1646
    19.4600      1854
    19.4800      2096
    19.5000      2352
    19.5200      2518
    19.5400      2666
    19.5600      2744
    19.5800      2494
    19.6000      2268
    19.6200      2022
    19.6400      1622
    19.6600      1364
    19.6800      1194
    19.7000      1000
    19.7200      1010
    19.7400       936
    19.7600       908
    19.7800       960
    19.8000      1000
    19.8200      1146
    19.8400      1230
    19.8600      1304
    19.8800      1458
    19.9000      1612
    19.9200      1832
    19.9400      1920
    19.9600      2066
    19.9800      2104
    20.0000      2008
    20.0200      1958
    20.0400      1672
    20.0600      1442
    20.0800      1210
    20.1000       998
    20.1200       762
    20.1400       654
    20.1600       624
    20.1800       524
    20.2000       440
    20.2200       410
    20.2400       392
    20.2600       380
    20.2800       350
    20.3000       322
    20.3200       384
    20.3400       326
    20.3600       360
    20.3800       306
    20.4000       314
    20.4200       312
    20.4400       298
    20.4600       294
    20.4800       280
    20.5000       266
    20.5200       266
    20.5400       270
    20.5600       252
    20.5800       284
    20.6000       248
    20.6200       270
    20.6400       248
    20.6600       282
    20.6800       274
    20.7000       270
    20.7200       306
    20.7400       270
    20.7600       290
    20.7800       292
    20.8000       320
    20.8200       348
    20.8400       352
    20.8600       384
    20.8800       398
    20.9000       452
    20.9200       500
    20.9400       528
    20.9600       598
    20.9800       670
    21.0000       716
    21.0200       826
    21.0400       936
    21.0600       992
    21.0800      1150
    21.1000      1282
    21.1200      1504
    21.1400      1716
    21.1600      1888
    21.1800      2058
    21.2000      2098
    21.2200      2126
    21.2400      2048
    21.2600      1864
    21.2800      1612
    21.3000      1396
    21.3200      1156
    21.3400      1020
    21.3600       834
    21.3800       774
    21.4000       604
    21.4200       484
    21.4400       474
    21.4600       418
    21.4800       384
    21.5000       334
    21.5200       288
    21.5400       290
    21.5600       296
    21.5800       286
    21.6000       258
    21.6200       288
    21.6400       246
    21.6600       252
    21.6800       252
    21.7000       244
    21.7200       264
    21.7400       242
    21.7600       270
    21.7800       248
    21.8000       234
    21.8200       232
    21.8400       262
    21.8600       274
    21.8800       262
    21.9000       268
    21.9200       234
    21.9400       254
    21.9600       254
    21.9800       264
    22.0000       228
    22.0200       234
    22.0400       262
    22.0600       258
    22.0800       236
    22.1000       212
    22.1200       234
    22.1400       230
    22.1600       230
    22.1800       226
    22.2000       220
    22.2200       274
    22.2400       250
    22.2600       288
    22.2800       268
    22.3000       252
    22.3200       258
    22.3400       268
    22.3600       302
    22.3800       300
    22.4000       324
    22.4200       340
    22.4400       354
    22.4600       388
    22.4800       426
    22.5000       434
    22.5200       512
    22.5400       572
    22.5600       590
    22.5800       672
    22.6000       754
    22.6200       916
    22.6400       944
    22.6600      1098
    22.6800      1282
    22.7000      1458
    22.7200      1716
    22.7400      1906
    22.7600      2282
    22.7800      2592
    22.8000      3194
    22.8200      3382
    22.8400      3584
    22.8600      3738
    22.8800      3592
    22.9000      3346
    22.9200      3022
    22.9400      2582
    22.9600      2174
    22.9800      1680
    23.0000      1430
    23.0200      1166
    23.0400       944
    23.0600       774
    23.0800       698
    23.1000       704
    23.1200       612
    23.1400       576
    23.1600       556
    23.1800       526
    23.2000       444
    23.2200       444
    23.2400       450
    23.2600       404
    23.2800       398
    23.3000       400
    23.3200       368
    23.3400       334
    23.3600       338
    23.3800       336
    23.4000       322
    23.4200       324
    23.4400       292
    23.4600       276
    23.4800       268
    23.5000       258
    23.5200       270
    23.5400       248
    23.5600       260
    23.5800       254
    23.6000       264
    23.6200       268
    23.6400       264
    23.6600       266
    23.6800       246
    23.7000       252
    23.7200       250
    23.7400       248
    23.7600       254
    23.7800       238
    23.8000       214
    23.8200       240
    23.8400       252
    23.8600       246
    23.8800       262
    23.9000       246
    23.9200       242
    23.9400       244
    23.9600       252
    23.9800       250
    24.0000       258
    24.0200       270
    24.0400       278
    24.0600       298
    24.0800       278
    24.1000       282
    24.1200       312
    24.1400       286
    24.1600       330
    24.1800       290
    24.2000       354
    24.2200       348
    24.2400       388
    24.2600       394
    24.2800       446
    24.3000       460
    24.3200       538
    24.3400       616
    24.3600       604
    24.3800       730
    24.4000       738
    24.4200       916
    24.4400      1002
    24.4600      1040
    24.4800      1176
    24.5000      1236
    24.5200      1250
    24.5400      1370
    24.5600      1338
    24.5800      1320
    24.6000      1222
    24.6200      1168
    24.6400      1028
    24.6600       954
    24.6800       810
    24.7000       722
    24.7200       694
    24.7400       638
    24.7600       554
    24.7800       550
    24.8000       460
    24.8200       494
    24.8400       460
    24.8600       460
    24.8800       468
    24.9000       424
    24.9200       408
    24.9400       436
    24.9600       426
    24.9800       426
    25.0000       474
    25.0200       452
    25.0400       448
    25.0600       500
    25.0800       450
    25.1000       492
    25.1200       506
    25.1400       538
    25.1600       514
    25.1800       590
    25.2000       550
    25.2200       622
    25.2400       596
    25.2600       608
    25.2800       636
    25.3000       622
    25.3200       614
    25.3400       582
    25.3600       616
    25.3800       550
    25.4000       566
    25.4200       606
    25.4400       592
    25.4600       662
    25.4800       670
    25.5000       742
    25.5200       802
    25.5400       834
    25.5600       872
    25.5800       938
    25.6000       926
    25.6200       968
    25.6400       828
    25.6600       814
    25.6800       702
    25.7000       634
    25.7200       578
    25.7400       470
    25.7600       460
    25.7800       390
    25.8000       354
    25.8200       370
    25.8400       320
    25.8600       302
    25.8800       320
    25.9000       282
    25.9200       302
    25.9400       284
    25.9600       258
    25.9800       252
    26.0000       222
    26.0200       270
    26.0400       248
    26.0600       254
    26.0800       264
    26.1000       284
    26.1200       242
    26.1400       260
    26.1600       240
    26.1800       228
    26.2000       248
    26.2200       268
    26.2400       250
    26.2600       280
    26.2800       280
    26.3000       290
    26.3200       290
    26.3400       292
    26.3600       298
    26.3800       314
    26.4000       310
    26.4200       314
    26.4400       340
    26.4600       354
    26.4800       306
    26.5000       336
    26.5200       326
    26.5400       330
    26.5600       356
    26.5800       320
    26.6000       364
    26.6200       376
    26.6400       342
    26.6600       356
    26.6800       362
    26.7000       318
    26.7200       340
    26.7400       342
    26.7600       340
    26.7800       304
    26.8000       254
    26.8200       306
    26.8400       276
    26.8600       300
    26.8800       256
    26.9000       292
    26.9200       274
    26.9400       306
    26.9600       274
    26.9800       294
    27.0000       300
    27.0200       298
    27.0400       280
    27.0600       324
    27.0800       294
    27.1000       342
    27.1200       342
    27.1400       366
    27.1600       384
    27.1800       362
    27.2000       384
    27.2200       440
    27.2400       482
    27.2600       470
    27.2800       536
    27.3000       610
    27.3200       714
    27.3400       754
    27.3600       848
    27.3800       966
    27.4000      1030
    27.4200      1148
    27.4400      1188
    27.4600      1280
    27.4800      1358
    27.5000      1294
    27.5200      1334
    27.5400      1228
    27.5600      1220
    27.5800      1034
    27.6000      1000
    27.6200       894
    27.6400       820
    27.6600       680
    27.6800       612
    27.7000       510
    27.7200       500
    27.7400       436
    27.7600       410
    27.7800       334
    27.8000       382
    27.8200       320
    27.8400       366
    27.8600       346
    27.8800       278
    27.9000       304
    27.9200       298
    27.9400       302
    27.9600       272
    27.9800       286
    28.0000       304
    28.0200       238
    28.0400       256
    28.0600       254
    28.0800       264
    28.1000       254
    28.1200       264
    28.1400       250
    28.1600       220
    28.1800       248
    28.2000       226
    28.2200       258
    28.2400       282
    28.2600       254
    28.2800       258
    28.3000       268
    28.3200       248
    28.3400       228
    28.3600       234
    28.3800       256
    28.4000       240
    28.4200       258
    28.4400       262
    28.4600       228
    28.4800       216
    28.5000       258
    28.5200       262
    28.5400       242
    28.5600       276
    28.5800       282
    28.6000       256
    28.6200       270
    28.6400       268
    28.6600       312
    28.6800       266
    28.7000       280
    28.7200       274
    28.7400       314
    28.7600       276
    28.7800       286
    28.8000       276
    28.8200       282
    28.8400       266
    28.8600       296
    28.8800       282
    28.9000       268
    28.9200       292
    28.9400       298
    28.9600       282
    28.9800       236
    29.0000       274
    29.0200       250
    29.0400       232
    29.0600       276
    29.0800       288
    29.1000       248
    29.1200       298
    29.1400       284
    29.1600       282
    29.1800       272
    29.2000       286
    29.2200       278
    29.2400       264
    29.2600       308
    29.2800       344
    29.3000       316
    29.3200       352
    29.3400       384
    29.3600       408
    29.3800       410
    29.4000       454
    29.4200       462
    29.4400       494
    29.4600       492
    29.4800       510
    29.5000       494
    29.5200       546
    29.5400       534
    29.5600       590
    29.5800       552
    29.6000       598
    29.6200       592
    29.6400       638
    29.6600       564
    29.6800       546
    29.7000       522
    29.7200       522
    29.7400       496
    29.7600       504
    29.7800       460
    29.8000       454
    29.8200       474
    29.8400       464
    29.8600       498
    29.8800       516
    29.9000       528
    29.9200       638
    29.9400       672
    29.9600       646
    29.9800       770
    30.0000       916
    30.0200      1024
    30.0400      1152
    30.0600      1286
    30.0800      1474
    30.1000      1770
    30.1200      1816
    30.1400      1960
    30.1600      2196
    30.1800      2242
    30.2000      2326
    30.2200      2252
    30.2400      2234
    30.2600      2154
    30.2800      2082
    30.3000      1962
    30.3200      1856
    30.3400      1782
    30.3600      1674
    30.3800      1626
    30.4000      1672
    30.4200      1634
    30.4400      1794
    30.4600      1780
    30.4800      1888
    30.5000      1994
    30.5200      2014
    30.5400      2218
    30.5600      2338
    30.5800      2552
    30.6000      2782
    30.6200      2774
    30.6400      2802
    30.6600      2846
    30.6800      2772
    30.7000      2680
    30.7200      2380
    30.7400      2158
    30.7600      1920
    30.7800      1690
    30.8000      1410
    30.8200      1304
    30.8400      1238
    30.8600      1118
    30.8800      1032
    30.9000      1036
    30.9200      1028
    30.9400       996
    30.9600      1060
    30.9800      1040
    31.0000      1090
    31.0200      1086
    31.0400      1176
    31.0600      1260
    31.0800      1248
    31.1000      1296
    31.1200      1346
    31.1400      1330
    31.1600      1498
    31.1800      1368
    31.2000      1444
    31.2200      1418
    31.2400      1320
    31.2600      1180
    31.2800      1156
    31.3000      1066
    31.3200      1006
    31.3400       896
    31.3600       836
    31.3800       742
    31.4000       720
    31.4200       610
    31.4400       600
    31.4600       600
    31.4800       584
    31.5000       486
    31.5200       562
    31.5400       526
    31.5600       508
    31.5800       472
    31.6000       492
    31.6200       506
    31.6400       480
    31.6600       510
    31.6800       488
    31.7000       584
    31.7200       614
    31.7400       606
    31.7600       670
    31.7800       688
    31.8000       806
    31.8200       824
    31.8400       912
    31.8600       992
    31.8800      1146
    31.9000      1324
    31.9200      1462
    31.9400      1718
    31.9600      1778
    31.9800      1894
    32.0000      2038
    32.0200      2012
    32.0400      1910
    32.0600      1890
    32.0800      1788
    32.1000      1606
    32.1200      1614
    32.1400      1418
    32.1600      1284
    32.1800      1360
    32.2000      1270
    32.2200      1274
    32.2400      1310
    32.2600      1356
    32.2800      1536
    32.3000      1594
    32.3200      1806
    32.3400      1950
    32.3600      2236
    32.3800      2674
    32.4000      2890
    32.4200      3398
    32.4400      3832
    32.4600      4454
    32.4800      4994
    32.5000      5734
    32.5200      5962
    32.5400      6370
    32.5600      6700
    32.5800      6608
    32.6000      6180
    32.6200      5822
    32.6400      5240
    32.6600      4630
    32.6800      4056
    32.7000      3536
    32.7200      3014
    32.7400      2636
    32.7600      2182
    32.7800      1910
    32.8000      1736
    32.8200      1554
    32.8400      1406
    32.8600      1326
    32.8800      1278
    32.9000      1242
    32.9200      1168
    32.9400      1154
    32.9600      1178
    32.9800      1190
    33.0000      1218
    33.0200      1230
    33.0400      1414
    33.0600      1464
    33.0800      1374
    33.1000      1440
    33.1200      1366
    33.1400      1330
    33.1600      1128
    33.1800      1010
    33.2000       900
    33.2200       852
    33.2400       716
    33.2600       662
    33.2800       604
    33.3000       528
    33.3200       514
    33.3400       452
    33.3600       418
    33.3800       352
    33.4000       388
    33.4200       352
    33.4400       342
    33.4600       346
    33.4800       322
    33.5000       268
    33.5200       306
    33.5400       290
    33.5600       274
    33.5800       294
    33.6000       300
    33.6200       242
    33.6400       250
    33.6600       268
    33.6800       260
    33.7000       258
    33.7200       234
    33.7400       260
    33.7600       238
    33.7800       210
    33.8000       298
    33.8200       250
    33.8400       260
    33.8600       266
    33.8800       204
    33.9000       210
    33.9200       208
    33.9400       230
    33.9600       222
    33.9800       246
    34.0000       230
    34.0200       240
    34.0400       232
    34.0600       250
    34.0800       256
    34.1000       216
    34.1200       208
    34.1400       238
    34.1600       252
    34.1800       210
    34.2000       214
    34.2200       226
    34.2400       232
    34.2600       228
    34.2800       238
    34.3000       244
    34.3200       282
    34.3400       254
    34.3600       274
    34.3800       260
    34.4000       256
    34.4200       282
    34.4400       326
    34.4600       288
    34.4800       348
    34.5000       324
    34.5200       368
    34.5400       334
    34.5600       358
    34.5800       386
    34.6000       350
    34.6200       334
    34.6400       342
    34.6600       360
    34.6800       342
    34.7000       338
    34.7200       314
    34.7400       316
    34.7600       334
    34.7800       332
    34.8000       302
    34.8200       312
    34.8400       312
    34.8600       304
    34.8800       334
    34.9000       330
    34.9200       332
    34.9400       290
    34.9600       312
    34.9800       350
    35.0000       352
    35.0200       328
    35.0400       356
    35.0600       340
    35.0800       354
    35.1000       338
    35.1200       320
    35.1400       320
    35.1600       322
    35.1800       296
    35.2000       286
    35.2200       284
    35.2400       266
    35.2600       264
    35.2800       244
    35.3000       274
    35.3200       252
    35.3400       226
    35.3600       272
    35.3800       276
    35.4000       276
    35.4200       258
    35.4400       256
    35.4600       258
    35.4800       274
    35.5000       258
    35.5200       274
    35.5400       284
    35.5600       284
    35.5800       258
    35.6000       306
    35.6200       274
    35.6400       282
    35.6600       312
    35.6800       314
    35.7000       320
    35.7200       298
    35.7400       324
    35.7600       316
    35.7800       346
    35.8000       352
    35.8200       372
    35.8400       380
    35.8600       390
    35.8800       422
    35.9000       456
    35.9200       488
    35.9400       416
    35.9600       492
    35.9800       554
    36.0000       594
    36.0200       570
    36.0400       548
    36.0600       612
    36.0800       662
    36.1000       624
    36.1200       692
    36.1400       682
    36.1600       720
    36.1800       676
    36.2000       676
    36.2200       644
    36.2400       594
    36.2600       556
    36.2800       528
    36.3000       474
    36.3200       454
    36.3400       422
    36.3600       392
    36.3800       386
    36.4000       370
    36.4200       362
    36.4400       400
    36.4600       364
    36.4800       378
    36.5000       368
    36.5200       422
    36.5400       388
    36.5600       448
    36.5800       486
    36.6000       462
    36.6200       474
    36.6400       504
    36.6600       628
    36.6800       620
    36.7000       740
    36.7200       756
    36.7400       870
    36.7600       962
    36.7800      1154
    36.8000      1220
    36.8200      1342
    36.8400      1462
    36.8600      1628
    36.8800      1642
    36.9000      1696
    36.9200      1710
    36.9400      1682
    36.9600      1562
    36.9800      1458
    37.0000      1320
    37.0200      1296
    37.0400      1220
    37.0600      1102
    37.0800      1138
    37.1000      1036
    37.1200      1002
    37.1400      1086
    37.1600       978
    37.1800       966
    37.2000       920
    37.2200       888
    37.2400       890
    37.2600       860
    37.2800       806
    37.3000       802
    37.3200       718
    37.3400       724
    37.3600       700
    37.3800       626
    37.4000       626
    37.4200       618
    37.4400       560
    37.4600       566
    37.4800       562
    37.5000       528
    37.5200       558
    37.5400       582
    37.5600       570
    37.5800       600
    37.6000       574
    37.6200       622
    37.6400       634
    37.6600       666
    37.6800       696
    37.7000       662
    37.7200       726
    37.7400       724
    37.7600       752
    37.7800       808
    37.8000       844
    37.8200       794
    37.8400       874
    37.8600       936
    37.8800      1062
    37.9000      1144
    37.9200      1312
    37.9400      1348
    37.9600      1576
    37.9800      1688
    38.0000      1732
    38.0200      1810
    38.0400      1870
    38.0600      1920
    38.0800      1838
    38.1000      1848
    38.1200      1808
    38.1400      1766
    38.1600      1684
    38.1800      1658
    38.2000      1664
    38.2200      1672
    38.2400      1810
    38.2600      1824
    38.2800      1898
    38.3000      2188
    38.3200      2242
    38.3400      2498
    38.3600      2804
    38.3800      3110
    38.4000      3388
    38.4200      3818
    38.4400      4142
    38.4600      4490
    38.4800      4576
    38.5000      4582
    38.5200      4732
    38.5400      4674
    38.5600      4714
    38.5800      4642
    38.6000      4720
    38.6200      4542
    38.6400      4490
    38.6600      4238
    38.6800      4210
    38.7000      4054
    38.7200      3872
    38.7400      3798
    38.7600      3520
    38.7800      3256
    38.8000      3086
    38.8200      2846
    38.8400      2504
    38.8600      2300
    38.8800      2068
    38.9000      1880
    38.9200      1770
    38.9400      1574
    38.9600      1412
    38.9800      1272
    39.0000      1240
    39.0200      1190
    39.0400      1132
    39.0600      1150
    39.0800      1102
    39.1000      1092
    39.1200      1102
    39.1400      1114
    39.1600      1118
    39.1800      1164
    39.2000      1114
    39.2200      1136
    39.2400      1098
    39.2600      1128
    39.2800      1160
    39.3000      1158
    39.3200      1156
    39.3400      1064
    39.3600      1026
    39.3800      1076
    39.4000       964
    39.4200      1046
    39.4400      1028
    39.4600      1012
    39.4800       950
    39.5000      1078
    39.5200      1132
    39.5400      1158
    39.5600      1250
    39.5800      1282
    39.6000      1446
    39.6200      1580
    39.6400      1682
    39.6600      1908
    39.6800      1916
    39.7000      1992
    39.7200      2078
    39.7400      1910
    39.7600      1854
    39.7800      1780
    39.8000      1614
    39.8200      1524
    39.8400      1424
    39.8600      1254
    39.8800      1120
    39.9000      1012
    39.9200       948
    39.9400       832
    39.9600       802
    39.9800       774
    40.0000       756
    40.0200       766
    40.0400       712
    40.0600       716
    40.0800       708
    40.1000       722
    40.1200       692
    40.1400       754
    40.1600       712
    40.1800       698
    40.2000       694
    40.2200       760
    40.2400       738
    40.2600       732
    40.2800       748
    40.3000       748
    40.3200       740
    40.3400       808
    40.3600       838
    40.3800       854
    40.4000       870
    40.4200       938
    40.4400      1000
    40.4600      1064
    40.4800      1188
    40.5000      1164
    40.5200      1234
    40.5400      1198
    40.5600      1268
    40.5800      1298
    40.6000      1352
    40.6200      1346
    40.6400      1256
    40.6600      1252
    40.6800      1188
    40.7000      1136
    40.7200      1020
    40.7400      1004
    40.7600       888
    40.7800       834
    40.8000       758
    40.8200       784
    40.8400       720
    40.8600       674
    40.8800       654
    40.9000       696
    40.9200       622
    40.9400       696
    40.9600       680
    40.9800       668
    41.0000       724
    41.0200       730
    41.0400       802
    41.0600       794
    41.0800       844
    41.1000       926
    41.1200      1032
    41.1400      1094
    41.1600      1250
    41.1800      1332
    41.2000      1392
    41.2200      1506
    41.2400      1680
    41.2600      1598
    41.2800      1824
    41.3000      1750
    41.3200      1768
    41.3400      1732
    41.3600      1748
    41.3800      1734
    41.4000      1656
    41.4200      1600
    41.4400      1488
    41.4600      1398
    41.4800      1354
    41.5000      1270
    41.5200      1206
    41.5400      1116
    41.5600      1034
    41.5800       970
    41.6000       878
    41.6200       910
    41.6400       870
    41.6600       886
    41.6800       900
    41.7000       974
    41.7200      1006
    41.7400       952
    41.7600      1106
    41.7800      1166
    41.8000      1228
    41.8200      1372
    41.8400      1440
    41.8600      1430
    41.8800      1496
    41.9000      1570
    41.9200      1568
    41.9400      1478
    41.9600      1474
    41.9800      1366
    42.0000      1206
    42.0200      1148
    42.0400      1076
    42.0600       942
    42.0800       918
    42.1000       878
    42.1200       756
    42.1400       748
    42.1600       616
    42.1800       598
    42.2000       558
    42.2200       570
    42.2400       558
    42.2600       542
    42.2800       496
    42.3000       462
    42.3200       454
    42.3400       434
    42.3600       438
    42.3800       424
    42.4000       442
    42.4200       382
    42.4400       422
    42.4600       382
    42.4800       392
    42.5000       392
    42.5200       414
    42.5400       364
    42.5600       404
    42.5800       396
    42.6000       414
    42.6200       370
    42.6400       372
    42.6600       364
    42.6800       386
    42.7000       398
    42.7200       414
    42.7400       400
    42.7600       382
    42.7800       498
    42.8000       408
    42.8200       412
    42.8400       410
    42.8600       450
    42.8800       474
    42.9000       492
    42.9200       530
    42.9400       568
    42.9600       548
    42.9800       650
    43.0000       690
    43.0200       756
    43.0400       784
    43.0600       864
    43.0800       998
    43.1000      1076
    43.1200      1182
    43.1400      1322
    43.1600      1416
    43.1800      1532
    43.2000      1498
    43.2200      1662
    43.2400      1612
    43.2600      1548
    43.2800      1550
    43.3000      1392
    43.3200      1278
    43.3400      1196
    43.3600      1142
    43.3800      1024
    43.4000       880
    43.4200       860
    43.4400       782
    43.4600       738
    43.4800       610
    43.5000       600
    43.5200       598
    43.5400       612
    43.5600       602
    43.5800       552
    43.6000       536
    43.6200       544
    43.6400       536
    43.6600       514
    43.6800       512
    43.7000       576
    43.7200       560
    43.7400       610
    43.7600       682
    43.7800       628
    43.8000       666
    43.8200       648
    43.8400       692
    43.8600       700
    43.8800       680
    43.9000       654
    43.9200       654
    43.9400       612
    43.9600       590
    43.9800       574
    44.0000       474
    44.0200       528
    44.0400       526
    44.0600       494
    44.0800       484
    44.1000       512
    44.1200       458
    44.1400       462
    44.1600       490
    44.1800       482
    44.2000       498
    44.2200       484
    44.2400       498
    44.2600       518
    44.2800       504
    44.3000       580
    44.3200       618
    44.3400       586
    44.3600       592
    44.3800       654
    44.4000       616
    44.4200       678
    44.4400       690
    44.4600       736
    44.4800       810
    44.5000       770
    44.5200       900
    44.5400       950
    44.5600      1016
    44.5800      1090
    44.6000      1158
    44.6200      1226
    44.6400      1260
    44.6600      1350
    44.6800      1400
    44.7000      1428
    44.7200      1478
    44.7400      1404
    44.7600      1450
    44.7800      1414
    44.8000      1446
    44.8200      1436
    44.8400      1482
    44.8600      1478
    44.8800      1480
    44.9000      1558
    44.9200      1606
    44.9400      1728
    44.9600      1568
    44.9800      1776
    45.0000      1826
    45.0200      1822
    45.0400      1968
    45.0600      2034
    45.0800      1986
    45.1000      1976
    45.1200      1952
    45.1400      2000
    45.1600      1922
    45.1800      1958
    45.2000      1834
    45.2200      1824
    45.2400      1714
    45.2600      1638
    45.2800      1482
    45.3000      1456
    45.3200      1318
    45.3400      1348
    45.3600      1182
    45.3800      1166
    45.4000      1096
    45.4200      1036
    45.4400      1044
    45.4600       990
    45.4800       948
    45.5000       882
    45.5200       878
    45.5400       812
    45.5600       840
    45.5800       822
    45.6000       768
    45.6200       810
    45.6400       792
    45.6600       762
    45.6800       720
    45.7000       716
    45.7200       732
    45.7400       704
    45.7600       714
    45.7800       686
    45.8000       736
    45.8200       680
    45.8400       710
    45.8600       700
    45.8800       738
    45.9000       692
    45.9200       724
    45.9400       706
    45.9600       692
    45.9800       618
    46.0000       644
    46.0200       664
    46.0400       666
    46.0600       702
    46.0800       670
    46.1000       730
    46.1200       742
    46.1400       732
    46.1600       738
    46.1800       718
    46.2000       794
    46.2200       816
    46.2400       842
    46.2600       904
    46.2800       928
    46.3000       980
    46.3200      1006
    46.3400      1124
    46.3600      1220
    46.3800      1350
    46.4000      1434
    46.4200      1514
    46.4400      1664
    46.4600      1854
    46.4800      2016
    46.5000      2182
    46.5200      2540
    46.5400      2854
    46.5600      3314
    46.5800      3598
    46.6000      4062
    46.6200      4584
    46.6400      5242
    46.6600      5700
    46.6800      6056
    46.7000      6380
    46.7200      6380
    46.7400      6430
    46.7600      6174
    46.7800      5872
    46.8000      5566
    46.8200      5202
    46.8400      4702
    46.8600      4422
    46.8800      3844
    46.9000      3410
    46.9200      3046
    46.9400      2680
    46.9600      2312
    46.9800      2052
    47.0000      1848
    47.0200      1576
    47.0400      1450
    47.0600      1336
    47.0800      1192
    47.1000      1054
    47.1200      1018
    47.1400       922
    47.1600       918
    47.1800       806
    47.2000       790
    47.2200       712
    47.2400       752
    47.2600       686
    47.2800       650
    47.3000       674
    47.3200       622
    47.3400       604
    47.3600       598
    47.3800       572
    47.4000       560
    47.4200       548
    47.4400       542
    47.4600       526
    47.4800       518
    47.5000       500
    47.5200       528
    47.5400       546
    47.5600       532
    47.5800       552
    47.6000       508
    47.6200       542
    47.6400       550
    47.6600       544
    47.6800       536
    47.7000       592
    47.7200       572
    47.7400       628
    47.7600       648
    47.7800       668
    47.8000       696
    47.8200       742
    47.8400       748
    47.8600       728
    47.8800       706
    47.9000       774
    47.9200       736
    47.9400       720
    47.9600       726
    47.9800       700
    48.0000       710
    48.0200       654
    48.0400       696
    48.0600       692
    48.0800       700
    48.1000       702
    48.1200       700
    48.1400       786
    48.1600       738
    48.1800       770
    48.2000       864
    48.2200       836
    48.2400       814
    48.2600       882
    48.2800       886
    48.3000       896
    48.3200       856
    48.3400       936
    48.3600       878
    48.3800       912
    48.4000       884
    48.4200       894
    48.4400       942
    48.4600      1022
    48.4800      1010
    48.5000      1076
    48.5200      1086
    48.5400      1110
    48.5600      1150
    48.5800      1202
    48.6000      1194
    48.6200      1250
    48.6400      1234
    48.6600      1204
    48.6800      1112
    48.7000      1160
    48.7200      1056
    48.7400      1018
    48.7600      1022
    48.7800       956
    48.8000       914
    48.8200       862
    48.8400       786
    48.8600       822
    48.8800       716
    48.9000       670
    48.9200       670
    48.9400       586
    48.9600       578
    48.9800       568
    49.0000       520
    49.0200       526
    49.0400       484
    49.0600       460
    49.0800       402
    49.1000       402
    49.1200       408
    49.1400       410
    49.1600       382
    49.1800       380
    49.2000       356
    49.2200       340
    49.2400       342
    49.2600       354
    49.2800       322
    49.3000       370
    49.3200       312
    49.3400       328
    49.3600       278
    49.3800       320
    49.4000       318
    49.4200       352
    49.4400       336
    49.4600       350
    49.4800       326
    49.5000       340
    49.5200       308
    49.5400       340
    49.5600       328
    49.5800       348
    49.6000       362
    49.6200       352
    49.6400       360
    49.6600       360
    49.6800       362
    49.7000       368
    49.7200       334
    49.7400       374
    49.7600       336
    49.7800       416
    49.8000       362
    49.8200       418
    49.8400       414
    49.8600       408
    49.8800       424
    49.9000       432
    49.9200       472
    49.9400       458
    49.9600       488
    49.9800       504
    50.0000       504
    50.0200       562
    50.0400       574
    50.0600       648
    50.0800       654
    50.1000       764
    50.1200       778
    50.1400       878
    50.1600       924
    50.1800      1004
    50.2000      1010
    50.2200      1114
    50.2400      1198
    50.2600      1226
    50.2800      1322
    50.3000      1366
    50.3200      1308
    50.3400      1382
    50.3600      1358
    50.3800      1382
    50.4000      1356
    50.4200      1430
    50.4400      1330
    50.4600      1272
    50.4800      1266
    50.5000      1226
    50.5200      1170
    50.5400      1128
    50.5600      1180
    50.5800      1074
    50.6000      1102
    50.6200      1130
    50.6400      1048
    50.6600      1080
    50.6800      1102
    50.7000      1116
    50.7200      1110
    50.7400      1162
    50.7600      1162
    50.7800      1208
    50.8000      1202
    50.8200      1204
    50.8400      1258
    50.8600      1236
    50.8800      1168
    50.9000      1138
    50.9200      1172
    50.9400      1128
    50.9600      1100
    50.9800      1056
    51.0000      1070
    51.0200       976
    51.0400       932
    51.0600       902
    51.0800       862
    51.1000       876
    51.1200       846
    51.1400       784
    51.1600       748
    51.1800       772
    51.2000       812
    51.2200       784
    51.2400       758
    51.2600       754
    51.2800       770
    51.3000       716
    51.3200       816
    51.3400       794
    51.3600       854
    51.3800       850
    51.4000       848
    51.4200       840
    51.4400       822
    51.4600       876
    51.4800       838
    51.5000       862
    51.5200       862
    51.5400       824
    51.5600       816
    51.5800       854
    51.6000       866
    51.6200       868
    51.6400       808
    51.6600       876
    51.6800       924
    51.7000       896
    51.7200       978
    51.7400      1030
    51.7600      1098
    51.7800      1062
    51.8000      1070
    51.8200      1126
    51.8400      1238
    51.8600      1276
    51.8800      1326
    51.9000      1360
    51.9200      1238
    51.9400      1286
    51.9600      1332
    51.9800      1236
    52.0000      1268
    52.0200      1186
    52.0400      1184
    52.0600      1118
    52.0800      1056
    52.1000       954
    52.1200       890
    52.1400       854
    52.1600       862
    52.1800       790
    52.2000       734
    52.2200       734
    52.2400       688
    52.2600       668
    52.2800       666
    52.3000       686
    52.3200       672
    52.3400       682
    52.3600       772
    52.3800       714
    52.4000       758
    52.4200       774
    52.4400       886
    52.4600       872
    52.4800       968
    52.5000       956
    52.5200      1020
    52.5400      1140
    52.5600      1112
    52.5800      1220
    52.6000      1138
    52.6200      1226
    52.6400      1178
    52.6600      1220
    52.6800      1198
    52.7000      1182
    52.7200      1160
    52.7400      1210
    52.7600      1074
    52.7800      1054
    52.8000      1000
    52.8200       964
    52.8400       884
    52.8600       844
    52.8800       820
    52.9000       840
    52.9200       792
    52.9400       778
    52.9600       742
    52.9800       760
    53.0000       744
    53.0200       746
    53.0400       764
    53.0600       806
    53.0800       808
    53.1000       904
    53.1200       940
    53.1400       954
    53.1600      1012
    53.1800      1086
    53.2000      1176
    53.2200      1250
    53.2400      1252
    53.2600      1380
    53.2800      1440
    53.3000      1368
    53.3200      1470
    53.3400      1346
    53.3600      1378
    53.3800      1312
    53.4000      1192
    53.4200      1196
    53.4400      1110
    53.4600      1036
    53.4800      1014
    53.5000       972
    53.5200       876
    53.5400       810
    53.5600       780
    53.5800       724
    53.6000       768
    53.6200       664
    53.6400       650
    53.6600       638
    53.6800       576
    53.7000       608
    53.7200       526
    53.7400       528
    53.7600       514
    53.7800       548
    53.8000       510
    53.8200       494
    53.8400       468
    53.8600       438
    53.8800       444
    53.9000       434
    53.9200       418
    53.9400       442
    53.9600       408
    53.9800       444
    54.0000       450
    54.0200       424
    54.0400       432
    54.0600       424
    54.0800       454
    54.1000       432
    54.1200       436
    54.1400       428
    54.1600       472
    54.1800       486
    54.2000       478
    54.2200       464
    54.2400       432
    54.2600       488
    54.2800       490
    54.3000       502
    54.3200       472
    54.3400       494
    54.3600       510
    54.3800       546
    54.4000       504
    54.4200       550
    54.4400       520
    54.4600       516
    54.4800       572
    54.5000       572
    54.5200       636
    54.5400       626
    54.5600       666
    54.5800       690
    54.6000       674
    54.6200       668
    54.6400       662
    54.6600       742
    54.6800       776
    54.7000       792
    54.7200       822
    54.7400       794
    54.7600       784
    54.7800       814
    54.8000       790
    54.8200       870
    54.8400       836
    54.8600       838
    54.8800       806
    54.9000       802
    54.9200       814
    54.9400       778
    54.9600       820
    54.9800       770
    55.0000       812
    55.0200       848
    55.0400       846
    55.0600       860
    55.0800       920
    55.1000       952
    55.1200      1004
    55.1400      1026
    55.1600      1006
    55.1800       988
    55.2000      1022
    55.2200      1078
    55.2400      1008
    55.2600       970
    55.2800      1068
    55.3000      1006
    55.3200      1006
    55.3400       946
    55.3600       950
    55.3800       864
    55.4000       916
    55.4200       832
    55.4400       884
    55.4600       870
    55.4800       800
    55.5000       728
    55.5200       730
    55.5400       744
    55.5600       698
    55.5800       676
    55.6000       658
    55.6200       584
    55.6400       596
    55.6600       556
    55.6800       512
    55.7000       512
    55.7200       474
    55.7400       522
    55.7600       442
    55.7800       482
    55.8000       436
    55.8200       434
    55.8400       402
    55.8600       402
    55.8800       378
    55.9000       376
    55.9200       356
    55.9400       384
    55.9600       360
    55.9800       332
    56.0000       350
    56.0200       358
    56.0400       306
    56.0600       364
    56.0800       328
    56.1000       330
    56.1200       328
    56.1400       364
    56.1600       316
    56.1800       332
    56.2000       326
    56.2200       334
    56.2400       378
    56.2600       330
    56.2800       310
    56.3000       336
    56.3200       328
    56.3400       356
    56.3600       372
    56.3800       342
    56.4000       340
    56.4200       360
    56.4400       366
    56.4600       362
    56.4800       338
    56.5000       384
    56.5200       374
    56.5400       378
    56.5600       386
    56.5800       402
    56.6000       414
    56.6200       402
    56.6400       438
    56.6600       450
    56.6800       432
    56.7000       436
    56.7200       480
    56.7400       466
    56.7600       450
    56.7800       460
    56.8000       442
    56.8200       432
    56.8400       422
    56.8600       448
    56.8800       440
    56.9000       462
    56.9200       426
    56.9400       446
    56.9600       462
    56.9800       472
    57.0000       508
    57.0200       480
    57.0400       466
    57.0600       486
    57.0800       476
    57.1000       536
    57.1200       504
    57.1400       616
    57.1600       624
    57.1800       648
    57.2000       702
    57.2200       664
    57.2400       858
    57.2600       910
    57.2800       976
    57.3000      1048
    57.3200      1212
    57.3400      1226
    57.3600      1228
    57.3800      1376
    57.4000      1312
    57.4200      1328
    57.4400      1352
    57.4600      1410
    57.4800      1322
    57.5000      1360
    57.5200      1300
    57.5400      1296
    57.5600      1332
    57.5800      1306
    57.6000      1242
    57.6200      1302
    57.6400      1236
    57.6600      1328
    57.6800      1384
    57.7000      1334
    57.7200      1348
    57.7400      1368
    57.7600      1372
    57.7800      1294
    57.8000      1338
    57.8200      1286
    57.8400      1250
    57.8600      1188
    57.8800      1166
    57.9000      1102
    57.9200      1066
    57.9400      1024
    57.9600       988
    57.9800       958
    58.0000       938
    58.0200       866
    58.0400       868
    58.0600       804
    58.0800       800
    58.1000       752
    58.1200       836
    58.1400       766
    58.1600       816
    58.1800       876
    58.2000       848
    58.2200       852
    58.2400       954
    58.2600       996
    58.2800       982
    58.3000      1084
    58.3200      1106
    58.3400      1206
    58.3600      1186
    58.3800      1272
    58.4000      1354
    58.4200      1384
    58.4400      1482
    58.4600      1504
    58.4800      1638
    58.5000      1750
    58.5200      1826
    58.5400      1802
    58.5600      1940
    58.5800      2034
    58.6000      2114
    58.6200      2140
    58.6400      2204
    58.6600      2324
    58.6800      2272
    58.7000      2492
    58.7200      2540
    58.7400      2510
    58.7600      2364
    58.7800      2562
    58.8000      2370
    58.8200      2340
    58.8400      2326
    58.8600      2136
    58.8800      2116
    58.9000      2024
    58.9200      1854
    58.9400      1686
    58.9600      1646
    58.9800      1546
    59.0000      1470
    59.0200      1318
    59.0400      1196
    59.0600      1144
    59.0800      1108
    59.1000      1024
    59.1200       956
    59.1400       972
    59.1600       992
    59.1800       848
    59.2000       862
    59.2200       838
    59.2400       830
    59.2600       816
    59.2800       830
    59.3000       880
    59.3200       864
    59.3400       874
    59.3600       878
    59.3800       894
    59.4000       868
    59.4200       940
    59.4400       922
    59.4600       884
    59.4800       932
    59.5000       930
    59.5200       920
    59.5400       912
    59.5600       890
    59.5800       948
    59.6000       908
    59.6200       952
    59.6400       930
    59.6600       876
    59.6800       920
    59.7000       920
    59.7200       916
    59.7400       888
    59.7600       960
    59.7800       918
    59.8000       860
    59.8200       900
    59.8400       850
    59.8600       824
    59.8800       880
    59.9000       804
    59.9200       788
    59.9400       778
    59.9600       762
    59.9800       756
    60.0000       736
    60.0200       654
    60.0400       668
    60.0600       646
    60.0800       580
    60.1000       576
    60.1200       548
    60.1400       540
    60.1600       520
    60.1800       530
    60.2000       504
    60.2200       444
    60.2400       458
    60.2600       436
    60.2800       438
    60.3000       424
    60.3200       454
    60.3400       434
    60.3600       452
    60.3800       400
    60.4000       450
    60.4200       408
    60.4400       428
    60.4600       388
    60.4800       400
    60.5000       352
    60.5200       420
    60.5400       372
    60.5600       388
    60.5800       408
    60.6000       388
    60.6200       398
    60.6400       404
    60.6600       384
    60.6800       426
    60.7000       432
    60.7200       442
    60.7400       416
    60.7600       462
    60.7800       462
    60.8000       470
    60.8200       462
    60.8400       444
    60.8600       514
    60.8800       546
    60.9000       470
    60.9200       514
    60.9400       548
    60.9600       566
    60.9800       580
    61.0000       560
    61.0200       592
    61.0400       614
    61.0600       676
    61.0800       676
    61.1000       700
    61.1200       696
    61.1400       706
    61.1600       726
    61.1800       738
    61.2000       732
    61.2200       752
    61.2400       766
    61.2600       746
    61.2800       722
    61.3000       818
    61.3200       758
    61.3400       784
    61.3600       856
    61.3800       782
    61.4000       848
    61.4200       834
    61.4400       852
    61.4600       852
    61.4800       838
    61.5000       814
    61.5200       838
    61.5400       848
    61.5600       828
    61.5800       842
    61.6000       784
    61.6200       760
    61.6400       696
    61.6600       660
    61.6800       690
    61.7000       656
    61.7200       618
    61.7400       636
    61.7600       584
    61.7800       610
    61.8000       564
    61.8200       558
    61.8400       538
    61.8600       532
    61.8800       510
    61.9000       504
    61.9200       514
    61.9400       536
    61.9600       496
    61.9800       496
    62.0000       488
    62.0200       500
    62.0400       484
    62.0600       506
    62.0800       522
    62.1000       522
    62.1200       532
    62.1400       528
    62.1600       484
    62.1800       510
    62.2000       444
    62.2200       438
    62.2400       474
    62.2600       500
    62.2800       450
    62.3000       462
    62.3200       414
    62.3400       432
    62.3600       428
    62.3800       454
    62.4000       434
    62.4200       410
    62.4400       434
    62.4600       358
    62.4800       374
    62.5000       380
    62.5200       390
    62.5400       404
    62.5600       398
    62.5800       408
    62.6000       390
    62.6200       388
    62.6400       362
    62.6600       340
    62.6800       366
    62.7000       394
    62.7200       364
    62.7400       392
    62.7600       388
    62.7800       412
    62.8000       428
    62.8200       340
    62.8400       370
    62.8600       376
    62.8800       364
    62.9000       344
    62.9200       332
    62.9400       302
    62.9600       328
    62.9800       334
    63.0000       328
    63.0200       358
    63.0400       286
    63.0600       316
    63.0800       322
    63.1000       288
    63.1200       262
    63.1400       260
    63.1600       288
    63.1800       294
    63.2000       252
    63.2200       288
    63.2400       266
    63.2600       270
    63.2800       260
    63.3000       278
    63.3200       254
    63.3400       252
    63.3600       248
    63.3800       296
    63.4000       294
    63.4200       294
    63.4400       308
    63.4600       280
    63.4800       300
    63.5000       328
    63.5200       310
    63.5400       312
    63.5600       332
    63.5800       336
    63.6000       352
    63.6200       330
    63.6400       410
    63.6600       386
    63.6800       394
    63.7000       412
    63.7200       456
    63.7400       448
    63.7600       432
    63.7800       498
    63.8000       522
    63.8200       558
    63.8400       508
    63.8600       536
    63.8800       550
    63.9000       480
    63.9200       534
    63.9400       512
    63.9600       550
    63.9800       506
    64.0000       498
    64.0200       430
    64.0400       456
    64.0600       456
    64.0800       458
    64.1000       436
    64.1200       414
    64.1400       414
    64.1600       440
    64.1800       374
    64.2000       364
    64.2200       350
    64.2400       376
    64.2600       332
    64.2800       356
    64.3000       340
    64.3200       338
    64.3400       324
    64.3600       348
    64.3800       288
    64.4000       316
    64.4200       308
    64.4400       310
    64.4600       284
    64.4800       304
    64.5000       304
    64.5200       312
    64.5400       314
    64.5600       276
    64.5800       298
    64.6000       302
    64.6200       302
    64.6400       314
    64.6600       338
    64.6800       302
    64.7000       306
    64.7200       358
    64.7400       350
    64.7600       366
    64.7800       372
    64.8000       388
    64.8200       402
    64.8400       400
    64.8600       434
    64.8800       418
    64.9000       440
    64.9200       436
    64.9400       494
    64.9600       456
    64.9800       510
    65.0000       512
    65.0200       508
    65.0400       542
    65.0600       536
    65.0800       540
    65.1000       534
    65.1200       524
    65.1400       564
    65.1600       572
    65.1800       566
    65.2000       558
    65.2200       526
    65.2400       576
    65.2600       568
    65.2800       588
    65.3000       544
    65.3200       570
    65.3400       578
    65.3600       558
    65.3800       514
    65.4000       510
    65.4200       480
    65.4400       530
    65.4600       464
    65.4800       456
    65.5000       418
    65.5200       412
    65.5400       402
    65.5600       426
    65.5800       396
    65.6000       408
    65.6200       446
    65.6400       398
    65.6600       434
    65.6800       398
    65.7000       364
    65.7200       394
    65.7400       334
    65.7600       332
    65.7800       328
    65.8000       356
    65.8200       348
    65.8400       316
    65.8600       314
    65.8800       294
    65.9000       310
    65.9200       306
    65.9400       326
    65.9600       264
    65.9800       290
    66.0000       320
    66.0200       312
    66.0400       288
    66.0600       264
    66.0800       278
    66.1000       258
    66.1200       258
    66.1400       268
    66.1600       262
    66.1800       248
    66.2000       286
    66.2200       298
    66.2400       290
    66.2600       266
    66.2800       306
    66.3000       292
    66.3200       296
    66.3400       292
    66.3600       318
    66.3800       308
    66.4000       300
    66.4200       304
    66.4400       306
    66.4600       330
    66.4800       338
    66.5000       326
    66.5200       374
    66.5400       316
    66.5600       390
    66.5800       390
    66.6000       370
    66.6200       452
    66.6400       408
    66.6600       480
    66.6800       458
    66.7000       478
    66.7200       516
    66.7400       552
    66.7600       512
    66.7800       578
    66.8000       634
    66.8200       598
    66.8400       632
    66.8600       622
    66.8800       702
    66.9000       714
    66.9200       688
    66.9400       748
    66.9600       676
    66.9800       688
    67.0000       644
    67.0200       698
    67.0400       654
    67.0600       612
    67.0800       642
    67.1000       560
    67.1200       560
    67.1400       538
    67.1600       504
    67.1800       514
    67.2000       524
    67.2200       532
    67.2400       474
    67.2600       452
    67.2800       436
    67.3000       416
    67.3200       394
    67.3400       372
    67.3600       376
    67.3800       374
    67.4000       366
    67.4200       336
    67.4400       328
    67.4600       340
    67.4800       318
    67.5000       356
    67.5200       312
    67.5400       354
    67.5600       310
    67.5800       346
    67.6000       336
    67.6200       308
    67.6400       320
    67.6600       330
    67.6800       344
    67.7000       322
    67.7200       348
    67.7400       370
    67.7600       356
    67.7800       380
    67.8000       382
    67.8200       376
    67.8400       430
    67.8600       418
    67.8800       420
    67.9000       422
    67.9200       490
    67.9400       502
    67.9600       550
    67.9800       582
    68.0000       694
    68.0200       700
    68.0400       726
    68.0600       732
    68.0800       890
    68.1000       846
    68.1200       884
    68.1400       936
    68.1600       962
    68.1800       972
    68.2000      1002
    68.2200       962
    68.2400      1018
    68.2600      1016
    68.2800       994
    68.3000       920
    68.3200       976
    68.3400       906
    68.3600       926
    68.3800       832
    68.4000       828
    68.4200       758
    68.4400       752
    68.4600       816
    68.4800       680
    68.5000       664
    68.5200       644
    68.5400       604
    68.5600       592
    68.5800       556
    68.6000       536
    68.6200       504
    68.6400       462
    68.6600       462
    68.6800       476
    68.7000       412
    68.7200       382
    68.7400       438
    68.7600       368
    68.7800       352
    68.8000       372
    68.8200       340
    68.8400       388
    68.8600       342
    68.8800       342
    68.9000       342
    68.9200       332
    68.9400       322
    68.9600       368
    68.9800       338
    69.0000       318
    69.0200       336
    69.0400       336
    69.0600       346
    69.0800       346
    69.1000       336
    69.1200       368
    69.1400       336
    69.1600       338
    69.1800       356
    69.2000       374
    69.2200       342
    69.2400       394
    69.2600       392
    69.2800       418
    69.3000       392
    69.3200       376
    69.3400       416
    69.3600       432
    69.3800       432
    69.4000       486
    69.4200       486
    69.4400       464
    69.4600       492
    69.4800       464
    69.5000       452
    69.5200       490
    69.5400       484
    69.5600       472
    69.5800       470
    69.6000       462
    69.6200       402
    69.6400       400
    69.6600       446
    69.6800       440
    69.7000       378
    69.7200       370
    69.7400       388
    69.7600       380
    69.7800       326
    69.8000       356
    69.8200       346
    69.8400       324
    69.8600       352
    69.8800       322
    69.9000       312
    69.9200       314
    69.9400       332
    69.9600       284
    69.9800       298
    70.0000       274
    70.0200       326
    70.0400       274
    70.0600       260
    70.0800       280
    70.1000       240
    70.1200       262
    70.1400       278
    70.1600       228
    70.1800       234
    70.2000       264
    70.2200       252
    70.2400       236
    70.2600       236
    70.2800       214
    70.3000       234
    70.3200       230
    70.3400       216
    70.3600       244
    70.3800       228
    70.4000       248
    70.4200       256
    70.4400       224
    70.4600       246
    70.4800       232
    70.5000       250
    70.5200       232
    70.5400       248
    70.5600       240
    70.5800       218
    70.6000       228
    70.6200       242
    70.6400       238
    70.6600       236
    70.6800       240
    70.7000       254
    70.7200       262
    70.7400       220
    70.7600       226
    70.7800       250
    70.8000       218
    70.8200       254
    70.8400       246
    70.8600       230
    70.8800       206
    70.9000       230
    70.9200       244
    70.9400       210
    70.9600       222
    70.9800       246
    71.0000       222
    71.0200       216
    71.0400       222
    71.0600       216
    71.0800       230
    71.1000       230
    71.1200       272
    71.1400       238
    71.1600       252
    71.1800       298
    71.2000       256
    71.2200       302
    71.2400       268
    71.2600       306
    71.2800       308
    71.3000       308
    71.3200       314
    71.3400       386
    71.3600       386
    71.3800       414
    71.4000       404
    71.4200       420
    71.4400       442
    71.4600       476
    71.4800       484
    71.5000       492
    71.5200       534
    71.5400       544
    71.5600       514
    71.5800       542
    71.6000       516
    71.6200       514
    71.6400       510
    71.6600       502
    71.6800       516
    71.7000       496
    71.7200       546
    71.7400       474
    71.7600       458
    71.7800       478
    71.8000       452
    71.8200       470
    71.8400       498
    71.8600       460
    71.8800       442
    71.9000       422
    71.9200       452
    71.9400       450
    71.9600       450
    71.9800       416
    72.0000       448
    72.0200       398
    72.0400       440
    72.0600       408
    72.0800       388
    72.1000       456
    72.1200       426
    72.1400       404
    72.1600       416
    72.1800       388
    72.2000       460
    72.2200       474
    72.2400       450
    72.2600       464
    72.2800       464
    72.3000       456
    72.3200       462
    72.3400       504
    72.3600       518
    72.3800       454
    72.4000       466
    72.4200       476
    72.4400       532
    72.4600       514
    72.4800       446
    72.5000       464
    72.5200       458
    72.5400       484
    72.5600       452
    72.5800       510
    72.6000       432
    72.6200       508
    72.6400       436
    72.6600       462
    72.6800       454
    72.7000       454
    72.7200       464
    72.7400       414
    72.7600       464
    72.7800       438
    72.8000       472
    72.8200       432
    72.8400       422
    72.8600       446
    72.8800       398
    72.9000       388
    72.9200       412
    72.9400       420
    72.9600       410
    72.9800       372
    73.0000       352
    73.0200       334
    73.0400       366
    73.0600       338
    73.0800       354
    73.1000       308
    73.1200       344
    73.1400       300
    73.1600       312
    73.1800       304
    73.2000       282
    73.2200       248
    73.2400       316
    73.2600       268
    73.2800       258
    73.3000       260
    73.3200       256
    73.3400       266
    73.3600       278
    73.3800       238
    73.4000       276
    73.4200       234
    73.4400       240
    73.4600       256
    73.4800       280
    73.5000       258
    73.5200       306
    73.5400       256
    73.5600       278
    73.5800       264
    73.6000       260
    73.6200       294
    73.6400       310
    73.6600       302
    73.6800       284
    73.7000       280
    73.7200       278
    73.7400       274
    73.7600       320
    73.7800       300
    73.8000       296
    73.8200       292
    73.8400       314
    73.8600       320
    73.8800       300
    73.9000       342
    73.9200       330
    73.9400       366
    73.9600       304
    73.9800       364
    74.0000       342
    74.0200       322
    74.0400       320
    74.0600       338
    74.0800       332
    74.1000       334
    74.1200       354
    74.1400       336
    74.1600       326
    74.1800       336
    74.2000       326
    74.2200       350
    74.2400       328
    74.2600       316
    74.2800       326
    74.3000       292
    74.3200       312
    74.3400       284
    74.3600       262
    74.3800       264
    74.4000       246
    74.4200       286
    74.4400       214
    74.4600       218
    74.4800       256
    74.5000       268
    74.5200       230
    74.5400       276
    74.5600       240
    74.5800       226
    74.6000       228
    74.6200       228
    74.6400       240
    74.6600       214
    74.6800       234
    74.7000       226
    74.7200       210
    74.7400       240
    74.7600       228
    74.7800       224
    74.8000       194
    74.8200       200
    74.8400       214
    74.8600       206
    74.8800       204
    74.9000       220
    74.9200       218
    74.9400       200
    74.9600       230
    74.9800       224
    75.0000       202
    75.0200       224
    75.0400       224
    75.0600       214
    75.0800       236
    75.1000       210
    75.1200       240
    75.1400       216
    75.1600       234
    75.1800       254
    75.2000       244
    75.2200       222
    75.2400       230
    75.2600       240
    75.2800       274
    75.3000       250
    75.3200       258
    75.3400       242
    75.3600       208
    75.3800       228
    75.4000       258
    75.4200       208
    75.4400       270
    75.4600       252
    75.4800       218
    75.5000       228
    75.5200       260
    75.5400       242
    75.5600       244
    75.5800       226
    75.6000       228
    75.6200       256
    75.6400       230
    75.6600       226
    75.6800       246
    75.7000       224
    75.7200       246
    75.7400       244
    75.7600       240
    75.7800       246
    75.8000       256
    75.8200       214
    75.8400       202
    75.8600       230
    75.8800       232
    75.9000       240
    75.9200       248
    75.9400       264
    75.9600       232
    75.9800       256
    76.0000       220
    76.0200       236
    76.0400       212
    76.0600       222
    76.0800       238
    76.1000       242
    76.1200       274
    76.1400       222
    76.1600       256
    76.1800       282
    76.2000       272
    76.2200       250
    76.2400       242
    76.2600       266
    76.2800       294
    76.3000       292
    76.3200       318
    76.3400       304
    76.3600       306
    76.3800       310
    76.4000       326
    76.4200       348
    76.4400       340
    76.4600       352
    76.4800       382
    76.5000       388
    76.5200       366
    76.5400       314
    76.5600       370
    76.5800       374
    76.6000       392
    76.6200       356
    76.6400       358
    76.6600       350
    76.6800       380
    76.7000       370
    76.7200       364
    76.7400       400
    76.7600       354
    76.7800       356
    76.8000       356
    76.8200       354
    76.8400       368
    76.8600       364
    76.8800       358
    76.9000       382
    76.9200       372
    76.9400       370
    76.9600       346
    76.9800       362
    77.0000       316
    77.0200       344
    77.0400       334
    77.0600       324
    77.0800       300
    77.1000       326
    77.1200       326
    77.1400       326
    77.1600       310
    77.1800       332
    77.2000       338
    77.2200       302
    77.2400       404
    77.2600       356
    77.2800       362
    77.3000       346
    77.3200       356
    77.3400       356
    77.3600       406
    77.3800       482
    77.4000       452
    77.4200       450
    77.4400       438
    77.4600       494
    77.4800       528
    77.5000       526
    77.5200       606
    77.5400       638
    77.5600       606
    77.5800       586
    77.6000       648
    77.6200       678
    77.6400       724
    77.6600       748
    77.6800       740
    77.7000       692
    77.7200       692
    77.7400       698
    77.7600       708
    77.7800       670
    77.8000       668
    77.8200       592
    77.8400       614
    77.8600       658
    77.8800       636
    77.9000       604
    77.9200       638
    77.9400       650
    77.9600       598
    77.9800       532
    78.0000       562
    78.0200       504
    78.0400       524
    78.0600       482
    78.0800       498
    78.1000       438
    78.1200       486
    78.1400       404
    78.1600       416
    78.1800       442
    78.2000       390
    78.2200       368
    78.2400       370
    78.2600       412
    78.2800       394
    78.3000       414
    78.3200       330
    78.3400       366
    78.3600       358
    78.3800       390
    78.4000       386
    78.4200       336
    78.4400       388
    78.4600       374
    78.4800       368
    78.5000       374
    78.5200       364
    78.5400       386
    78.5600       424
    78.5800       364
    78.6000       382
    78.6200       414
    78.6400       368
    78.6600       394
    78.6800       400
    78.7000       374
    78.7200       382
    78.7400       396
    78.7600       382
    78.7800       408
    78.8000       392
    78.8200       336
    78.8400       342
    78.8600       348
    78.8800       336
    78.9000       342
    78.9200       378
    78.9400       336
    78.9600       332
    78.9800       314
    79.0000       304
    79.0200       310
    79.0400       286
    79.0600       298
    79.0800       278
    79.1000       278
    79.1200       310
    79.1400       280
    79.1600       292
    79.1800       268
    79.2000       290
    79.2200       300
    79.2400       262
    79.2600       266
    79.2800       252
    79.3000       248
    79.3200       252
    79.3400       254
    79.3600       260
    79.3800       278
    79.4000       244
    79.4200       226
    79.4400       250
    79.4600       260
    79.4800       254
    79.5000       272
    79.5200       228
    79.5400       254
    79.5600       294
    79.5800       252
    79.6000       266
    79.6200       250
    79.6400       260
    79.6600       254
    79.6800       244
    79.7000       214
    79.7200       232
    79.7400       244
    79.7600       244
    79.7800       250
    79.8000       268
    79.8200       226
    79.8400       240
    79.8600       238
    79.8800       224
    79.9000       256
    79.9200       250
    79.9400       242
    79.9600       228
    79.9800       250
    80.0000       214
    80.0200       230
    80.0400       248
    80.0600       244
    80.0800       218
    80.1000       242
    80.1200       248
    80.1400       270
    80.1600       240
    80.1800       262
    80.2000       248
    80.2200       270
    80.2400       248
    80.2600       236
    80.2800       258
    80.3000       278
    80.3200       282
    80.3400       268
    80.3600       234
    80.3800       246
    80.4000       292
    80.4200       288
    80.4400       270
    80.4600       270
    80.4800       290
    80.5000       256
    80.5200       250
    80.5400       270
    80.5600       312
    80.5800       276
    80.6000       300
    80.6200       276
    80.6400       278
    80.6600       284
    80.6800       272
    80.7000       292
    80.7200       268
    80.7400       260
    80.7600       236
    80.7800       250
    80.8000       252
    80.8200       252
    80.8400       272
    80.8600       294
    80.8800       240
    80.9000       230
    80.9200       260
    80.9400       244
    80.9600       234
    80.9800       228
    81.0000       226
    81.0200       194
    81.0400       216
    81.0600       222
    81.0800       240
    81.1000       262
    81.1200       220
    81.1400       230
    81.1600       230
    81.1800       248
    81.2000       226
    81.2200       258
    81.2400       230
    81.2600       232
    81.2800       250
    81.3000       218
    81.3200       262
    81.3400       236
    81.3600       242
    81.3800       264
    81.4000       276
    81.4200       258
    81.4400       272
    81.4600       254
    81.4800       276
    81.5000       276
    81.5200       260
    81.5400       278
    81.5600       272
    81.5800       254
    81.6000       270
    81.6200       280
    81.6400       288
    81.6600       278
    81.6800       280
    81.7000       282
    81.7200       274
    81.7400       304
    81.7600       310
    81.7800       296
    81.8000       318
    81.8200       308
    81.8400       326
    81.8600       320
    81.8800       302
    81.9000       294
    81.9200       326
    81.9400       310
    81.9600       302
    81.9800       312
    82.0000       316
    82.0200       354
    82.0400       332
    82.0600       334
    82.0800       318
    82.1000       344
    82.1200       352
    82.1400       380
    82.1600       344
    82.1800       318
    82.2000       352
    82.2200       354
    82.2400       398
    82.2600       396
    82.2800       346
    82.3000       396
    82.3200       392
    82.3400       382
    82.3600       408
    82.3800       392
    82.4000       372
    82.4200       380
    82.4400       398
    82.4600       396
    82.4800       400
    82.5000       368
    82.5200       436
    82.5400       390
    82.5600       460
    82.5800       472
    82.6000       444
    82.6200       468
    82.6400       434
    82.6600       418
    82.6800       444
    82.7000       484
    82.7200       498
    82.7400       472
    82.7600       500
    82.7800       460
    82.8000       504
    82.8200       504
    82.8400       486
    82.8600       474
    82.8800       516
    82.9000       484
    82.9200       478
    82.9400       478
    82.9600       532
    82.9800       484
    83.0000       480
    83.0200       502
    83.0400       472
    83.0600       484
    83.0800       466
    83.1000       448
    83.1200       456
    83.1400       426
    83.1600       428
    83.1800       416
    83.2000       432
    83.2200       436
    83.2400       478
    83.2600       402
    83.2800       378
    83.3000       408
    83.3200       384
    83.3400       374
    83.3600       360
    83.3800       386
    83.4000       368
    83.4200       374
    83.4400       374
    83.4600       378
    83.4800       338
    83.5000       376
    83.5200       338
    83.5400       326
    83.5600       320
    83.5800       330
    83.6000       354
    83.6200       308
    83.6400       292
    83.6600       312
    83.6800       330
    83.7000       334
    83.7200       264
    83.7400       292
    83.7600       292
    83.7800       316
    83.8000       306
    83.8200       238
    83.8400       312
    83.8600       280
    83.8800       290
    83.9000       264
    83.9200       294
    83.9400       280
    83.9600       304
    83.9800       290
    84.0000       276
    84.0200       332
    84.0400       276
    84.0600       294
    84.0800       292
    84.1000       294
    84.1200       306
    84.1400       294
    84.1600       308
    84.1800       292
    84.2000       318
    84.2200       338
    84.2400       322
    84.2600       270
    84.2800       334
    84.3000       296
    84.3200       292
    84.3400       310
    84.3600       272
    84.3800       302
    84.4000       308
    84.4200       268
    84.4400       292
    84.4600       264
    84.4800       318
    84.5000       298
    84.5200       286
    84.5400       280
    84.5600       284
    84.5800       296
    84.6000       248
    84.6200       296
    84.6400       266
    84.6600       280
    84.6800       272
    84.7000       272
    84.7200       278
    84.7400       266
    84.7600       268
    84.7800       288
    84.8000       258
    84.8200       290
    84.8400       264
    84.8600       274
    84.8800       262
    84.9000       268
    84.9200       278
    84.9400       256
    84.9600       260
    84.9800       258
    85.0000       238
    85.0200       232
    85.0400       258
    85.0600       246
    85.0800       232
    85.1000       252
    85.1200       240
    85.1400       234
    85.1600       214
    85.1800       228
    85.2000       232
    85.2200       230
    85.2400       228
    85.2600       212
    85.2800       266
    85.3000       264
    85.3200       214
    85.3400       252
    85.3600       266
    85.3800       236
    85.4000       242
    85.4200       266
    85.4400       250
    85.4600       264
    85.4800       258
    85.5000       276
    85.5200       322
    85.5400       248
    85.5600       300
    85.5800       274
    85.6000       272
    85.6200       290
    85.6400       280
    85.6600       298
    85.6800       302
    85.7000       286
    85.7200       262
    85.7400       290
    85.7600       300
    85.7800       300
    85.8000       298
    85.8200       288
    85.8400       276
    85.8600       290
    85.8800       270
    85.9000       272
    85.9200       270
    85.9400       290
    85.9600       252
    85.9800       240
    86.0000       278
    86.0200       230
    86.0400       264
    86.0600       248
    86.0800       240
    86.1000       218
    86.1200       238
    86.1400       238
    86.1600       248
    86.1800       226
    86.2000       248
    86.2200       234
    86.2400       222
    86.2600       242
    86.2800       260
    86.3000       246
    86.3200       210
    86.3400       236
    86.3600       244
    86.3800       210
    86.4000       218
    86.4200       250
    86.4400       244
    86.4600       232
    86.4800       220
    86.5000       230
    86.5200       242
    86.5400       230
    86.5600       264
    86.5800       226
    86.6000       250
    86.6200       236
    86.6400       242
    86.6600       208
    86.6800       260
    86.7000       294
    86.7200       262
    86.7400       296
    86.7600       316
    86.7800       330
    86.8000       274
    86.8200       282
    86.8400       296
    86.8600       266
    86.8800       322
    86.9000       310
    86.9200       266
    86.9400       308
    86.9600       304
    86.9800       278
    87.0000       330
    87.0200       314
    87.0400       292
    87.0600       316
    87.0800       294
    87.1000       320
    87.1200       320
    87.1400       304
    87.1600       308
    87.1800       296
    87.2000       312
    87.2200       296
    87.2400       328
    87.2600       292
    87.2800       318
    87.3000       290
    87.3200       270
    87.3400       280
    87.3600       306
    87.3800       280
    87.4000       306
    87.4200       266
    87.4400       272
    87.4600       306
    87.4800       296
    87.5000       264
    87.5200       278
    87.5400       266
    87.5600       306
    87.5800       324
    87.6000       286
    87.6200       298
    87.6400       276
    87.6600       264
    87.6800       290
    87.7000       314
    87.7200       306
    87.7400       322
    87.7600       306
    87.7800       318
    87.8000       302
    87.8200       310
    87.8400       334
    87.8600       320
    87.8800       336
    87.9000       322
    87.9200       348
    87.9400       328
    87.9600       334
    87.9800       350
    88.0000       346
    88.0200       368
    88.0400       366
    88.0600       360
    88.0800       364
    88.1000       332
    88.1200       392
    88.1400       404
    88.1600       342
    88.1800       336
    88.2000       362
    88.2200       360
    88.2400       352
    88.2600       370
    88.2800       384
    88.3000       378
    88.3200       408
    88.3400       340
    88.3600       360
    88.3800       370
    88.4000       360
    88.4200       400
    88.4400       382
    88.4600       390
    88.4800       414
    88.5000       328
    88.5200       408
    88.5400       344
    88.5600       366
    88.5800       388
    88.6000       364
    88.6200       370
    88.6400       332
    88.6600       376
    88.6800       336
    88.7000       366
    88.7200       328
    88.7400       330
    88.7600       330
    88.7800       296
    88.8000       308
    88.8200       296
    88.8400       316
    88.8600       290
    88.8800       282
    88.9000       280
    88.9200       294
    88.9400       270
    88.9600       266
    88.9800       282
    89.0000       264
    89.0200       286
    89.0400       260
    89.0600       272
    89.0800       258
    89.1000       270
    89.1200       256
    89.1400       248
    89.1600       250
    89.1800       256
    89.2000       250
    89.2200       252
    89.2400       234
    89.2600       268
    89.2800       258
    89.3000       256
    89.3200       264
    89.3400       262
    89.3600       264
    89.3800       250
    89.4000       230
    89.4200       244
    89.4400       244
    89.4600       258
    89.4800       256
    89.5000       246
    89.5200       238
    89.5400       240
    89.5600       276
    89.5800       232
    89.6000       258
    89.6200       254
    89.6400       250
    89.6600       288
    89.6800       242
    89.7000       308
    89.7200       252
    89.7400       246
    89.7600       258
    89.7800       252
    89.8000       262
    89.8200       272
    89.8400       276
    89.8600       284
    89.8800       252
    89.9000       272
    89.9200       264
    89.9400       282
    89.9600       278
    89.9800       288
    90.0000       242
