    10.0000       400
    10.0200       320
    10.0400       350
    10.0600       376
    10.0800       340
    10.1000       372
    10.1200       352
    10.1400       338
    10.1600       334
    10.1800       362
    10.2000       318
    10.2200       350
    10.2400       394
    10.2600       326
    10.2800       360
    10.3000       342
    10.3200       352
    10.3400       336
    10.3600       348
    10.3800       334
    10.4000       308
    10.4200       338
    10.4400       318
    10.4600       336
    10.4800       348
    10.5000       324
    10.5200       314
    10.5400       332
    10.5600       324
    10.5800       318
    10.6000       328
    10.6200       376
    10.6400       328
    10.6600       352
    10.6800       334
    10.7000       320
    10.7200       358
    10.7400       320
    10.7600       338
    10.7800       346
    10.8000       328
    10.8200       328
    10.8400       346
    10.8600       320
    10.8800       330
    10.9000       326
    10.9200       324
    10.9400       308
    10.9600       316
    10.9800       360
    11.0000       308
    11.0200       322
    11.0400       356
    11.0600       312
    11.0800       306
    11.1000       328
    11.1200       316
    11.1400       300
    11.1600       298
    11.1800       320
    11.2000       326
    11.2200       338
    11.2400       330
    11.2600       292
    11.2800       314
    11.3000       292
    11.3200       320
    11.3400       304
    11.3600       350
    11.3800       332
    11.4000       294
    11.4200       310
    11.4400       292
    11.4600       286
    11.4800       308
    11.5000       328
    11.5200       290
    11.5400       324
    11.5600       276
    11.5800       324
    11.6000       282
    11.6200       298
    11.6400       286
    11.6600       296
    11.6800       294
    11.7000       330
    11.7200       342
    11.7400       268
    11.7600       296
    11.7800       270
    11.8000       318
    11.8200       316
    11.8400       266
    11.8600       312
    11.8800       286
    11.9000       302
    11.9200       324
    11.9400       308
    11.9600       326
    11.9800       290
    12.0000       308
    12.0200       314
    12.0400       280
    12.0600       288
    12.0800       268
    12.1000       282
    12.1200       312
    12.1400       274
    12.1600       304
    12.1800       326
    12.2000       294
    12.2200       302
    12.2400       286
    12.2600       274
    12.2800       292
    12.3000       320
    12.3200       252
    12.3400       278
    12.3600       232
    12.3800       300
    12.4000       278
    12.4200       314
    12.4400       262
    12.4600       282
    12.4800       258
    12.5000       292
    12.5200       282
    12.5400       272
    12.5600       292
    12.5800       256
    12.6000       278
    12.6200       278
    12.6400       284
    12.6600       272
    12.6800       244
    12.7000       282
    12.7200       262
    12.7400       286
    12.7600       254
    12.7800       278
    12.8000       300
    12.8200       258
    12.8400       304
    12.8600       276
    12.8800       284
    12.9000       240
    12.9200       258
    12.9400       256
    12.9600       274
    12.9800       254
    13.0000       250
    13.0200       264
    13.0400       304
    13.0600       302
    13.0800       238
    13.1000       256
    13.1200       274
    13.1400       276
    13.1600       274
    13.1800       244
    13.2000       242
    13.2200       250
    13.2400       290
    13.2600       274
    13.2800       242
    13.3000       222
    13.3200       258
    13.3400       242
    13.3600       236
    13.3800       236
    13.4000       260
    13.4200       252
    13.4400       274
    13.4600       244
    13.4800       266
    13.5000       232
    13.5200       266
    13.5400       240
    13.5600       260
    13.5800       252
    13.6000       242
    13.6200       262
    13.6400       270
    13.6600       256
    13.6800       244
    13.7000       232
    13.7200       244
    13.7400       244
    13.7600       276
    13.7800       266
    13.8000       256
    13.8200       260
    13.8400       248
    13.8600       232
    13.8800       228
    13.9000       242
    13.9200       240
    13.9400       246
    13.9600       232
    13.9800       258
    14.0000       238
    14.0200       250
    14.0400       258
    14.0600       254
    14.0800       244
    14.1000       278
    14.1200       222
    14.1400       226
    14.1600       274
    14.1800       260
    14.2000       262
    14.2200       244
    14.2400       258
    14.2600       228
    14.2800       210
    14.3000       218
    14.3200       242
    14.3400       248
    14.3600       236
    14.3800       236
    14.4000       248
    14.4200       220
    14.4400       212
    14.4600       250
    14.4800       210
    14.5000       224
    14.5200       224
    14.5400       236
    14.5600       238
    14.5800       220
    14.6000       230
    14.6200       218
    14.6400       240
    14.6600       220
    14.6800       234
    14.7000       230
    14.7200       246
    14.7400       238
    14.7600       246
    14.7800       216
    14.8000       242
    14.8200       228
    14.8400       244
    14.8600       230
    14.8800       224
    14.9000       234
    14.9200       224
    14.9400       236
    14.9600       220
    14.9800       246
    15.0000       234
    15.0200       244
    15.0400       246
    15.0600       238
    15.0800       250
    15.1000       234
    15.1200       248
    15.1400       256
    15.1600       234
    15.1800       250
    15.2000       256
    15.2200       270
    15.2400       266
    15.2600       228
    15.2800       258
    15.3000       250
    15.3200       302
    15.3400       258
    15.3600       268
    15.3800       274
    15.4000       290
    15.4200       324
    15.4400       274
    15.4600       328
    15.4800       314
    15.5000       342
    15.5200       308
    15.5400       330
    15.5600       312
    15.5800       374
    15.6000       326
    15.6200       324
    15.6400       326
    15.6600       344
    15.6800       354
    15.7000       328
    15.7200       282
    15.7400       306
    15.7600       294
    15.7800       310
    15.8000       264
    15.8200       286
    15.8400       300
    15.8600       302
    15.8800       276
    15.9000       242
    15.9200       254
    15.9400       268
    15.9600       272
    15.9800       284
    16.0000       256
    16.0200       282
    16.0400       274
    16.0600       246
    16.0800       242
    16.1000       254
    16.1200       242
    16.1400       234
    16.1600       220
    16.1800       246
    16.2000       220
    16.2200       224
    16.2400       254
    16.2600       256
    16.2800       214
    16.3000       220
    16.3200       238
    16.3400       256
    16.3600       258
    16.3800       264
    16.4000       240
    16.4200       248
    16.4400       230
    16.4600       246
    16.4800       238
    16.5000       232
    16.5200       214
    16.5400       238
    16.5600       224
    16.5800       218
    16.6000       230
    16.6200       220
    16.6400       212
    16.6600       260
    16.6800       210
    16.7000       210
    16.7200       214
    16.7400       210
    16.7600       206
    16.7800       262
    16.8000       228
    16.8200       236
    16.8400       238
    16.8600       212
    16.8800       204
    16.9000       198
    16.9200       220
    16.9400       210
    16.9600       228
    16.9800       202
    17.0000       226
    17.0200       242
    17.0400       240
    17.0600       218
    17.0800       206
    17.1000       194
    17.1200       268
    17.1400       214
    17.1600       236
    17.1800       232
    17.2000       210
    17.2200       216
    17.2400       242
    17.2600       218
    17.2800       204
    17.3000       230
    17.3200       182
    17.3400       198
    17.3600       230
    17.3800       222
    17.4000       208
    17.4200       202
    17.4400       210
    17.4600       194
    17.4800       194
    17.5000       216
    17.5200       216
    17.5400       204
    17.5600       202
    17.5800       222
    17.6000       200
    17.6200       214
    17.6400       216
    17.6600       214
    17.6800       214
    17.7000       212
    17.7200       204
    17.7400       200
    17.7600       210
    17.7800       188
    17.8000       192
    17.8200       182
    17.8400       204
    17.8600       220
    17.8800       196
    17.9000       200
    17.9200       224
    17.9400       216
    17.9600       202
    17.9800       204
    18.0000       210
    18.0200       190
    18.0400       208
    18.0600       204
    18.0800       224
    18.1000       180
    18.1200       188
    18.1400       210
    18.1600       204
    18.1800       210
    18.2000       194
    18.2200       186
    18.2400       208
    18.2600       202
    18.2800       206
    18.3000       212
    18.3200       216
    18.3400       224
    18.3600       210
    18.3800       230
    18.4000       230
    18.4200       242
    18.4400       192
    18.4600       196
    18.4800       234
    18.5000       234
    18.5200       212
    18.5400       192
    18.5600       224
    18.5800       228
    18.6000       210
    18.6200       254
    18.6400       216
    18.6600       206
    18.6800       220
    18.7000       254
    18.7200       208
    18.7400       256
    18.7600       256
    18.7800       236
    18.8000       226
    18.8200       256
    18.8400       276
    18.8600       300
    18.8800       288
    18.9000       316
    18.9200       334
    18.9400       362
    18.9600       342
    18.9800       386
    19.0000       384
    19.0200       396
    19.0400       448
    19.0600       436
    19.0800       434
    19.1000       482
    19.1200       490
    19.1400       520
    19.1600       550
    19.1800       620
    19.2000       668
    19.2200       718
    19.2400       800
    19.2600       890
    19.2800       972
    19.3000      1112
    19.3200      1204
    19.3400      1418
    19.3600      1672
    19.3800      1828
    19.4000      2242
    19.4200      2470
    19.4400      2938
    19.4600      3332
    19.4800      3930
    19.5000      4290
    19.5200      4502
    19.5400      4316
    19.5600      3808
    19.5800      3366
    19.6000      2650
    19.6200      2034
    19.6400      1752
    19.6600      1486
    19.6800      1366
    19.7000      1296
    19.7200      1292
    19.7400      1330
    19.7600      1468
    19.7800      1530
    19.8000      1734
    19.8200      2004
    19.8400      2160
    19.8600      2396
    19.8800      2746
    19.9000      3050
    19.9200      3266
    19.9400      3332
    19.9600      3152
    19.9800      2876
    20.0000      2498
    20.0200      2038
    20.0400      1612
    20.0600      1316
    20.0800      1040
    20.1000       872
    20.1200       696
    20.1400       638
    20.1600       536
    20.1800       478
    20.2000       454
    20.2200       382
    20.2400       366
    20.2600       382
    20.2800       304
    20.3000       308
    20.3200       296
    20.3400       330
    20.3600       266
    20.3800       254
    20.4000       264
    20.4200       266
    20.4400       252
    20.4600       252
    20.4800       206
    20.5000       212
    20.5200       236
    20.5400       236
    20.5600       244
    20.5800       254
    20.6000       240
    20.6200       220
    20.6400       236
    20.6600       236
    20.6800       220
    20.7000       202
    20.7200       234
    20.7400       248
    20.7600       256
    20.7800       222
    20.8000       240
    20.8200       250
    20.8400       240
    20.8600       250
    20.8800       264
    20.9000       242
    20.9200       286
    20.9400       232
    20.9600       256
    20.9800       292
    21.0000       276
    21.0200       250
    21.0400       262
    21.0600       282
    21.0800       266
    21.1000       256
    21.1200       244
    21.1400       260
    21.1600       240
    21.1800       222
    21.2000       230
    21.2200       214
    21.2400       226
    21.2600       220
    21.2800       218
    21.3000       188
    21.3200       204
    21.3400       200
    21.3600       222
    21.3800       240
    21.4000       194
    21.4200       200
    21.4400       212
    21.4600       218
    21.4800       218
    21.5000       212
    21.5200       226
    21.5400       198
    21.5600       224
    21.5800       200
    21.6000       188
    21.6200       186
    21.6400       204
    21.6600       218
    21.6800       206
    21.7000       208
    21.7200       200
    21.7400       224
    21.7600       202
    21.7800       210
    21.8000       238
    21.8200       192
    21.8400       218
    21.8600       220
    21.8800       184
    21.9000       216
    21.9200       202
    21.9400       184
    21.9600       220
    21.9800       200
    22.0000       210
    22.0200       188
    22.0400       228
    22.0600       200
    22.0800       212
    22.1000       248
    22.1200       240
    22.1400       218
    22.1600       224
    22.1800       262
    22.2000       242
    22.2200       246
    22.2400       282
    22.2600       286
    22.2800       272
    22.3000       322
    22.3200       304
    22.3400       336
    22.3600       364
    22.3800       384
    22.4000       420
    22.4200       476
    22.4400       540
    22.4600       602
    22.4800       642
    22.5000       714
    22.5200       794
    22.5400       832
    22.5600      1000
    22.5800      1114
    22.6000      1236
    22.6200      1480
    22.6400      1726
    22.6600      1956
    22.6800      2266
    22.7000      2772
    22.7200      3358
    22.7400      3910
    22.7600      4492
    22.7800      5162
    22.8000      5598
    22.8200      5862
    22.8400      5648
    22.8600      5026
    22.8800      4434
    22.9000      3632
    22.9200      2870
    22.9400      2286
    22.9600      1736
    22.9800      1324
    23.0000      1118
    23.0200       900
    23.0400       772
    23.0600       708
    23.0800       648
    23.1000       538
    23.1200       506
    23.1400       460
    23.1600       448
    23.1800       404
    23.2000       354
    23.2200       338
    23.2400       326
    23.2600       288
    23.2800       302
    23.3000       262
    23.3200       260
    23.3400       270
    23.3600       250
    23.3800       228
    23.4000       258
    23.4200       232
    23.4400       218
    23.4600       248
    23.4800       230
    23.5000       206
    23.5200       230
    23.5400       216
    23.5600       184
    23.5800       194
    23.6000       184
    23.6200       214
    23.6400       192
    23.6600       226
    23.6800       222
    23.7000       172
    23.7200       190
    23.7400       190
    23.7600       208
    23.7800       176
    23.8000       184
    23.8200       186
    23.8400       210
    23.8600       198
    23.8800       194
    23.9000       184
    23.9200       184
    23.9400       196
    23.9600       180
    23.9800       194
    24.0000       180
    24.0200       208
    24.0400       208
    24.0600       174
    24.0800       204
    24.1000       182
    24.1200       162
    24.1400       192
    24.1600       192
    24.1800       184
    24.2000       168
    24.2200       164
    24.2400       204
    24.2600       190
    24.2800       166
    24.3000       168
    24.3200       188
    24.3400       186
    24.3600       188
    24.3800       180
    24.4000       146
    24.4200       162
    24.4400       206
    24.4600       188
    24.4800       200
    24.5000       184
    24.5200       188
    24.5400       194
    24.5600       166
    24.5800       190
    24.6000       170
    24.6200       180
    24.6400       170
    24.6600       170
    24.6800       184
    24.7000       206
    24.7200       198
    24.7400       188
    24.7600       192
    24.7800       206
    24.8000       176
    24.8200       186
    24.8400       174
    24.8600       190
    24.8800       188
    24.9000       212
    24.9200       188
    24.9400       208
    24.9600       202
    24.9800       192
    25.0000       190
    25.0200       214
    25.0400       198
    25.0600       204
    25.0800       196
    25.1000       230
    25.1200       244
    25.1400       242
    25.1600       254
    25.1800       240
    25.2000       280
    25.2200       270
    25.2400       302
    25.2600       320
    25.2800       332
    25.3000       388
    25.3200       420
    25.3400       422
    25.3600       460
    25.3800       502
    25.4000       588
    25.4200       634
    25.4400       802
    25.4600       848
    25.4800       988
    25.5000      1082
    25.5200      1204
    25.5400      1290
    25.5600      1298
    25.5800      1240
    25.6000      1142
    25.6200      1006
    25.6400       918
    25.6600       810
    25.6800       636
    25.7000       596
    25.7200       504
    25.7400       408
    25.7600       368
    25.7800       324
    25.8000       340
    25.8200       302
    25.8400       298
    25.8600       260
    25.8800       300
    25.9000       244
    25.9200       228
    25.9400       228
    25.9600       220
    25.9800       228
    26.0000       240
    26.0200       234
    26.0400       214
    26.0600       240
    26.0800       214
    26.1000       210
    26.1200       200
    26.1400       226
    26.1600       198
    26.1800       228
    26.2000       210
    26.2200       192
    26.2400       200
    26.2600       212
    26.2800       214
    26.3000       226
    26.3200       170
    26.3400       162
    26.3600       202
    26.3800       206
    26.4000       198
    26.4200       182
    26.4400       182
    26.4600       204
    26.4800       168
    26.5000       228
    26.5200       190
    26.5400       204
    26.5600       178
    26.5800       176
    26.6000       188
    26.6200       192
    26.6400       208
    26.6600       192
    26.6800       196
    26.7000       194
    26.7200       172
    26.7400       216
    26.7600       174
    26.7800       182
    26.8000       154
    26.8200       188
    26.8400       194
    26.8600       172
    26.8800       186
    26.9000       210
    26.9200       170
    26.9400       188
    26.9600       190
    26.9800       172
    27.0000       208
    27.0200       196
    27.0400       194
    27.0600       190
    27.0800       172
    27.1000       220
    27.1200       206
    27.1400       214
    27.1600       184
    27.1800       164
    27.2000       198
    27.2200       218
    27.2400       200
    27.2600       184
    27.2800       238
    27.3000       202
    27.3200       216
    27.3400       200
    27.3600       196
    27.3800       210
    27.4000       208
    27.4200       216
    27.4400       210
    27.4600       212
    27.4800       206
    27.5000       212
    27.5200       212
    27.5400       192
    27.5600       226
    27.5800       214
    27.6000       234
    27.6200       224
    27.6400       246
    27.6600       290
    27.6800       288
    27.7000       252
    27.7200       276
    27.7400       306
    27.7600       326
    27.7800       326
    27.8000       366
    27.8200       374
    27.8400       410
    27.8600       416
    27.8800       554
    27.9000       548
    27.9200       594
    27.9400       650
    27.9600       700
    27.9800       800
    28.0000       852
    28.0200       962
    28.0400      1108
    28.0600      1304
    28.0800      1470
    28.1000      1684
    28.1200      2050
    28.1400      2240
    28.1600      2776
    28.1800      3148
    28.2000      3656
    28.2200      3954
    28.2400      4328
    28.2600      4586
    28.2800      4360
    28.3000      4136
    28.3200      3746
    28.3400      3202
    28.3600      2684
    28.3800      2268
    28.4000      1824
    28.4200      1504
    28.4400      1226
    28.4600      1072
    28.4800       960
    28.5000       756
    28.5200       642
    28.5400       592
    28.5600       586
    28.5800       474
    28.6000       446
    28.6200       440
    28.6400       422
    28.6600       370
    28.6800       314
    28.7000       322
    28.7200       288
    28.7400       324
    28.7600       288
    28.7800       290
    28.8000       252
    28.8200       256
    28.8400       258
    28.8600       252
    28.8800       224
    28.9000       240
    28.9200       220
    28.9400       200
    28.9600       226
    28.9800       236
    29.0000       204
    29.0200       198
    29.0400       256
    29.0600       214
    29.0800       214
    29.1000       190
    29.1200       212
    29.1400       224
    29.1600       228
    29.1800       216
    29.2000       228
    29.2200       228
    29.2400       196
    29.2600       206
    29.2800       216
    29.3000       224
    29.3200       200
    29.3400       204
    29.3600       210
    29.3800       196
    29.4000       230
    29.4200       214
    29.4400       198
    29.4600       222
    29.4800       214
    29.5000       208
    29.5200       220
    29.5400       198
    29.5600       208
    29.5800       214
    29.6000       190
    29.6200       190
    29.6400       204
    29.6600       208
    29.6800       204
    29.7000       182
    29.7200       202
    29.7400       230
    29.7600       196
    29.7800       196
    29.8000       206
    29.8200       216
    29.8400       208
    29.8600       180
    29.8800       178
    29.9000       204
    29.9200       202
    29.9400       186
    29.9600       182
    29.9800       212
    30.0000       188
    30.0200       216
    30.0400       194
    30.0600       210
    30.0800       224
    30.1000       216
    30.1200       214
    30.1400       186
    30.1600       220
    30.1800       204
    30.2000       206
    30.2200       208
    30.2400       216
    30.2600       194
    30.2800       212
    30.3000       200
    30.3200       212
    30.3400       214
    30.3600       186
    30.3800       230
    30.4000       222
    30.4200       206
    30.4400       192
    30.4600       240
    30.4800       232
    30.5000       232
    30.5200       198
    30.5400       234
    30.5600       208
    30.5800       198
    30.6000       200
    30.6200       230
    30.6400       214
    30.6600       242
    30.6800       250
    30.7000       216
    30.7200       256
    30.7400       238
    30.7600       232
    30.7800       248
    30.8000       222
    30.8200       234
    30.8400       240
    30.8600       246
    30.8800       228
    30.9000       256
    30.9200       248
    30.9400       272
    30.9600       286
    30.9800       282
    31.0000       278
    31.0200       304
    31.0400       278
    31.0600       296
    31.0800       276
    31.1000       304
    31.1200       338
    31.1400       298
    31.1600       340
    31.1800       326
    31.2000       350
    31.2200       322
    31.2400       350
    31.2600       396
    31.2800       398
    31.3000       408
    31.3200       372
    31.3400       392
    31.3600       418
    31.3800       434
    31.4000       424
    31.4200       418
    31.4400       414
    31.4600       480
    31.4800       434
    31.5000       460
    31.5200       470
    31.5400       544
    31.5600       530
    31.5800       592
    31.6000       610
    31.6200       660
    31.6400       692
    31.6600       692
    31.6800       778
    31.7000       846
    31.7200       916
    31.7400      1016
    31.7600      1212
    31.7800      1320
    31.8000      1552
    31.8200      1766
    31.8400      1982
    31.8600      2238
    31.8800      2508
    31.9000      3028
    31.9200      3288
    31.9400      3492
    31.9600      3630
    31.9800      3568
    32.0000      3402
    32.0200      3166
    32.0400      2908
    32.0600      2780
    32.0800      2450
    32.1000      2188
    32.1200      2016
    32.1400      2000
    32.1600      1946
    32.1800      2042
    32.2000      2068
    32.2200      2178
    32.2400      2300
    32.2600      2600
    32.2800      2858
    32.3000      3264
    32.3200      3764
    32.3400      4486
    32.3600      5018
    32.3800      6008
    32.4000      6974
    32.4200      8034
    32.4400      9060
    32.4600      9970
    32.4800     10284
    32.5000     10532
    32.5200     10424
    32.5400      9824
    32.5600      8788
    32.5800      8022
    32.6000      6914
    32.6200      5812
    32.6400      4976
    32.6600      4170
    32.6800      3512
    32.7000      2912
    32.7200      2542
    32.7400      2296
    32.7600      2010
    32.7800      1844
    32.8000      1786
    32.8200      1816
    32.8400      1706
    32.8600      1728
    32.8800      1584
    32.9000      1852
    32.9200      1802
    32.9400      2056
    32.9600      2012
    32.9800      2248
    33.0000      2206
    33.0200      2194
    33.0400      2024
    33.0600      1918
    33.0800      1810
    33.1000      1600
    33.1200      1438
    33.1400      1304
    33.1600      1110
    33.1800       972
    33.2000       882
    33.2200       770
    33.2400       744
    33.2600       644
    33.2800       598
    33.3000       550
    33.3200       518
    33.3400       494
    33.3600       460
    33.3800       444
    33.4000       418
    33.4200       446
    33.4400       372
    33.4600       348
    33.4800       350
    33.5000       366
    33.5200       354
    33.5400       348
    33.5600       340
    33.5800       310
    33.6000       304
    33.6200       282
    33.6400       302
    33.6600       282
    33.6800       274
    33.7000       274
    33.7200       302
    33.7400       260
    33.7600       258
    33.7800       258
    33.8000       294
    33.8200       274
    33.8400       264
    33.8600       290
    33.8800       254
    33.9000       248
    33.9200       272
    33.9400       288
    33.9600       276
    33.9800       296
    34.0000       328
    34.0200       316
    34.0400       324
    34.0600       334
    34.0800       298
    34.1000       360
    34.1200       344
    34.1400       330
    34.1600       362
    34.1800       370
    34.2000       378
    34.2200       392
    34.2400       382
    34.2600       390
    34.2800       432
    34.3000       412
    34.3200       442
    34.3400       448
    34.3600       472
    34.3800       446
    34.4000       478
    34.4200       472
    34.4400       462
    34.4600       402
    34.4800       452
    34.5000       416
    34.5200       416
    34.5400       412
    34.5600       384
    34.5800       372
    34.6000       356
    34.6200       360
    34.6400       390
    34.6600       324
    34.6800       340
    34.7000       286
    34.7200       312
    34.7400       292
    34.7600       316
    34.7800       290
    34.8000       298
    34.8200       294
    34.8400       310
    34.8600       272
    34.8800       288
    34.9000       278
    34.9200       300
    34.9400       282
    34.9600       278
    34.9800       214
    35.0000       252
    35.0200       242
    35.0400       254
    35.0600       268
    35.0800       256
    35.1000       268
    35.1200       276
    35.1400       248
    35.1600       268
    35.1800       238
    35.2000       234
    35.2200       268
    35.2400       292
    35.2600       266
    35.2800       276
    35.3000       284
    35.3200       278
    35.3400       290
    35.3600       280
    35.3800       304
    35.4000       282
    35.4200       314
    35.4400       320
    35.4600       328
    35.4800       336
    35.5000       336
    35.5200       352
    35.5400       340
    35.5600       364
    35.5800       378
    35.6000       412
    35.6200       384
    35.6400       446
    35.6600       474
    35.6800       464
    35.7000       468
    35.7200       496
    35.7400       494
    35.7600       488
    35.7800       490
    35.8000       488
    35.8200       508
    35.8400       512
    35.8600       510
    35.8800       506
    35.9000       500
    35.9200       538
    35.9400       566
    35.9600       602
    35.9800       602
    36.0000       670
    36.0200       760
    36.0400       826
    36.0600       824
    36.0800       940
    36.1000       846
    36.1200       868
    36.1400       846
    36.1600       844
    36.1800       738
    36.2000       744
    36.2200       676
    36.2400       648
    36.2600       540
    36.2800       568
    36.3000       526
    36.3200       494
    36.3400       498
    36.3600       488
    36.3800       518
    36.4000       490
    36.4200       500
    36.4400       504
    36.4600       536
    36.4800       560
    36.5000       598
    36.5200       622
    36.5400       680
    36.5600       694
    36.5800       762
    36.6000       870
    36.6200       974
    36.6400      1064
    36.6600      1230
    36.6800      1296
    36.7000      1596
    36.7200      1688
    36.7400      1964
    36.7600      2074
    36.7800      2302
    36.8000      2358
    36.8200      2390
    36.8400      2322
    36.8600      2178
    36.8800      1964
    36.9000      1876
    36.9200      1646
    36.9400      1616
    36.9600      1422
    36.9800      1232
    37.0000      1120
    37.0200      1022
    37.0400       956
    37.0600       910
    37.0800       862
    37.1000       820
    37.1200       780
    37.1400       708
    37.1600       688
    37.1800       672
    37.2000       652
    37.2200       596
    37.2400       624
    37.2600       590
    37.2800       574
    37.3000       554
    37.3200       550
    37.3400       538
    37.3600       506
    37.3800       562
    37.4000       538
    37.4200       478
    37.4400       526
    37.4600       538
    37.4800       540
    37.5000       506
    37.5200       498
    37.5400       510
    37.5600       524
    37.5800       556
    37.6000       574
    37.6200       624
    37.6400       600
    37.6600       584
    37.6800       674
    37.7000       690
    37.7200       786
    37.7400       804
    37.7600       874
    37.7800       958
    37.8000      1070
    37.8200      1240
    37.8400      1414
    37.8600      1640
    37.8800      1760
    37.9000      2080
    37.9200      2254
    37.9400      2422
    37.9600      2458
    37.9800      2608
    38.0000      2464
    38.0200      2468
    38.0400      2266
    38.0600      2302
    38.0800      2052
    38.1000      1984
    38.1200      1858
    38.1400      1878
    38.1600      1824
    38.1800      1916
    38.2000      2010
    38.2200      2086
    38.2400      2176
    38.2600      2440
    38.2800      2734
    38.3000      3100
    38.3200      3402
    38.3400      3848
    38.3600      4296
    38.3800      4658
    38.4000      4860
    38.4200      5184
    38.4400      5248
    38.4600      5098
    38.4800      5002
    38.5000      4826
    38.5200      4782
    38.5400      4794
    38.5600      4598
    38.5800      4628
    38.6000      4604
    38.6200      4552
    38.6400      4550
    38.6600      4460
    38.6800      4104
    38.7000      3996
    38.7200      3708
    38.7400      3384
    38.7600      3188
    38.7800      2996
    38.8000      2742
    38.8200      2358
    38.8400      2222
    38.8600      1954
    38.8800      1780
    38.9000      1620
    38.9200      1496
    38.9400      1304
    38.9600      1210
    38.9800      1184
    39.0000      1074
    39.0200       988
    39.0400       968
    39.0600       796
    39.0800       838
    39.1000       806
    39.1200       764
    39.1400       714
    39.1600       696
    39.1800       768
    39.2000       706
    39.2200       716
    39.2400       690
    39.2600       712
    39.2800       736
    39.3000       770
    39.3200       756
    39.3400       816
    39.3600       870
    39.3800       940
    39.4000       936
    39.4200      1080
    39.4400      1214
    39.4600      1286
    39.4800      1466
    39.5000      1506
    39.5200      1854
    39.5400      1998
    39.5600      2200
    39.5800      2540
    39.6000      2884
    39.6200      3032
    39.6400      3058
    39.6600      3138
    39.6800      2896
    39.7000      2712
    39.7200      2500
    39.7400      2264
    39.7600      2036
    39.7800      1906
    39.8000      1644
    39.8200      1390
    39.8400      1226
    39.8600      1090
    39.8800       944
    39.9000       882
    39.9200       820
    39.9400       822
    39.9600       736
    39.9800       734
    40.0000       688
    40.0200       628
    40.0400       638
    40.0600       624
    40.0800       602
    40.1000       566
    40.1200       588
    40.1400       624
    40.1600       614
    40.1800       610
    40.2000       634
    40.2200       660
    40.2400       658
    40.2600       694
    40.2800       760
    40.3000       790
    40.3200       866
    40.3400       970
    40.3600       984
    40.3800      1100
    40.4000      1276
    40.4200      1404
    40.4400      1464
    40.4600      1592
    40.4800      1612
    40.5000      1734
    40.5200      1730
    40.5400      1670
    40.5600      1598
    40.5800      1594
    40.6000      1364
    40.6200      1322
    40.6400      1266
    40.6600      1100
    40.6800       940
    40.7000       852
    40.7200       844
    40.7400       772
    40.7600       644
    40.7800       614
    40.8000       538
    40.8200       550
    40.8400       504
    40.8600       504
    40.8800       434
    40.9000       446
    40.9200       448
    40.9400       408
    40.9600       422
    40.9800       418
    41.0000       412
    41.0200       446
    41.0400       374
    41.0600       348
    41.0800       404
    41.1000       386
    41.1200       368
    41.1400       376
    41.1600       366
    41.1800       396
    41.2000       368
    41.2200       380
    41.2400       384
    41.2600       386
    41.2800       398
    41.3000       416
    41.3200       400
    41.3400       382
    41.3600       424
    41.3800       454
    41.4000       480
    41.4200       466
    41.4400       470
    41.4600       514
    41.4800       534
    41.5000       554
    41.5200       624
    41.5400       674
    41.5600       734
    41.5800       778
    41.6000       876
    41.6200       920
    41.6400      1036
    41.6600      1074
    41.6800      1316
    41.7000      1414
    41.7200      1552
    41.7400      1792
    41.7600      1882
    41.7800      2170
    41.8000      2176
    41.8200      2040
    41.8400      2114
    41.8600      2066
    41.8800      1944
    41.9000      1768
    41.9200      1656
    41.9400      1554
    41.9600      1386
    41.9800      1298
    42.0000      1150
    42.0200       996
    42.0400       880
    42.0600       806
    42.0800       698
    42.1000       634
    42.1200       632
    42.1400       586
    42.1600       564
    42.1800       504
    42.2000       470
    42.2200       484
    42.2400       504
    42.2600       440
    42.2800       446
    42.3000       424
    42.3200       404
    42.3400       430
    42.3600       396
    42.3800       392
    42.4000       418
    42.4200       376
    42.4400       410
    42.4600       378
    42.4800       386
    42.5000       372
    42.5200       386
    42.5400       378
    42.5600       444
    42.5800       378
    42.6000       386
    42.6200       406
    42.6400       400
    42.6600       400
    42.6800       414
    42.7000       440
    42.7200       440
    42.7400       510
    42.7600       490
    42.7800       518
    42.8000       544
    42.8200       528
    42.8400       544
    42.8600       622
    42.8800       666
    42.9000       708
    42.9200       806
    42.9400       850
    42.9600       960
    42.9800      1054
    43.0000      1166
    43.0200      1328
    43.0400      1506
    43.0600      1656
    43.0800      1844
    43.1000      1922
    43.1200      2066
    43.1400      2028
    43.1600      2042
    43.1800      1852
    43.2000      1950
    43.2200      1740
    43.2400      1638
    43.2600      1522
    43.2800      1376
    43.3000      1266
    43.3200      1086
    43.3400       956
    43.3600       884
    43.3800       770
    43.4000       738
    43.4200       742
    43.4400       658
    43.4600       638
    43.4800       642
    43.5000       640
    43.5200       616
    43.5400       598
    43.5600       634
    43.5800       650
    43.6000       656
    43.6200       728
    43.6400       720
    43.6600       764
    43.6800       792
    43.7000       752
    43.7200       820
    43.7400       820
    43.7600       844
    43.7800       828
    43.8000       786
    43.8200       762
    43.8400       664
    43.8600       670
    43.8800       638
    43.9000       592
    43.9200       598
    43.9400       520
    43.9600       558
    43.9800       488
    44.0000       448
    44.0200       418
    44.0400       376
    44.0600       392
    44.0800       394
    44.1000       398
    44.1200       372
    44.1400       398
    44.1600       364
    44.1800       396
    44.2000       352
    44.2200       360
    44.2400       326
    44.2600       320
    44.2800       350
    44.3000       344
    44.3200       308
    44.3400       354
    44.3600       342
    44.3800       330
    44.4000       322
    44.4200       370
    44.4400       374
    44.4600       360
    44.4800       368
    44.5000       342
    44.5200       334
    44.5400       358
    44.5600       352
    44.5800       358
    44.6000       330
    44.6200       390
    44.6400       378
    44.6600       350
    44.6800       370
    44.7000       340
    44.7200       382
    44.7400       372
    44.7600       376
    44.7800       410
    44.8000       356
    44.8200       390
    44.8400       340
    44.8600       358
    44.8800       362
    44.9000       350
    44.9200       390
    44.9400       394
    44.9600       364
    44.9800       408
    45.0000       388
    45.0200       392
    45.0400       400
    45.0600       382
    45.0800       382
    45.1000       388
    45.1200       370
    45.1400       388
    45.1600       366
    45.1800       386
    45.2000       386
    45.2200       414
    45.2400       402
    45.2600       422
    45.2800       380
    45.3000       378
    45.3200       426
    45.3400       382
    45.3600       424
    45.3800       414
    45.4000       422
    45.4200       446
    45.4400       428
    45.4600       414
    45.4800       470
    45.5000       472
    45.5200       458
    45.5400       452
    45.5600       474
    45.5800       490
    45.6000       482
    45.6200       488
    45.6400       518
    45.6600       550
    45.6800       602
    45.7000       552
    45.7200       642
    45.7400       630
    45.7600       622
    45.7800       662
    45.8000       704
    45.8200       704
    45.8400       744
    45.8600       754
    45.8800       740
    45.9000       772
    45.9200       802
    45.9400       790
    45.9600       750
    45.9800       832
    46.0000       816
    46.0200       902
    46.0400       894
    46.0600       918
    46.0800       874
    46.1000       966
    46.1200      1044
    46.1400       988
    46.1600      1118
    46.1800      1160
    46.2000      1170
    46.2200      1306
    46.2400      1398
    46.2600      1562
    46.2800      1664
    46.3000      1786
    46.3200      1950
    46.3400      2238
    46.3600      2522
    46.3800      2796
    46.4000      3162
    46.4200      3558
    46.4400      4216
    46.4600      4668
    46.4800      5332
    46.5000      6260
    46.5200      7004
    46.5400      7890
    46.5600      8862
    46.5800      9758
    46.6000     10222
    46.6200     10468
    46.6400     10410
    46.6600      9982
    46.6800      9754
    46.7000      9366
    46.7200      8760
    46.7400      8282
    46.7600      7806
    46.7800      7180
    46.8000      6600
    46.8200      6058
    46.8400      5558
    46.8600      5360
    46.8800      5188
    46.9000      4972
    46.9200      4962
    46.9400      5088
    46.9600      5056
    46.9800      5116
    47.0000      5132
    47.0200      4922
    47.0400      4552
    47.0600      4274
    47.0800      3996
    47.1000      3654
    47.1200      3364
    47.1400      3148
    47.1600      2752
    47.1800      2416
    47.2000      2166
    47.2200      2024
    47.2400      1708
    47.2600      1584
    47.2800      1442
    47.3000      1288
    47.3200      1218
    47.3400      1076
    47.3600      1018
    47.3800       964
    47.4000       912
    47.4200       856
    47.4400       814
    47.4600       828
    47.4800       768
    47.5000       752
    47.5200       714
    47.5400       700
    47.5600       664
    47.5800       734
    47.6000       726
    47.6200       720
    47.6400       776
    47.6600       820
    47.6800       804
    47.7000       870
    47.7200       914
    47.7400       996
    47.7600       930
    47.7800       976
    47.8000       960
    47.8200       966
    47.8400       902
    47.8600       864
    47.8800       856
    47.9000       846
    47.9200       802
    47.9400       822
    47.9600       778
    47.9800       842
    48.0000       812
    48.0200       784
    48.0400       776
    48.0600       874
    48.0800       800
    48.1000       940
    48.1200       858
    48.1400       908
    48.1600       816
    48.1800       812
    48.2000       846
    48.2200       794
    48.2400       750
    48.2600       702
    48.2800       694
    48.3000       618
    48.3200       568
    48.3400       556
    48.3600       496
    48.3800       448
    48.4000       470
    48.4200       428
    48.4400       444
    48.4600       350
    48.4800       372
    48.5000       342
    48.5200       344
    48.5400       340
    48.5600       326
    48.5800       284
    48.6000       296
    48.6200       338
    48.6400       298
    48.6600       308
    48.6800       310
    48.7000       304
    48.7200       282
    48.7400       308
    48.7600       308
    48.7800       276
    48.8000       274
    48.8200       278
    48.8400       268
    48.8600       254
    48.8800       276
    48.9000       280
    48.9200       256
    48.9400       258
    48.9600       286
    48.9800       258
    49.0000       272
    49.0200       296
    49.0400       236
    49.0600       274
    49.0800       258
    49.1000       258
    49.1200       244
    49.1400       268
    49.1600       232
    49.1800       276
    49.2000       270
    49.2200       248
    49.2400       248
    49.2600       258
    49.2800       238
    49.3000       250
    49.3200       268
    49.3400       248
    49.3600       256
    49.3800       280
    49.4000       246
    49.4200       258
    49.4400       278
    49.4600       304
    49.4800       286
    49.5000       278
    49.5200       264
    49.5400       276
    49.5600       310
    49.5800       298
    49.6000       264
    49.6200       260
    49.6400       282
    49.6600       296
    49.6800       290
    49.7000       308
    49.7200       288
    49.7400       278
    49.7600       282
    49.7800       248
    49.8000       276
    49.8200       268
    49.8400       262
    49.8600       256
    49.8800       270
    49.9000       262
    49.9200       252
    49.9400       230
    49.9600       256
    49.9800       264
    50.0000       262
    50.0200       292
    50.0400       262
    50.0600       290
    50.0800       276
    50.1000       280
    50.1200       266
    50.1400       286
    50.1600       306
    50.1800       292
    50.2000       328
    50.2200       310
    50.2400       292
    50.2600       312
    50.2800       332
    50.3000       288
    50.3200       332
    50.3400       344
    50.3600       298
    50.3800       276
    50.4000       326
    50.4200       330
    50.4400       322
    50.4600       328
    50.4800       332
    50.5000       302
    50.5200       342
    50.5400       320
    50.5600       386
    50.5800       354
    50.6000       380
    50.6200       444
    50.6400       458
    50.6600       506
    50.6800       484
    50.7000       522
    50.7200       578
    50.7400       652
    50.7600       658
    50.7800       692
    50.8000       788
    50.8200       734
    50.8400       744
    50.8600       766
    50.8800       732
    50.9000       724
    50.9200       696
    50.9400       714
    50.9600       714
    50.9800       630
    51.0000       634
    51.0200       650
    51.0400       542
    51.0600       542
    51.0800       526
    51.1000       548
    51.1200       538
    51.1400       520
    51.1600       554
    51.1800       548
    51.2000       602
    51.2200       636
    51.2400       628
    51.2600       654
    51.2800       718
    51.3000       684
    51.3200       746
    51.3400       710
    51.3600       766
    51.3800       742
    51.4000       698
    51.4200       654
    51.4400       670
    51.4600       650
    51.4800       644
    51.5000       650
    51.5200       678
    51.5400       654
    51.5600       642
    51.5800       642
    51.6000       670
    51.6200       684
    51.6400       714
    51.6600       794
    51.6800       832
    51.7000       946
    51.7200       912
    51.7400      1006
    51.7600      1134
    51.7800      1102
    51.8000      1178
    51.8200      1140
    51.8400      1114
    51.8600      1088
    51.8800      1140
    51.9000      1054
    51.9200      1060
    51.9400       992
    51.9600       888
    51.9800       916
    52.0000       856
    52.0200       800
    52.0400       750
    52.0600       726
    52.0800       704
    52.1000       680
    52.1200       664
    52.1400       648
    52.1600       644
    52.1800       684
    52.2000       646
    52.2200       678
    52.2400       690
    52.2600       732
    52.2800       794
    52.3000       878
    52.3200       882
    52.3400       976
    52.3600      1018
    52.3800      1076
    52.4000      1258
    52.4200      1310
    52.4400      1452
    52.4600      1448
    52.4800      1590
    52.5000      1642
    52.5200      1598
    52.5400      1646
    52.5600      1562
    52.5800      1532
    52.6000      1446
    52.6200      1446
    52.6400      1294
    52.6600      1334
    52.6800      1184
    52.7000      1092
    52.7200      1090
    52.7400       986
    52.7600       952
    52.7800       932
    52.8000       968
    52.8200       814
    52.8400       834
    52.8600       770
    52.8800       758
    52.9000       780
    52.9200       782
    52.9400       814
    52.9600       846
    52.9800       920
    53.0000       894
    53.0200      1120
    53.0400      1126
    53.0600      1246
    53.0800      1258
    53.1000      1520
    53.1200      1638
    53.1400      1718
    53.1600      1856
    53.1800      1932
    53.2000      1994
    53.2200      1942
    53.2400      1938
    53.2600      1792
    53.2800      1700
    53.3000      1622
    53.3200      1554
    53.3400      1532
    53.3600      1368
    53.3800      1246
    53.4000      1182
    53.4200      1040
    53.4400       924
    53.4600       882
    53.4800       794
    53.5000       672
    53.5200       612
    53.5400       586
    53.5600       536
    53.5800       462
    53.6000       466
    53.6200       476
    53.6400       438
    53.6600       390
    53.6800       386
    53.7000       362
    53.7200       384
    53.7400       342
    53.7600       350
    53.7800       342
    53.8000       358
    53.8200       308
    53.8400       336
    53.8600       348
    53.8800       308
    53.9000       308
    53.9200       322
    53.9400       304
    53.9600       306
    53.9800       332
    54.0000       312
    54.0200       338
    54.0400       312
    54.0600       304
    54.0800       332
    54.1000       304
    54.1200       322
    54.1400       312
    54.1600       342
    54.1800       322
    54.2000       330
    54.2200       338
    54.2400       346
    54.2600       358
    54.2800       388
    54.3000       400
    54.3200       420
    54.3400       450
    54.3600       464
    54.3800       480
    54.4000       494
    54.4200       536
    54.4400       596
    54.4600       642
    54.4800       702
    54.5000       766
    54.5200       738
    54.5400       832
    54.5600       840
    54.5800       816
    54.6000       934
    54.6200       866
    54.6400       870
    54.6600       840
    54.6800       814
    54.7000       828
    54.7200       754
    54.7400       720
    54.7600       680
    54.7800       634
    54.8000       608
    54.8200       578
    54.8400       550
    54.8600       544
    54.8800       522
    54.9000       482
    54.9200       508
    54.9400       450
    54.9600       418
    54.9800       402
    55.0000       410
    55.0200       356
    55.0400       342
    55.0600       360
    55.0800       364
    55.1000       344
    55.1200       350
    55.1400       366
    55.1600       310
    55.1800       330
    55.2000       344
    55.2200       338
    55.2400       388
    55.2600       354
    55.2800       342
    55.3000       396
    55.3200       322
    55.3400       354
    55.3600       432
    55.3800       412
    55.4000       448
    55.4200       482
    55.4400       460
    55.4600       498
    55.4800       534
    55.5000       604
    55.5200       590
    55.5400       646
    55.5600       732
    55.5800       756
    55.6000       762
    55.6200       910
    55.6400       996
    55.6600      1038
    55.6800      1172
    55.7000      1256
    55.7200      1304
    55.7400      1264
    55.7600      1386
    55.7800      1358
    55.8000      1356
    55.8200      1226
    55.8400      1200
    55.8600      1128
    55.8800      1054
    55.9000      1074
    55.9200      1000
    55.9400       962
    55.9600       868
    55.9800       822
    56.0000       736
    56.0200       694
    56.0400       672
    56.0600       632
    56.0800       610
    56.1000       596
    56.1200       552
    56.1400       542
    56.1600       516
    56.1800       500
    56.2000       544
    56.2200       506
    56.2400       430
    56.2600       430
    56.2800       406
    56.3000       402
    56.3200       392
    56.3400       374
    56.3600       380
    56.3800       374
    56.4000       370
    56.4200       388
    56.4400       354
    56.4600       370
    56.4800       398
    56.5000       338
    56.5200       342
    56.5400       354
    56.5600       390
    56.5800       394
    56.6000       354
    56.6200       344
    56.6400       398
    56.6600       406
    56.6800       364
    56.7000       414
    56.7200       398
    56.7400       418
    56.7600       444
    56.7800       482
    56.8000       494
    56.8200       482
    56.8400       516
    56.8600       536
    56.8800       522
    56.9000       550
    56.9200       596
    56.9400       632
    56.9600       646
    56.9800       654
    57.0000       680
    57.0200       768
    57.0400       792
    57.0600       884
    57.0800       976
    57.1000       952
    57.1200      1106
    57.1400      1176
    57.1600      1284
    57.1800      1476
    57.2000      1486
    57.2200      1662
    57.2400      1760
    57.2600      1942
    57.2800      2008
    57.3000      2004
    57.3200      2086
    57.3400      2068
    57.3600      1940
    57.3800      1886
    57.4000      1948
    57.4200      1892
    57.4400      1950
    57.4600      1952
    57.4800      1944
    57.5000      1880
    57.5200      1978
    57.5400      1980
    57.5600      2020
    57.5800      1996
    57.6000      2030
    57.6200      2126
    57.6400      2170
    57.6600      2024
    57.6800      2064
    57.7000      1946
    57.7200      1906
    57.7400      1860
    57.7600      1674
    57.7800      1678
    57.8000      1646
    57.8200      1572
    57.8400      1440
    57.8600      1346
    57.8800      1280
    57.9000      1248
    57.9200      1134
    57.9400      1070
    57.9600      1098
    57.9800      1068
    58.0000      1030
    58.0200      1022
    58.0400      1026
    58.0600      1022
    58.0800      1058
    58.1000      1148
    58.1200      1178
    58.1400      1246
    58.1600      1274
    58.1800      1338
    58.2000      1502
    58.2200      1640
    58.2400      1738
    58.2600      1836
    58.2800      1882
    58.3000      2088
    58.3200      2210
    58.3400      2378
    58.3600      2398
    58.3800      2600
    58.4000      2670
    58.4200      2884
    58.4400      2960
    58.4600      3044
    58.4800      3228
    58.5000      3284
    58.5200      3554
    58.5400      3580
    58.5600      3756
    58.5800      3826
    58.6000      3798
    58.6200      3744
    58.6400      3588
    58.6600      3678
    58.6800      3570
    58.7000      3306
    58.7200      3266
    58.7400      3004
    58.7600      2988
    58.7800      2752
    58.8000      2476
    58.8200      2340
    58.8400      2188
    58.8600      1998
    58.8800      1842
    58.9000      1602
    58.9200      1560
    58.9400      1412
    58.9600      1344
    58.9800      1220
    59.0000      1084
    59.0200      1084
    59.0400       974
    59.0600       910
    59.0800       848
    59.1000       852
    59.1200       748
    59.1400       716
    59.1600       702
    59.1800       678
    59.2000       672
    59.2200       612
    59.2400       594
    59.2600       598
    59.2800       586
    59.3000       508
    59.3200       504
    59.3400       464
    59.3600       478
    59.3800       450
    59.4000       446
    59.4200       428
    59.4400       446
    59.4600       436
    59.4800       414
    59.5000       398
    59.5200       396
    59.5400       404
    59.5600       366
    59.5800       372
    59.6000       380
    59.6200       390
    59.6400       326
    59.6600       324
    59.6800       368
    59.7000       302
    59.7200       346
    59.7400       374
    59.7600       338
    59.7800       334
    59.8000       330
    59.8200       326
    59.8400       304
    59.8600       306
    59.8800       308
    59.9000       320
    59.9200       302
    59.9400       302
    59.9600       336
    59.9800       324
    60.0000       280
    60.0200       274
    60.0400       320
    60.0600       288
    60.0800       286
    60.1000       308
    60.1200       322
    60.1400       310
    60.1600       344
    60.1800       304
    60.2000       262
    60.2200       272
    60.2400       328
    60.2600       286
    60.2800       320
    60.3000       284
    60.3200       304
    60.3400       302
    60.3600       292
    60.3800       288
    60.4000       308
    60.4200       298
    60.4400       292
    60.4600       306
    60.4800       262
    60.5000       312
    60.5200       294
    60.5400       322
    60.5600       282
    60.5800       284
    60.6000       324
    60.6200       298
    60.6400       320
    60.6600       328
    60.6800       372
    60.7000       360
    60.7200       362
    60.7400       314
    60.7600       360
    60.7800       346
    60.8000       372
    60.8200       416
    60.8400       440
    60.8600       454
    60.8800       424
    60.9000       442
    60.9200       504
    60.9400       484
    60.9600       486
    60.9800       546
    61.0000       506
    61.0200       488
    61.0400       528
    61.0600       456
    61.0800       494
    61.1000       516
    61.1200       498
    61.1400       510
    61.1600       514
    61.1800       524
    61.2000       510
    61.2200       552
    61.2400       518
    61.2600       532
    61.2800       508
    61.3000       540
    61.3200       462
    61.3400       562
    61.3600       534
    61.3800       614
    61.4000       558
    61.4200       574
    61.4400       558
    61.4600       616
    61.4800       618
    61.5000       546
    61.5200       556
    61.5400       566
    61.5600       522
    61.5800       520
    61.6000       514
    61.6200       536
    61.6400       570
    61.6600       562
    61.6800       526
    61.7000       522
    61.7200       564
    61.7400       556
    61.7600       562
    61.7800       574
    61.8000       560
    61.8200       584
    61.8400       610
    61.8600       574
    61.8800       584
    61.9000       622
    61.9200       620
    61.9400       640
    61.9600       614
    61.9800       622
    62.0000       618
    62.0200       582
    62.0400       550
    62.0600       618
    62.0800       596
    62.1000       582
    62.1200       606
    62.1400       556
    62.1600       594
    62.1800       550
    62.2000       536
    62.2200       526
    62.2400       556
    62.2600       510
    62.2800       480
    62.3000       474
    62.3200       466
    62.3400       420
    62.3600       400
    62.3800       466
    62.4000       418
    62.4200       382
    62.4400       376
    62.4600       386
    62.4800       364
    62.5000       378
    62.5200       346
    62.5400       356
    62.5600       340
    62.5800       306
    62.6000       292
    62.6200       292
    62.6400       310
    62.6600       274
    62.6800       318
    62.7000       256
    62.7200       266
    62.7400       260
    62.7600       248
    62.7800       244
    62.8000       242
    62.8200       246
    62.8400       230
    62.8600       246
    62.8800       214
    62.9000       228
    62.9200       236
    62.9400       236
    62.9600       232
    62.9800       232
    63.0000       234
    63.0200       236
    63.0400       252
    63.0600       226
    63.0800       240
    63.1000       216
    63.1200       228
    63.1400       244
    63.1600       266
    63.1800       268
    63.2000       220
    63.2200       208
    63.2400       228
    63.2600       228
    63.2800       248
    63.3000       246
    63.3200       238
    63.3400       252
    63.3600       262
    63.3800       246
    63.4000       248
    63.4200       260
    63.4400       270
    63.4600       286
    63.4800       272
    63.5000       286
    63.5200       298
    63.5400       306
    63.5600       314
    63.5800       318
    63.6000       326
    63.6200       366
    63.6400       366
    63.6600       388
    63.6800       424
    63.7000       432
    63.7200       424
    63.7400       506
    63.7600       542
    63.7800       508
    63.8000       488
    63.8200       474
    63.8400       474
    63.8600       394
    63.8800       404
    63.9000       424
    63.9200       442
    63.9400       374
    63.9600       410
    63.9800       364
    64.0000       332
    64.0200       306
    64.0400       312
    64.0600       318
    64.0800       278
    64.1000       276
    64.1200       268
    64.1400       264
    64.1600       268
    64.1800       250
    64.2000       270
    64.2200       240
    64.2400       260
    64.2600       264
    64.2800       250
    64.3000       220
    64.3200       236
    64.3400       236
    64.3600       236
    64.3800       232
    64.4000       270
    64.4200       236
    64.4400       252
    64.4600       246
    64.4800       246
    64.5000       246
    64.5200       252
    64.5400       236
    64.5600       262
    64.5800       252
    64.6000       234
    64.6200       224
    64.6400       232
    64.6600       234
    64.6800       238
    64.7000       246
    64.7200       220
    64.7400       232
    64.7600       256
    64.7800       268
    64.8000       288
    64.8200       294
    64.8400       282
    64.8600       322
    64.8800       322
    64.9000       328
    64.9200       344
    64.9400       354
    64.9600       354
    64.9800       314
    65.0000       366
    65.0200       350
    65.0400       382
    65.0600       376
    65.0800       360
    65.1000       384
    65.1200       400
    65.1400       460
    65.1600       406
    65.1800       456
    65.2000       404
    65.2200       446
    65.2400       406
    65.2600       428
    65.2800       406
    65.3000       374
    65.3200       400
    65.3400       396
    65.3600       388
    65.3800       346
    65.4000       392
    65.4200       352
    65.4400       346
    65.4600       320
    65.4800       340
    65.5000       292
    65.5200       304
    65.5400       282
    65.5600       282
    65.5800       308
    65.6000       260
    65.6200       302
    65.6400       252
    65.6600       256
    65.6800       238
    65.7000       266
    65.7200       282
    65.7400       246
    65.7600       246
    65.7800       230
    65.8000       244
    65.8200       242
    65.8400       272
    65.8600       252
    65.8800       254
    65.9000       250
    65.9200       254
    65.9400       218
    65.9600       230
    65.9800       246
    66.0000       248
    66.0200       226
    66.0400       276
    66.0600       266
    66.0800       234
    66.1000       256
    66.1200       270
    66.1400       272
    66.1600       276
    66.1800       270
    66.2000       294
    66.2200       284
    66.2400       300
    66.2600       302
    66.2800       284
    66.3000       254
    66.3200       308
    66.3400       324
    66.3600       302
    66.3800       326
    66.4000       364
    66.4200       350
    66.4400       386
    66.4600       370
    66.4800       398
    66.5000       414
    66.5200       490
    66.5400       466
    66.5600       468
    66.5800       566
    66.6000       618
    66.6200       630
    66.6400       706
    66.6600       732
    66.6800       786
    66.7000       824
    66.7200       906
    66.7400       874
    66.7600       920
    66.7800       918
    66.8000       982
    66.8200       950
    66.8400       964
    66.8600       930
    66.8800       836
    66.9000       850
    66.9200       846
    66.9400       820
    66.9600       838
    66.9800       796
    67.0000       752
    67.0200       790
    67.0400       688
    67.0600       636
    67.0800       624
    67.1000       618
    67.1200       600
    67.1400       578
    67.1600       590
    67.1800       526
    67.2000       528
    67.2200       530
    67.2400       494
    67.2600       484
    67.2800       446
    67.3000       470
    67.3200       464
    67.3400       454
    67.3600       430
    67.3800       408
    67.4000       458
    67.4200       400
    67.4400       392
    67.4600       404
    67.4800       426
    67.5000       374
    67.5200       418
    67.5400       486
    67.5600       470
    67.5800       434
    67.6000       454
    67.6200       466
    67.6400       494
    67.6600       490
    67.6800       498
    67.7000       526
    67.7200       570
    67.7400       612
    67.7600       612
    67.7800       612
    67.8000       666
    67.8200       764
    67.8400       800
    67.8600       910
    67.8800       934
    67.9000      1050
    67.9200      1080
    67.9400      1246
    67.9600      1276
    67.9800      1340
    68.0000      1308
    68.0200      1408
    68.0400      1374
    68.0600      1458
    68.0800      1376
    68.1000      1442
    68.1200      1336
    68.1400      1340
    68.1600      1336
    68.1800      1280
    68.2000      1282
    68.2200      1220
    68.2400      1126
    68.2600      1114
    68.2800       972
    68.3000      1034
    68.3200       932
    68.3400       882
    68.3600       848
    68.3800       776
    68.4000       804
    68.4200       694
    68.4400       744
    68.4600       740
    68.4800       658
    68.5000       740
    68.5200       660
    68.5400       724
    68.5600       666
    68.5800       656
    68.6000       716
    68.6200       676
    68.6400       686
    68.6600       694
    68.6800       642
    68.7000       622
    68.7200       594
    68.7400       612
    68.7600       572
    68.7800       566
    68.8000       574
    68.8200       566
    68.8400       540
    68.8600       506
    68.8800       502
    68.9000       482
    68.9200       502
    68.9400       486
    68.9600       500
    68.9800       450
    69.0000       462
    69.0200       462
    69.0400       440
    69.0600       470
    69.0800       478
    69.1000       468
    69.1200       514
    69.1400       504
    69.1600       502
    69.1800       576
    69.2000       536
    69.2200       586
    69.2400       546
    69.2600       566
    69.2800       540
    69.3000       608
    69.3200       560
    69.3400       566
    69.3600       534
    69.3800       552
    69.4000       550
    69.4200       526
    69.4400       494
    69.4600       522
    69.4800       458
    69.5000       490
    69.5200       446
    69.5400       428
    69.5600       394
    69.5800       376
    69.6000       404
    69.6200       372
    69.6400       332
    69.6600       334
    69.6800       330
    69.7000       312
    69.7200       314
    69.7400       304
    69.7600       292
    69.7800       312
    69.8000       250
    69.8200       238
    69.8400       244
    69.8600       246
    69.8800       286
    69.9000       260
    69.9200       260
    69.9400       256
    69.9600       248
    69.9800       228
    70.0000       244
    70.0200       210
    70.0400       234
    70.0600       250
    70.0800       236
    70.1000       246
    70.1200       242
    70.1400       230
    70.1600       234
    70.1800       260
    70.2000       250
    70.2200       280
    70.2400       266
    70.2600       280
    70.2800       244
    70.3000       240
    70.3200       238
    70.3400       286
    70.3600       240
    70.3800       278
    70.4000       274
    70.4200       286
    70.4400       286
    70.4600       280
    70.4800       302
    70.5000       300
    70.5200       298
    70.5400       304
    70.5600       296
    70.5800       270
    70.6000       292
    70.6200       252
    70.6400       250
    70.6600       278
    70.6800       280
    70.7000       256
    70.7200       272
    70.7400       262
    70.7600       258
    70.7800       250
    70.8000       250
    70.8200       272
    70.8400       258
    70.8600       250
    70.8800       210
    70.9000       292
    70.9200       294
    70.9400       246
    70.9600       298
    70.9800       266
    71.0000       292
    71.0200       312
    71.0400       318
    71.0600       320
    71.0800       340
    71.1000       382
    71.1200       390
    71.1400       434
    71.1600       418
    71.1800       446
    71.2000       478
    71.2200       526
    71.2400       506
    71.2600       546
    71.2800       594
    71.3000       632
    71.3200       590
    71.3400       684
    71.3600       656
    71.3800       712
    71.4000       654
    71.4200       712
    71.4400       678
    71.4600       720
    71.4800       692
    71.5000       684
    71.5200       668
    71.5400       644
    71.5600       722
    71.5800       658
    71.6000       574
    71.6200       666
    71.6400       626
    71.6600       620
    71.6800       622
    71.7000       586
    71.7200       560
    71.7400       594
    71.7600       570
    71.7800       576
    71.8000       590
    71.8200       542
    71.8400       568
    71.8600       538
    71.8800       498
    71.9000       482
    71.9200       546
    71.9400       492
    71.9600       534
    71.9800       462
    72.0000       484
    72.0200       488
    72.0400       510
    72.0600       508
    72.0800       516
    72.1000       500
    72.1200       508
    72.1400       512
    72.1600       516
    72.1800       518
    72.2000       462
    72.2200       494
    72.2400       490
    72.2600       444
    72.2800       428
    72.3000       442
    72.3200       434
    72.3400       456
    72.3600       448
    72.3800       388
    72.4000       390
    72.4200       426
    72.4400       428
    72.4600       376
    72.4800       374
    72.5000       338
    72.5200       352
    72.5400       356
    72.5600       332
    72.5800       340
    72.6000       310
    72.6200       312
    72.6400       334
    72.6600       316
    72.6800       358
    72.7000       338
    72.7200       314
    72.7400       298
    72.7600       314
    72.7800       304
    72.8000       322
    72.8200       292
    72.8400       268
    72.8600       266
    72.8800       284
    72.9000       268
    72.9200       246
    72.9400       246
    72.9600       262
    72.9800       258
    73.0000       254
    73.0200       240
    73.0400       248
    73.0600       204
    73.0800       214
    73.1000       210
    73.1200       220
    73.1400       248
    73.1600       236
    73.1800       252
    73.2000       214
    73.2200       208
    73.2400       226
    73.2600       222
    73.2800       232
    73.3000       220
    73.3200       176
    73.3400       192
    73.3600       202
    73.3800       206
    73.4000       224
    73.4200       204
    73.4400       192
    73.4600       178
    73.4800       208
    73.5000       208
    73.5200       230
    73.5400       212
    73.5600       200
    73.5800       236
    73.6000       196
    73.6200       208
    73.6400       220
    73.6600       228
    73.6800       254
    73.7000       242
    73.7200       210
    73.7400       226
    73.7600       224
    73.7800       234
    73.8000       252
    73.8200       262
    73.8400       232
    73.8600       256
    73.8800       260
    73.9000       276
    73.9200       306
    73.9400       318
    73.9600       272
    73.9800       262
    74.0000       304
    74.0200       278
    74.0400       274
    74.0600       276
    74.0800       290
    74.1000       306
    74.1200       284
    74.1400       308
    74.1600       282
    74.1800       250
    74.2000       228
    74.2200       250
    74.2400       236
    74.2600       236
    74.2800       240
    74.3000       236
    74.3200       228
    74.3400       246
    74.3600       206
    74.3800       236
    74.4000       242
    74.4200       204
    74.4400       212
    74.4600       202
    74.4800       198
    74.5000       196
    74.5200       182
    74.5400       206
    74.5600       184
    74.5800       202
    74.6000       190
    74.6200       194
    74.6400       200
    74.6600       186
    74.6800       216
    74.7000       198
    74.7200       168
    74.7400       210
    74.7600       194
    74.7800       184
    74.8000       182
    74.8200       164
    74.8400       180
    74.8600       186
    74.8800       202
    74.9000       192
    74.9200       192
    74.9400       184
    74.9600       202
    74.9800       198
    75.0000       206
    75.0200       202
    75.0400       182
    75.0600       180
    75.0800       198
    75.1000       206
    75.1200       208
    75.1400       214
    75.1600       202
    75.1800       208
    75.2000       188
    75.2200       202
    75.2400       200
    75.2600       188
    75.2800       214
    75.3000       204
    75.3200       222
    75.3400       184
    75.3600       228
    75.3800       244
    75.4000       242
    75.4200       256
    75.4400       232
    75.4600       276
    75.4800       250
    75.5000       282
    75.5200       256
    75.5400       288
    75.5600       286
    75.5800       290
    75.6000       298
    75.6200       316
    75.6400       326
    75.6600       356
    75.6800       304
    75.7000       334
    75.7200       374
    75.7400       372
    75.7600       420
    75.7800       454
    75.8000       458
    75.8200       468
    75.8400       420
    75.8600       454
    75.8800       394
    75.9000       460
    75.9200       436
    75.9400       476
    75.9600       416
    75.9800       424
    76.0000       424
    76.0200       454
    76.0400       428
    76.0600       416
    76.0800       404
    76.1000       370
    76.1200       420
    76.1400       436
    76.1600       414
    76.1800       374
    76.2000       406
    76.2200       392
    76.2400       384
    76.2600       364
    76.2800       342
    76.3000       356
    76.3200       360
    76.3400       354
    76.3600       388
    76.3800       372
    76.4000       372
    76.4200       408
    76.4400       404
    76.4600       432
    76.4800       378
    76.5000       398
    76.5200       402
    76.5400       396
    76.5600       422
    76.5800       476
    76.6000       422
    76.6200       430
    76.6400       386
    76.6600       380
    76.6800       342
    76.7000       374
    76.7200       362
    76.7400       380
    76.7600       350
    76.7800       390
    76.8000       322
    76.8200       368
    76.8400       390
    76.8600       368
    76.8800       366
    76.9000       334
    76.9200       344
    76.9400       368
    76.9600       350
    76.9800       332
    77.0000       356
    77.0200       334
    77.0400       360
    77.0600       396
    77.0800       396
    77.1000       394
    77.1200       440
    77.1400       418
    77.1600       500
    77.1800       498
    77.2000       462
    77.2200       536
    77.2400       528
    77.2600       586
    77.2800       630
    77.3000       682
    77.3200       718
    77.3400       736
    77.3600       770
    77.3800       870
    77.4000       904
    77.4200       936
    77.4400       978
    77.4600       922
    77.4800       926
    77.5000       914
    77.5200       950
    77.5400       946
    77.5600      1000
    77.5800       894
    77.6000       856
    77.6200       858
    77.6400       822
    77.6600       770
    77.6800       818
    77.7000       790
    77.7200       760
    77.7400       728
    77.7600       724
    77.7800       674
    77.8000       630
    77.8200       594
    77.8400       554
    77.8600       552
    77.8800       534
    77.9000       488
    77.9200       490
    77.9400       452
    77.9600       434
    77.9800       376
    78.0000       386
    78.0200       412
    78.0400       376
    78.0600       396
    78.0800       410
    78.1000       420
    78.1200       394
    78.1400       374
    78.1600       412
    78.1800       390
    78.2000       420
    78.2200       430
    78.2400       366
    78.2600       428
    78.2800       422
    78.3000       424
    78.3200       406
    78.3400       424
    78.3600       426
    78.3800       416
    78.4000       464
    78.4200       420
    78.4400       424
    78.4600       434
    78.4800       444
    78.5000       420
    78.5200       426
    78.5400       426
    78.5600       376
    78.5800       460
    78.6000       390
    78.6200       386
    78.6400       358
    78.6600       378
    78.6800       366
    78.7000       392
    78.7200       352
    78.7400       342
    78.7600       360
    78.7800       320
    78.8000       330
    78.8200       316
    78.8400       328
    78.8600       336
    78.8800       308
    78.9000       322
    78.9200       316
    78.9400       288
    78.9600       264
    78.9800       278
    79.0000       284
    79.0200       260
    79.0400       258
    79.0600       238
    79.0800       264
    79.1000       244
    79.1200       250
    79.1400       250
    79.1600       266
    79.1800       260
    79.2000       248
    79.2200       244
    79.2400       248
    79.2600       236
    79.2800       248
    79.3000       246
    79.3200       242
    79.3400       250
    79.3600       248
    79.3800       262
    79.4000       232
    79.4200       238
    79.4400       250
    79.4600       230
    79.4800       248
    79.5000       266
    79.5200       284
    79.5400       252
    79.5600       268
    79.5800       270
    79.6000       266
    79.6200       226
    79.6400       262
    79.6600       266
    79.6800       246
    79.7000       240
    79.7200       262
    79.7400       244
    79.7600       268
    79.7800       250
    79.8000       288
    79.8200       230
    79.8400       260
    79.8600       252
    79.8800       236
    79.9000       226
    79.9200       232
    79.9400       232
    79.9600       224
    79.9800       236
    80.0000       262
    80.0200       226
    80.0400       254
    80.0600       236
    80.0800       196
    80.1000       228
    80.1200       224
    80.1400       252
    80.1600       230
    80.1800       228
    80.2000       224
    80.2200       254
    80.2400       206
    80.2600       236
    80.2800       224
    80.3000       210
    80.3200       206
    80.3400       194
    80.3600       206
    80.3800       198
    80.4000       208
    80.4200       208
    80.4400       224
    80.4600       180
    80.4800       196
    80.5000       198
    80.5200       210
    80.5400       186
    80.5600       202
    80.5800       198
    80.6000       180
    80.6200       170
    80.6400       154
    80.6600       186
    80.6800       208
    80.7000       192
    80.7200       202
    80.7400       206
    80.7600       192
    80.7800       180
    80.8000       200
    80.8200       200
    80.8400       188
    80.8600       178
    80.8800       208
    80.9000       184
    80.9200       178
    80.9400       198
    80.9600       190
    80.9800       214
    81.0000       206
    81.0200       204
    81.0400       258
    81.0600       218
    81.0800       228
    81.1000       288
    81.1200       228
    81.1400       260
    81.1600       294
    81.1800       240
    81.2000       278
    81.2200       240
    81.2400       270
    81.2600       238
    81.2800       258
    81.3000       252
    81.3200       284
    81.3400       252
    81.3600       238
    81.3800       256
    81.4000       260
    81.4200       254
    81.4400       262
    81.4600       258
    81.4800       264
    81.5000       262
    81.5200       264
    81.5400       260
    81.5600       260
    81.5800       276
    81.6000       230
    81.6200       242
    81.6400       252
    81.6600       260
    81.6800       296
    81.7000       254
    81.7200       248
    81.7400       254
    81.7600       276
    81.7800       322
    81.8000       276
    81.8200       274
    81.8400       266
    81.8600       266
    81.8800       280
    81.9000       272
    81.9200       268
    81.9400       266
    81.9600       316
    81.9800       324
    82.0000       296
    82.0200       294
    82.0400       278
    82.0600       310
    82.0800       268
    82.1000       280
    82.1200       276
    82.1400       292
    82.1600       294
    82.1800       312
    82.2000       300
    82.2200       302
    82.2400       340
    82.2600       298
    82.2800       316
    82.3000       272
    82.3200       298
    82.3400       298
    82.3600       368
    82.3800       324
    82.4000       288
    82.4200       328
    82.4400       352
    82.4600       378
    82.4800       368
    82.5000       342
    82.5200       380
    82.5400       410
    82.5600       368
    82.5800       382
    82.6000       400
    82.6200       410
    82.6400       384
    82.6600       434
    82.6800       364
    82.7000       382
    82.7200       406
    82.7400       418
    82.7600       430
    82.7800       428
    82.8000       432
    82.8200       392
    82.8400       394
    82.8600       376
    82.8800       376
    82.9000       378
    82.9200       400
    82.9400       406
    82.9600       378
    82.9800       398
    83.0000       356
    83.0200       398
    83.0400       356
    83.0600       374
    83.0800       360
    83.1000       404
    83.1200       414
    83.1400       344
    83.1600       400
    83.1800       414
    83.2000       386
    83.2200       360
    83.2400       380
    83.2600       372
    83.2800       378
    83.3000       378
    83.3200       346
    83.3400       342
    83.3600       344
    83.3800       354
    83.4000       336
    83.4200       302
    83.4400       366
    83.4600       310
    83.4800       328
    83.5000       298
    83.5200       322
    83.5400       310
    83.5600       332
    83.5800       288
    83.6000       310
    83.6200       326
    83.6400       306
    83.6600       304
    83.6800       300
    83.7000       300
    83.7200       284
    83.7400       270
    83.7600       292
    83.7800       276
    83.8000       268
    83.8200       278
    83.8400       258
    83.8600       288
    83.8800       278
    83.9000       280
    83.9200       274
    83.9400       234
    83.9600       266
    83.9800       242
    84.0000       246
    84.0200       266
    84.0400       276
    84.0600       260
    84.0800       246
    84.1000       240
    84.1200       274
    84.1400       226
    84.1600       224
    84.1800       242
    84.2000       218
    84.2200       232
    84.2400       248
    84.2600       244
    84.2800       228
    84.3000       226
    84.3200       220
    84.3400       202
    84.3600       182
    84.3800       220
    84.4000       216
    84.4200       216
    84.4400       184
    84.4600       186
    84.4800       220
    84.5000       196
    84.5200       212
    84.5400       200
    84.5600       212
    84.5800       222
    84.6000       206
    84.6200       202
    84.6400       230
    84.6600       218
    84.6800       218
    84.7000       224
    84.7200       222
    84.7400       222
    84.7600       194
    84.7800       228
    84.8000       228
    84.8200       228
    84.8400       182
    84.8600       206
    84.8800       212
    84.9000       210
    84.9200       216
    84.9400       206
    84.9600       212
    84.9800       204
    85.0000       250
    85.0200       242
    85.0400       226
    85.0600       228
    85.0800       204
    85.1000       226
    85.1200       218
    85.1400       228
    85.1600       232
    85.1800       218
    85.2000       238
    85.2200       218
    85.2400       244
    85.2600       238
    85.2800       238
    85.3000       282
    85.3200       258
    85.3400       260
    85.3600       274
    85.3800       256
    85.4000       288
    85.4200       260
    85.4400       264
    85.4600       320
    85.4800       254
    85.5000       264
    85.5200       252
    85.5400       270
    85.5600       282
    85.5800       262
    85.6000       240
    85.6200       262
    85.6400       230
    85.6600       278
    85.6800       226
    85.7000       230
    85.7200       222
    85.7400       204
    85.7600       202
    85.7800       216
    85.8000       194
    85.8200       206
    85.8400       214
    85.8600       214
    85.8800       200
    85.9000       200
    85.9200       180
    85.9400       204
    85.9600       200
    85.9800       190
    86.0000       184
    86.0200       200
    86.0400       190
    86.0600       186
    86.0800       200
    86.1000       216
    86.1200       192
    86.1400       162
    86.1600       196
    86.1800       220
    86.2000       198
    86.2200       214
    86.2400       228
    86.2600       206
    86.2800       196
    86.3000       190
    86.3200       200
    86.3400       204
    86.3600       200
    86.3800       224
    86.4000       188
    86.4200       224
    86.4400       218
    86.4600       224
    86.4800       228
    86.5000       260
    86.5200       246
    86.5400       274
    86.5600       254
    86.5800       234
    86.6000       272
    86.6200       278
    86.6400       258
    86.6600       304
    86.6800       304
    86.7000       292
    86.7200       328
    86.7400       324
    86.7600       332
    86.7800       360
    86.8000       358
    86.8200       350
    86.8400       378
    86.8600       392
    86.8800       372
    86.9000       390
    86.9200       364
    86.9400       382
    86.9600       378
    86.9800       386
    87.0000       360
    87.0200       370
    87.0400       426
    87.0600       420
    87.0800       394
    87.1000       450
    87.1200       480
    87.1400       472
    87.1600       454
    87.1800       498
    87.2000       526
    87.2200       500
    87.2400       552
    87.2600       582
    87.2800       544
    87.3000       580
    87.3200       610
    87.3400       608
    87.3600       658
    87.3800       674
    87.4000       648
    87.4200       588
    87.4400       662
    87.4600       624
    87.4800       592
    87.5000       596
    87.5200       604
    87.5400       592
    87.5600       564
    87.5800       570
    87.6000       606
    87.6200       620
    87.6400       610
    87.6600       552
    87.6800       514
    87.7000       502
    87.7200       502
    87.7400       520
    87.7600       462
    87.7800       462
    87.8000       464
    87.8200       420
    87.8400       438
    87.8600       438
    87.8800       416
    87.9000       390
    87.9200       392
    87.9400       362
    87.9600       352
    87.9800       370
    88.0000       306
    88.0200       294
    88.0400       316
    88.0600       330
    88.0800       298
    88.1000       294
    88.1200       308
    88.1400       268
    88.1600       282
    88.1800       304
    88.2000       258
    88.2200       238
    88.2400       272
    88.2600       274
    88.2800       274
    88.3000       258
    88.3200       294
    88.3400       258
    88.3600       260
    88.3800       286
    88.4000       266
    88.4200       280
    88.4400       298
    88.4600       278
    88.4800       266
    88.5000       256
    88.5200       274
    88.5400       268
    88.5600       256
    88.5800       258
    88.6000       220
    88.6200       238
    88.6400       270
    88.6600       228
    88.6800       252
    88.7000       212
    88.7200       244
    88.7400       218
    88.7600       224
    88.7800       212
    88.8000       224
    88.8200       218
    88.8400       242
    88.8600       220
    88.8800       234
    88.9000       224
    88.9200       208
    88.9400       224
    88.9600       248
    88.9800       238
    89.0000       202
    89.0200       244
    89.0400       248
    89.0600       222
    89.0800       210
    89.1000       240
    89.1200       228
    89.1400       228
    89.1600       230
    89.1800       236
    89.2000       240
    89.2200       236
    89.2400       262
    89.2600       264
    89.2800       258
    89.3000       278
    89.3200       268
    89.3400       250
    89.3600       282
    89.3800       250
    89.4000       258
    89.4200       256
    89.4400       230
    89.4600       254
    89.4800       296
    89.5000       288
    89.5200       282
    89.5400       282
    89.5600       274
    89.5800       274
    89.6000       288
    89.6200       284
    89.6400       286
    89.6600       296
    89.6800       288
    89.7000       274
    89.7200       304
    89.7400       300
    89.7600       298
    89.7800       308
    89.8000       296
    89.8200       306
    89.8400       278
    89.8600       278
    89.8800       312
    89.9000       290
    89.9200       330
    89.9400       294
    89.9600       288
    89.9800       276
    90.0000       304
