    10.0000       392
    10.0200       362
    10.0400       396
    10.0600       366
    10.0800       370
    10.1000       342
    10.1200       376
    10.1400       402
    10.1600       380
    10.1800       362
    10.2000       348
    10.2200       368
    10.2400       394
    10.2600       336
    10.2800       382
    10.3000       368
    10.3200       374
    10.3400       408
    10.3600       320
    10.3800       348
    10.4000       324
    10.4200       330
    10.4400       372
    10.4600       372
    10.4800       396
    10.5000       376
    10.5200       374
    10.5400       362
    10.5600       312
    10.5800       348
    10.6000       340
    10.6200       340
    10.6400       382
    10.6600       358
    10.6800       386
    10.7000       356
    10.7200       362
    10.7400       372
    10.7600       364
    10.7800       354
    10.8000       324
    10.8200       358
    10.8400       310
    10.8600       330
    10.8800       364
    10.9000       350
    10.9200       370
    10.9400       320
    10.9600       316
    10.9800       310
    11.0000       348
    11.0200       352
    11.0400       328
    11.0600       360
    11.0800       362
    11.1000       344
    11.1200       340
    11.1400       316
    11.1600       376
    11.1800       298
    11.2000       328
    11.2200       344
    11.2400       350
    11.2600       352
    11.2800       312
    11.3000       358
    11.3200       374
    11.3400       336
    11.3600       308
    11.3800       314
    11.4000       324
    11.4200       344
    11.4400       358
    11.4600       330
    11.4800       330
    11.5000       338
    11.5200       334
    11.5400       314
    11.5600       362
    11.5800       362
    11.6000       314
    11.6200       320
    11.6400       310
    11.6600       328
    11.6800       342
    11.7000       336
    11.7200       318
    11.7400       304
    11.7600       394
    11.7800       334
    11.8000       368
    11.8200       364
    11.8400       352
    11.8600       352
    11.8800       368
    11.9000       408
    11.9200       398
    11.9400       398
    11.9600       460
    11.9800       400
    12.0000       426
    12.0200       410
    12.0400       480
    12.0600       446
    12.0800       476
    12.1000       534
    12.1200       564
    12.1400       600
    12.1600       612
    12.1800       660
    12.2000       660
    12.2200       688
    12.2400       578
    12.2600       542
    12.2800       478
    12.3000       448
    12.3200       358
    12.3400       370
    12.3600       358
    12.3800       330
    12.4000       316
    12.4200       310
    12.4400       352
    12.4600       302
    12.4800       306
    12.5000       344
    12.5200       332
    12.5400       314
    12.5600       322
    12.5800       292
    12.6000       306
    12.6200       276
    12.6400       300
    12.6600       328
    12.6800       310
    12.7000       268
    12.7200       328
    12.7400       302
    12.7600       312
    12.7800       274
    12.8000       278
    12.8200       290
    12.8400       294
    12.8600       312
    12.8800       288
    12.9000       278
    12.9200       284
    12.9400       304
    12.9600       282
    12.9800       288
    13.0000       304
    13.0200       308
    13.0400       318
    13.0600       300
    13.0800       274
    13.1000       272
    13.1200       290
    13.1400       288
    13.1600       280
    13.1800       294
    13.2000       296
    13.2200       322
    13.2400       294
    13.2600       298
    13.2800       322
    13.3000       282
    13.3200       286
    13.3400       298
    13.3600       270
    13.3800       252
    13.4000       266
    13.4200       274
    13.4400       298
    13.4600       304
    13.4800       282
    13.5000       288
    13.5200       284
    13.5400       270
    13.5600       278
    13.5800       274
    13.6000       274
    13.6200       304
    13.6400       274
    13.6600       280
    13.6800       296
    13.7000       330
    13.7200       272
    13.7400       276
    13.7600       272
    13.7800       270
    13.8000       246
    13.8200       298
    13.8400       296
    13.8600       268
    13.8800       260
    13.9000       266
    13.9200       266
    13.9400       296
    13.9600       294
    13.9800       276
    14.0000       254
    14.0200       264
    14.0400       290
    14.0600       282
    14.0800       294
    14.1000       246
    14.1200       282
    14.1400       272
    14.1600       322
    14.1800       288
    14.2000       276
    14.2200       284
    14.2400       234
    14.2600       294
    14.2800       298
    14.3000       282
    14.3200       252
    14.3400       290
    14.3600       310
    14.3800       292
    14.4000       314
    14.4200       272
    14.4400       280
    14.4600       264
    14.4800       266
    14.5000       306
    14.5200       310
    14.5400       324
    14.5600       312
    14.5800       278
    14.6000       284
    14.6200       334
    14.6400       342
    14.6600       316
    14.6800       316
    14.7000       314
    14.7200       338
    14.7400       370
    14.7600       422
    14.7800       366
    14.8000       464
    14.8200       456
    14.8400       470
    14.8600       476
    14.8800       538
    14.9000       548
    14.9200       612
    14.9400       660
    14.9600       720
    14.9800       706
    15.0000       848
    15.0200       940
    15.0400      1038
    15.0600      1224
    15.0800      1304
    15.1000      1446
    15.1200      1652
    15.1400      1758
    15.1600      2036
    15.1800      2126
    15.2000      2134
    15.2200      2094
    15.2400      1880
    15.2600      1594
    15.2800      1260
    15.3000       894
    15.3200       754
    15.3400       638
    15.3600       516
    15.3800       508
    15.4000       458
    15.4200       388
    15.4400       368
    15.4600       356
    15.4800       360
    15.5000       340
    15.5200       352
    15.5400       336
    15.5600       326
    15.5800       312
    15.6000       314
    15.6200       294
    15.6400       284
    15.6600       284
    15.6800       298
    15.7000       278
    15.7200       280
    15.7400       278
    15.7600       230
    15.7800       294
    15.8000       248
    15.8200       278
    15.8400       286
    15.8600       270
    15.8800       248
    15.9000       278
    15.9200       266
    15.9400       296
    15.9600       308
    15.9800       260
    16.0000       302
    16.0200       306
    16.0400       276
    16.0600       316
    16.0800       252
    16.1000       262
    16.1200       334
    16.1400       326
    16.1600       368
    16.1800       324
    16.2000       342
    16.2200       350
    16.2400       342
    16.2600       370
    16.2800       380
    16.3000       378
    16.3200       358
    16.3400       348
    16.3600       362
    16.3800       382
    16.4000       342
    16.4200       376
    16.4400       366
    16.4600       300
    16.4800       348
    16.5000       354
    16.5200       344
    16.5400       342
    16.5600       346
    16.5800       408
    16.6000       418
    16.6200       426
    16.6400       464
    16.6600       462
    16.6800       506
    16.7000       572
    16.7200       624
    16.7400       606
    16.7600       698
    16.7800       778
    16.8000       876
    16.8200       954
    16.8400      1080
    16.8600      1174
    16.8800      1296
    16.9000      1464
    16.9200      1706
    16.9400      2130
    16.9600      2296
    16.9800      2628
    17.0000      3012
    17.0200      3410
    17.0400      3674
    17.0600      3654
    17.0800      3380
    17.1000      2922
    17.1200      2370
    17.1400      1934
    17.1600      1480
    17.1800      1226
    17.2000      1022
    17.2200       898
    17.2400       886
    17.2600       788
    17.2800       766
    17.3000       770
    17.3200       698
    17.3400       616
    17.3600       632
    17.3800       526
    17.4000       524
    17.4200       514
    17.4400       466
    17.4600       458
    17.4800       500
    17.5000       456
    17.5200       510
    17.5400       460
    17.5600       474
    17.5800       532
    17.6000       554
    17.6200       566
    17.6400       582
    17.6600       656
    17.6800       642
    17.7000       766
    17.7200       796
    17.7400       912
    17.7600      1004
    17.7800       966
    17.8000      1074
    17.8200      1094
    17.8400      1024
    17.8600      1022
    17.8800       896
    17.9000       732
    17.9200       642
    17.9400       538
    17.9600       496
    17.9800       396
    18.0000       352
    18.0200       306
    18.0400       318
    18.0600       276
    18.0800       302
    18.1000       298
    18.1200       296
    18.1400       264
    18.1600       276
    18.1800       256
    18.2000       250
    18.2200       256
    18.2400       274
    18.2600       276
    18.2800       250
    18.3000       222
    18.3200       242
    18.3400       244
    18.3600       258
    18.3800       264
    18.4000       222
    18.4200       230
    18.4400       232
    18.4600       246
    18.4800       236
    18.5000       232
    18.5200       246
    18.5400       232
    18.5600       236
    18.5800       236
    18.6000       234
    18.6200       220
    18.6400       256
    18.6600       230
    18.6800       244
    18.7000       244
    18.7200       256
    18.7400       256
    18.7600       238
    18.7800       258
    18.8000       230
    18.8200       252
    18.8400       248
    18.8600       260
    18.8800       278
    18.9000       272
    18.9200       268
    18.9400       264
    18.9600       234
    18.9800       266
    19.0000       258
    19.0200       282
    19.0400       292
    19.0600       276
    19.0800       286
    19.1000       302
    19.1200       326
    19.1400       330
    19.1600       362
    19.1800       350
    19.2000       398
    19.2200       398
    19.2400       426
    19.2600       446
    19.2800       504
    19.3000       528
    19.3200       560
    19.3400       630
    19.3600       648
    19.3800       758
    19.4000       846
    19.4200       950
    19.4400      1016
    19.4600      1178
    19.4800      1324
    19.5000      1524
    19.5200      1636
    19.5400      1836
    19.5600      1916
    19.5800      1852
    19.6000      1738
    19.6200      1552
    19.6400      1268
    19.6600      1050
    19.6800       904
    19.7000       784
    19.7200       746
    19.7400       680
    19.7600       682
    19.7800       696
    19.8000       728
    19.8200       774
    19.8400       866
    19.8600       876
    19.8800       986
    19.9000      1038
    19.9200      1218
    19.9400      1322
    19.9600      1406
    19.9800      1512
    20.0000      1518
    20.0200      1478
    20.0400      1336
    20.0600      1234
    20.0800      1008
    20.1000       890
    20.1200       706
    20.1400       584
    20.1600       490
    20.1800       432
    20.2000       400
    20.2200       356
    20.2400       382
    20.2600       366
    20.2800       314
    20.3000       308
    20.3200       308
    20.3400       310
    20.3600       318
    20.3800       282
    20.4000       234
    20.4200       240
    20.4400       278
    20.4600       264
    20.4800       242
    20.5000       250
    20.5200       242
    20.5400       248
    20.5600       266
    20.5800       276
    20.6000       234
    20.6200       258
    20.6400       258
    20.6600       258
    20.6800       274
    20.7000       266
    20.7200       292
    20.7400       310
    20.7600       282
    20.7800       276
    20.8000       278
    20.8200       300
    20.8400       352
    20.8600       328
    20.8800       364
    20.9000       400
    20.9200       402
    20.9400       440
    20.9600       474
    20.9800       538
    21.0000       620
    21.0200       632
    21.0400       700
    21.0600       812
    21.0800       952
    21.1000      1076
    21.1200      1214
    21.1400      1406
    21.1600      1564
    21.1800      1710
    21.2000      1782
    21.2200      1794
    21.2400      1748
    21.2600      1586
    21.2800      1310
    21.3000      1120
    21.3200       902
    21.3400       748
    21.3600       580
    21.3800       524
    21.4000       404
    21.4200       406
    21.4400       340
    21.4600       320
    21.4800       332
    21.5000       300
    21.5200       302
    21.5400       280
    21.5600       268
    21.5800       246
    21.6000       254
    21.6200       238
    21.6400       286
    21.6600       232
    21.6800       224
    21.7000       258
    21.7200       220
    21.7400       256
    21.7600       218
    21.7800       244
    21.8000       224
    21.8200       208
    21.8400       238
    21.8600       240
    21.8800       212
    21.9000       234
    21.9200       222
    21.9400       242
    21.9600       246
    21.9800       208
    22.0000       230
    22.0200       240
    22.0400       226
    22.0600       246
    22.0800       228
    22.1000       216
    22.1200       248
    22.1400       198
    22.1600       230
    22.1800       206
    22.2000       226
    22.2200       216
    22.2400       236
    22.2600       224
    22.2800       240
    22.3000       238
    22.3200       228
    22.3400       258
    22.3600       280
    22.3800       224
    22.4000       270
    22.4200       286
    22.4400       330
    22.4600       324
    22.4800       316
    22.5000       352
    22.5200       364
    22.5400       414
    22.5600       442
    22.5800       524
    22.6000       532
    22.6200       564
    22.6400       632
    22.6600       718
    22.6800       768
    22.7000       872
    22.7200       994
    22.7400      1140
    22.7600      1356
    22.7800      1528
    22.8000      1726
    22.8200      2058
    22.8400      2220
    22.8600      2388
    22.8800      2454
    22.9000      2372
    22.9200      2312
    22.9400      1978
    22.9600      1598
    22.9800      1384
    23.0000      1126
    23.0200       872
    23.0400       684
    23.0600       596
    23.0800       596
    23.1000       440
    23.1200       420
    23.1400       374
    23.1600       378
    23.1800       346
    23.2000       330
    23.2200       324
    23.2400       274
    23.2600       312
    23.2800       304
    23.3000       292
    23.3200       258
    23.3400       254
    23.3600       270
    23.3800       226
    23.4000       258
    23.4200       236
    23.4400       252
    23.4600       220
    23.4800       258
    23.5000       230
    23.5200       268
    23.5400       238
    23.5600       238
    23.5800       228
    23.6000       266
    23.6200       252
    23.6400       236
    23.6600       230
    23.6800       240
    23.7000       212
    23.7200       256
    23.7400       258
    23.7600       240
    23.7800       244
    23.8000       236
    23.8200       220
    23.8400       210
    23.8600       236
    23.8800       244
    23.9000       230
    23.9200       234
    23.9400       212
    23.9600       226
    23.9800       260
    24.0000       212
    24.0200       262
    24.0400       240
    24.0600       280
    24.0800       258
    24.1000       258
    24.1200       236
    24.1400       276
    24.1600       284
    24.1800       262
    24.2000       314
    24.2200       300
    24.2400       308
    24.2600       324
    24.2800       350
    24.3000       384
    24.3200       434
    24.3400       482
    24.3600       512
    24.3800       504
    24.4000       622
    24.4200       722
    24.4400       762
    24.4600       910
    24.4800      1008
    24.5000      1030
    24.5200      1138
    24.5400      1140
    24.5600      1234
    24.5800      1178
    24.6000      1132
    24.6200       994
    24.6400       982
    24.6600       892
    24.6800       800
    24.7000       840
    24.7200       812
    24.7400       846
    24.7600       820
    24.7800       816
    24.8000       760
    24.8200       720
    24.8400       674
    24.8600       602
    24.8800       544
    24.9000       532
    24.9200       540
    24.9400       476
    24.9600       508
    24.9800       532
    25.0000       524
    25.0200       542
    25.0400       540
    25.0600       548
    25.0800       582
    25.1000       600
    25.1200       712
    25.1400       756
    25.1600       874
    25.1800       888
    25.2000      1082
    25.2200      1174
    25.2400      1324
    25.2600      1442
    25.2800      1604
    25.3000      1738
    25.3200      1802
    25.3400      1684
    25.3600      1634
    25.3800      1464
    25.4000      1294
    25.4200      1114
    25.4400       992
    25.4600       812
    25.4800       774
    25.5000       784
    25.5200       750
    25.5400       736
    25.5600       770
    25.5800       754
    25.6000       864
    25.6200       786
    25.6400       812
    25.6600       770
    25.6800       692
    25.7000       622
    25.7200       572
    25.7400       512
    25.7600       476
    25.7800       454
    25.8000       420
    25.8200       384
    25.8400       408
    25.8600       372
    25.8800       336
    25.9000       372
    25.9200       364
    25.9400       344
    25.9600       320
    25.9800       296
    26.0000       344
    26.0200       320
    26.0400       294
    26.0600       310
    26.0800       292
    26.1000       284
    26.1200       296
    26.1400       282
    26.1600       274
    26.1800       224
    26.2000       282
    26.2200       282
    26.2400       248
    26.2600       284
    26.2800       268
    26.3000       268
    26.3200       238
    26.3400       252
    26.3600       264
    26.3800       260
    26.4000       266
    26.4200       270
    26.4400       272
    26.4600       256
    26.4800       246
    26.5000       288
    26.5200       280
    26.5400       264
    26.5600       254
    26.5800       236
    26.6000       262
    26.6200       252
    26.6400       246
    26.6600       296
    26.6800       266
    26.7000       238
    26.7200       280
    26.7400       262
    26.7600       278
    26.7800       260
    26.8000       270
    26.8200       240
    26.8400       270
    26.8600       246
    26.8800       264
    26.9000       258
    26.9200       258
    26.9400       296
    26.9600       280
    26.9800       286
    27.0000       284
    27.0200       248
    27.0400       288
    27.0600       294
    27.0800       280
    27.1000       286
    27.1200       338
    27.1400       298
    27.1600       344
    27.1800       336
    27.2000       376
    27.2200       372
    27.2400       394
    27.2600       408
    27.2800       458
    27.3000       508
    27.3200       564
    27.3400       642
    27.3600       734
    27.3800       780
    27.4000       924
    27.4200      1028
    27.4400      1064
    27.4600      1172
    27.4800      1186
    27.5000      1188
    27.5200      1164
    27.5400      1100
    27.5600      1022
    27.5800       908
    27.6000       794
    27.6200       708
    27.6400       634
    27.6600       504
    27.6800       454
    27.7000       456
    27.7200       378
    27.7400       356
    27.7600       342
    27.7800       318
    27.8000       288
    27.8200       324
    27.8400       308
    27.8600       296
    27.8800       316
    27.9000       338
    27.9200       284
    27.9400       288
    27.9600       322
    27.9800       314
    28.0000       312
    28.0200       316
    28.0400       306
    28.0600       364
    28.0800       304
    28.1000       346
    28.1200       374
    28.1400       358
    28.1600       368
    28.1800       422
    28.2000       436
    28.2200       416
    28.2400       448
    28.2600       484
    28.2800       464
    28.3000       474
    28.3200       468
    28.3400       440
    28.3600       426
    28.3800       426
    28.4000       420
    28.4200       396
    28.4400       422
    28.4600       384
    28.4800       408
    28.5000       398
    28.5200       366
    28.5400       354
    28.5600       352
    28.5800       394
    28.6000       434
    28.6200       452
    28.6400       504
    28.6600       490
    28.6800       528
    28.7000       546
    28.7200       548
    28.7400       514
    28.7600       546
    28.7800       528
    28.8000       490
    28.8200       436
    28.8400       412
    28.8600       370
    28.8800       374
    28.9000       374
    28.9200       340
    28.9400       334
    28.9600       358
    28.9800       338
    29.0000       328
    29.0200       330
    29.0400       328
    29.0600       348
    29.0800       332
    29.1000       318
    29.1200       330
    29.1400       338
    29.1600       346
    29.1800       324
    29.2000       346
    29.2200       368
    29.2400       360
    29.2600       324
    29.2800       390
    29.3000       426
    29.3200       432
    29.3400       488
    29.3600       512
    29.3800       542
    29.4000       576
    29.4200       584
    29.4400       648
    29.4600       696
    29.4800       790
    29.5000       866
    29.5200       942
    29.5400      1064
    29.5600      1162
    29.5800      1236
    29.6000      1428
    29.6200      1566
    29.6400      1674
    29.6600      1738
    29.6800      1652
    29.7000      1672
    29.7200      1638
    29.7400      1430
    29.7600      1288
    29.7800      1214
    29.8000      1048
    29.8200       994
    29.8400       898
    29.8600       834
    29.8800       802
    29.9000       712
    29.9200       798
    29.9400       794
    29.9600       870
    29.9800       878
    30.0000      1030
    30.0200      1048
    30.0400      1164
    30.0600      1274
    30.0800      1382
    30.1000      1588
    30.1200      1752
    30.1400      1908
    30.1600      2114
    30.1800      2158
    30.2000      2124
    30.2200      2086
    30.2400      2058
    30.2600      1954
    30.2800      1834
    30.3000      1886
    30.3200      1708
    30.3400      1736
    30.3600      1864
    30.3800      1782
    30.4000      1982
    30.4200      2220
    30.4400      2326
    30.4600      2798
    30.4800      2964
    30.5000      3354
    30.5200      3738
    30.5400      4334
    30.5600      5124
    30.5800      5770
    30.6000      6648
    30.6200      7618
    30.6400      8288
    30.6600      9260
    30.6800      9724
    30.7000      9814
    30.7200      9438
    30.7400      8562
    30.7600      7816
    30.7800      6720
    30.8000      5818
    30.8200      4760
    30.8400      3832
    30.8600      3352
    30.8800      2588
    30.9000      2300
    30.9200      1934
    30.9400      1646
    30.9600      1510
    30.9800      1288
    31.0000      1238
    31.0200      1164
    31.0400      1006
    31.0600       918
    31.0800       824
    31.1000       790
    31.1200       760
    31.1400       714
    31.1600       654
    31.1800       622
    31.2000       588
    31.2200       524
    31.2400       552
    31.2600       488
    31.2800       506
    31.3000       494
    31.3200       456
    31.3400       448
    31.3600       438
    31.3800       420
    31.4000       400
    31.4200       400
    31.4400       402
    31.4600       424
    31.4800       404
    31.5000       406
    31.5200       388
    31.5400       396
    31.5600       366
    31.5800       386
    31.6000       370
    31.6200       392
    31.6400       378
    31.6600       408
    31.6800       446
    31.7000       428
    31.7200       430
    31.7400       480
    31.7600       448
    31.7800       504
    31.8000       602
    31.8200       610
    31.8400       682
    31.8600       692
    31.8800       812
    31.9000       818
    31.9200       942
    31.9400       968
    31.9600      1126
    31.9800      1224
    32.0000      1338
    32.0200      1336
    32.0400      1388
    32.0600      1340
    32.0800      1250
    32.1000      1188
    32.1200      1100
    32.1400       988
    32.1600       986
    32.1800       876
    32.2000       916
    32.2200       824
    32.2400       892
    32.2600       900
    32.2800       990
    32.3000       974
    32.3200      1080
    32.3400      1208
    32.3600      1272
    32.3800      1458
    32.4000      1622
    32.4200      1962
    32.4400      2158
    32.4600      2422
    32.4800      2674
    32.5000      3144
    32.5200      3618
    32.5400      3794
    32.5600      4036
    32.5800      4182
    32.6000      4350
    32.6200      4076
    32.6400      4002
    32.6600      3624
    32.6800      3212
    32.7000      2848
    32.7200      2524
    32.7400      2216
    32.7600      1918
    32.7800      1568
    32.8000      1372
    32.8200      1196
    32.8400      1164
    32.8600       936
    32.8800       918
    32.9000       868
    32.9200       890
    32.9400       840
    32.9600       830
    32.9800       872
    33.0000       906
    33.0200       896
    33.0400       984
    33.0600       968
    33.0800       966
    33.1000      1048
    33.1200      1032
    33.1400      1024
    33.1600       898
    33.1800       834
    33.2000       792
    33.2200       704
    33.2400       654
    33.2600       572
    33.2800       546
    33.3000       484
    33.3200       438
    33.3400       422
    33.3600       402
    33.3800       346
    33.4000       364
    33.4200       370
    33.4400       318
    33.4600       322
    33.4800       300
    33.5000       304
    33.5200       276
    33.5400       326
    33.5600       326
    33.5800       308
    33.6000       286
    33.6200       306
    33.6400       276
    33.6600       290
    33.6800       268
    33.7000       250
    33.7200       276
    33.7400       260
    33.7600       276
    33.7800       268
    33.8000       252
    33.8200       274
    33.8400       260
    33.8600       236
    33.8800       254
    33.9000       300
    33.9200       268
    33.9400       282
    33.9600       256
    33.9800       298
    34.0000       278
    34.0200       288
    34.0400       272
    34.0600       252
    34.0800       310
    34.1000       310
    34.1200       288
    34.1400       290
    34.1600       308
    34.1800       294
    34.2000       344
    34.2200       330
    34.2400       352
    34.2600       414
    34.2800       386
    34.3000       416
    34.3200       436
    34.3400       480
    34.3600       490
    34.3800       550
    34.4000       660
    34.4200       692
    34.4400       774
    34.4600       866
    34.4800       868
    34.5000       896
    34.5200       972
    34.5400       892
    34.5600       860
    34.5800       792
    34.6000       738
    34.6200       676
    34.6400       588
    34.6600       524
    34.6800       474
    34.7000       428
    34.7200       420
    34.7400       400
    34.7600       402
    34.7800       390
    34.8000       418
    34.8200       388
    34.8400       360
    34.8600       358
    34.8800       332
    34.9000       374
    34.9200       330
    34.9400       322
    34.9600       346
    34.9800       324
    35.0000       370
    35.0200       336
    35.0400       346
    35.0600       340
    35.0800       314
    35.1000       336
    35.1200       366
    35.1400       322
    35.1600       308
    35.1800       300
    35.2000       316
    35.2200       276
    35.2400       298
    35.2600       276
    35.2800       304
    35.3000       294
    35.3200       286
    35.3400       256
    35.3600       300
    35.3800       298
    35.4000       290
    35.4200       324
    35.4400       298
    35.4600       312
    35.4800       298
    35.5000       308
    35.5200       272
    35.5400       270
    35.5600       312
    35.5800       326
    35.6000       314
    35.6200       318
    35.6400       310
    35.6600       306
    35.6800       342
    35.7000       342
    35.7200       370
    35.7400       348
    35.7600       364
    35.7800       354
    35.8000       404
    35.8200       422
    35.8400       452
    35.8600       462
    35.8800       492
    35.9000       462
    35.9200       526
    35.9400       600
    35.9600       622
    35.9800       690
    36.0000       728
    36.0200       788
    36.0400       898
    36.0600       998
    36.0800       982
    36.1000      1074
    36.1200      1046
    36.1400      1086
    36.1600      1106
    36.1800      1022
    36.2000      1002
    36.2200       946
    36.2400       884
    36.2600       788
    36.2800       696
    36.3000       648
    36.3200       596
    36.3400       524
    36.3600       540
    36.3800       538
    36.4000       448
    36.4200       436
    36.4400       454
    36.4600       404
    36.4800       438
    36.5000       442
    36.5200       424
    36.5400       432
    36.5600       432
    36.5800       400
    36.6000       478
    36.6200       460
    36.6400       502
    36.6600       496
    36.6800       532
    36.7000       542
    36.7200       584
    36.7400       630
    36.7600       704
    36.7800       766
    36.8000       766
    36.8200       892
    36.8400       996
    36.8600      1016
    36.8800      1174
    36.9000      1252
    36.9200      1254
    36.9400      1262
    36.9600      1200
    36.9800      1198
    37.0000      1044
    37.0200      1068
    37.0400      1024
    37.0600       982
    37.0800       980
    37.1000       934
    37.1200       954
    37.1400       920
    37.1600       856
    37.1800       936
    37.2000       868
    37.2200       868
    37.2400       808
    37.2600       774
    37.2800       710
    37.3000       718
    37.3200       678
    37.3400       636
    37.3600       598
    37.3800       536
    37.4000       544
    37.4200       536
    37.4400       438
    37.4600       518
    37.4800       520
    37.5000       454
    37.5200       498
    37.5400       466
    37.5600       480
    37.5800       492
    37.6000       524
    37.6200       542
    37.6400       588
    37.6600       498
    37.6800       562
    37.7000       524
    37.7200       564
    37.7400       572
    37.7600       582
    37.7800       608
    37.8000       606
    37.8200       696
    37.8400       690
    37.8600       744
    37.8800       822
    37.9000       890
    37.9200       918
    37.9400       974
    37.9600      1000
    37.9800      1064
    38.0000      1228
    38.0200      1308
    38.0400      1300
    38.0600      1422
    38.0800      1394
    38.1000      1450
    38.1200      1386
    38.1400      1382
    38.1600      1270
    38.1800      1236
    38.2000      1280
    38.2200      1272
    38.2400      1326
    38.2600      1394
    38.2800      1376
    38.3000      1410
    38.3200      1592
    38.3400      1666
    38.3600      1840
    38.3800      2192
    38.4000      2300
    38.4200      2622
    38.4400      2926
    38.4600      3196
    38.4800      3552
    38.5000      3966
    38.5200      4176
    38.5400      4848
    38.5600      5258
    38.5800      5288
    38.6000      5676
    38.6200      6084
    38.6400      6410
    38.6600      6472
    38.6800      6370
    38.7000      6178
    38.7200      5900
    38.7400      5370
    38.7600      5152
    38.7800      4848
    38.8000      4298
    38.8200      3774
    38.8400      3330
    38.8600      3006
    38.8800      2646
    38.9000      2326
    38.9200      2108
    38.9400      1868
    38.9600      1790
    38.9800      1614
    39.0000      1632
    39.0200      1434
    39.0400      1456
    39.0600      1378
    39.0800      1416
    39.1000      1372
    39.1200      1420
    39.1400      1354
    39.1600      1346
    39.1800      1352
    39.2000      1386
    39.2200      1382
    39.2400      1374
    39.2600      1368
    39.2800      1376
    39.3000      1354
    39.3200      1414
    39.3400      1530
    39.3600      1410
    39.3800      1498
    39.4000      1480
    39.4200      1368
    39.4400      1402
    39.4600      1382
    39.4800      1208
    39.5000      1214
    39.5200      1230
    39.5400      1286
    39.5600      1186
    39.5800      1144
    39.6000      1168
    39.6200      1182
    39.6400      1276
    39.6600      1348
    39.6800      1460
    39.7000      1474
    39.7200      1524
    39.7400      1644
    39.7600      1560
    39.7800      1464
    39.8000      1456
    39.8200      1334
    39.8400      1276
    39.8600      1114
    39.8800      1080
    39.9000      1010
    39.9200       948
    39.9400       884
    39.9600       840
    39.9800       820
    40.0000       836
    40.0200       798
    40.0400       800
    40.0600       792
    40.0800       888
    40.1000       964
    40.1200       988
    40.1400       938
    40.1600      1002
    40.1800      1102
    40.2000      1074
    40.2200      1102
    40.2400      1084
    40.2600      1060
    40.2800      1026
    40.3000      1120
    40.3200      1056
    40.3400      1122
    40.3600      1080
    40.3800      1094
    40.4000      1082
    40.4200      1214
    40.4400      1260
    40.4600      1366
    40.4800      1368
    40.5000      1566
    40.5200      1644
    40.5400      1734
    40.5600      1746
    40.5800      1808
    40.6000      1820
    40.6200      1816
    40.6400      1668
    40.6600      1590
    40.6800      1476
    40.7000      1404
    40.7200      1322
    40.7400      1214
    40.7600      1102
    40.7800      1054
    40.8000       906
    40.8200       898
    40.8400       784
    40.8600       764
    40.8800       710
    40.9000       686
    40.9200       742
    40.9400       682
    40.9600       680
    40.9800       674
    41.0000       706
    41.0200       696
    41.0400       722
    41.0600       792
    41.0800       862
    41.1000       890
    41.1200       988
    41.1400      1056
    41.1600      1092
    41.1800      1298
    41.2000      1404
    41.2200      1446
    41.2400      1642
    41.2600      1688
    41.2800      1778
    41.3000      1872
    41.3200      1886
    41.3400      1854
    41.3600      1962
    41.3800      1994
    41.4000      2012
    41.4200      2070
    41.4400      2136
    41.4600      2188
    41.4800      2238
    41.5000      2336
    41.5200      2252
    41.5400      2238
    41.5600      2182
    41.5800      2092
    41.6000      1952
    41.6200      1728
    41.6400      1742
    41.6600      1612
    41.6800      1410
    41.7000      1296
    41.7200      1242
    41.7400      1174
    41.7600      1082
    41.7800      1058
    41.8000      1066
    41.8200      1062
    41.8400      1084
    41.8600      1080
    41.8800      1142
    41.9000      1234
    41.9200      1222
    41.9400      1174
    41.9600      1228
    41.9800      1210
    42.0000      1146
    42.0200      1050
    42.0400       976
    42.0600       898
    42.0800       844
    42.1000       838
    42.1200       770
    42.1400       708
    42.1600       630
    42.1800       654
    42.2000       584
    42.2200       516
    42.2400       520
    42.2600       498
    42.2800       482
    42.3000       506
    42.3200       486
    42.3400       460
    42.3600       432
    42.3800       450
    42.4000       430
    42.4200       440
    42.4400       438
    42.4600       410
    42.4800       424
    42.5000       398
    42.5200       434
    42.5400       430
    42.5600       424
    42.5800       414
    42.6000       426
    42.6200       386
    42.6400       374
    42.6600       414
    42.6800       400
    42.7000       376
    42.7200       428
    42.7400       412
    42.7600       374
    42.7800       376
    42.8000       400
    42.8200       410
    42.8400       450
    42.8600       432
    42.8800       428
    42.9000       460
    42.9200       482
    42.9400       504
    42.9600       518
    42.9800       548
    43.0000       570
    43.0200       616
    43.0400       576
    43.0600       602
    43.0800       684
    43.1000       814
    43.1200       824
    43.1400       896
    43.1600       990
    43.1800      1032
    43.2000      1090
    43.2200      1150
    43.2400      1192
    43.2600      1202
    43.2800      1190
    43.3000      1190
    43.3200      1130
    43.3400      1068
    43.3600      1010
    43.3800       962
    43.4000       842
    43.4200       816
    43.4400       748
    43.4600       652
    43.4800       638
    43.5000       548
    43.5200       558
    43.5400       502
    43.5600       494
    43.5800       512
    43.6000       484
    43.6200       446
    43.6400       484
    43.6600       458
    43.6800       466
    43.7000       470
    43.7200       480
    43.7400       480
    43.7600       482
    43.7800       534
    43.8000       520
    43.8200       582
    43.8400       588
    43.8600       564
    43.8800       594
    43.9000       518
    43.9200       594
    43.9400       524
    43.9600       514
    43.9800       520
    44.0000       506
    44.0200       500
    44.0400       478
    44.0600       486
    44.0800       486
    44.1000       444
    44.1200       444
    44.1400       468
    44.1600       462
    44.1800       460
    44.2000       460
    44.2200       514
    44.2400       514
    44.2600       546
    44.2800       558
    44.3000       532
    44.3200       582
    44.3400       500
    44.3600       548
    44.3800       546
    44.4000       484
    44.4200       516
    44.4400       516
    44.4600       484
    44.4800       468
    44.5000       480
    44.5200       448
    44.5400       488
    44.5600       490
    44.5800       510
    44.6000       544
    44.6200       536
    44.6400       502
    44.6600       542
    44.6800       550
    44.7000       586
    44.7200       610
    44.7400       636
    44.7600       646
    44.7800       678
    44.8000       722
    44.8200       750
    44.8400       788
    44.8600       852
    44.8800       948
    44.9000      1086
    44.9200      1116
    44.9400      1258
    44.9600      1304
    44.9800      1538
    45.0000      1682
    45.0200      1764
    45.0400      1962
    45.0600      2112
    45.0800      2152
    45.1000      2324
    45.1200      2256
    45.1400      2368
    45.1600      2518
    45.1800      2668
    45.2000      2700
    45.2200      2866
    45.2400      2770
    45.2600      2830
    45.2800      2788
    45.3000      2672
    45.3200      2554
    45.3400      2446
    45.3600      2434
    45.3800      2422
    45.4000      2238
    45.4200      2180
    45.4400      2154
    45.4600      2060
    45.4800      1972
    45.5000      1916
    45.5200      1820
    45.5400      1540
    45.5600      1478
    45.5800      1496
    45.6000      1402
    45.6200      1308
    45.6400      1252
    45.6600      1154
    45.6800      1118
    45.7000       948
    45.7200       984
    45.7400       878
    45.7600       852
    45.7800       820
    45.8000       778
    45.8200       782
    45.8400       806
    45.8600       732
    45.8800       818
    45.9000       762
    45.9200       686
    45.9400       714
    45.9600       740
    45.9800       752
    46.0000       710
    46.0200       670
    46.0400       708
    46.0600       716
    46.0800       702
    46.1000       698
    46.1200       724
    46.1400       732
    46.1600       694
    46.1800       760
    46.2000       724
    46.2200       774
    46.2400       780
    46.2600       758
    46.2800       890
    46.3000       896
    46.3200       934
    46.3400      1002
    46.3600      1038
    46.3800      1062
    46.4000      1244
    46.4200      1278
    46.4400      1350
    46.4600      1494
    46.4800      1626
    46.5000      1844
    46.5200      1922
    46.5400      2210
    46.5600      2256
    46.5800      2624
    46.6000      2896
    46.6200      3074
    46.6400      3362
    46.6600      3590
    46.6800      4038
    46.7000      4364
    46.7200      4502
    46.7400      4632
    46.7600      4624
    46.7800      4640
    46.8000      4590
    46.8200      4076
    46.8400      3924
    46.8600      3680
    46.8800      3484
    46.9000      3068
    46.9200      2828
    46.9400      2526
    46.9600      2276
    46.9800      1986
    47.0000      1766
    47.0200      1564
    47.0400      1406
    47.0600      1208
    47.0800      1212
    47.1000      1012
    47.1200       998
    47.1400       914
    47.1600       864
    47.1800       814
    47.2000       744
    47.2200       692
    47.2400       694
    47.2600       654
    47.2800       670
    47.3000       576
    47.3200       552
    47.3400       528
    47.3600       550
    47.3800       526
    47.4000       496
    47.4200       478
    47.4400       498
    47.4600       442
    47.4800       450
    47.5000       460
    47.5200       474
    47.5400       482
    47.5600       464
    47.5800       452
    47.6000       422
    47.6200       438
    47.6400       412
    47.6600       428
    47.6800       428
    47.7000       450
    47.7200       470
    47.7400       444
    47.7600       468
    47.7800       504
    47.8000       510
    47.8200       568
    47.8400       576
    47.8600       566
    47.8800       582
    47.9000       576
    47.9200       590
    47.9400       538
    47.9600       618
    47.9800       540
    48.0000       570
    48.0200       586
    48.0400       534
    48.0600       568
    48.0800       532
    48.1000       544
    48.1200       576
    48.1400       552
    48.1600       586
    48.1800       598
    48.2000       568
    48.2200       608
    48.2400       648
    48.2600       628
    48.2800       692
    48.3000       728
    48.3200       682
    48.3400       746
    48.3600       776
    48.3800       712
    48.4000       788
    48.4200       836
    48.4400       790
    48.4600       886
    48.4800       908
    48.5000       940
    48.5200       944
    48.5400      1040
    48.5600      1066
    48.5800      1120
    48.6000      1136
    48.6200      1226
    48.6400      1102
    48.6600      1096
    48.6800      1120
    48.7000      1010
    48.7200       968
    48.7400       920
    48.7600       874
    48.7800       812
    48.8000       804
    48.8200       724
    48.8400       716
    48.8600       672
    48.8800       584
    48.9000       552
    48.9200       546
    48.9400       464
    48.9600       466
    48.9800       460
    49.0000       426
    49.0200       412
    49.0400       400
    49.0600       408
    49.0800       410
    49.1000       392
    49.1200       356
    49.1400       386
    49.1600       318
    49.1800       374
    49.2000       368
    49.2200       316
    49.2400       348
    49.2600       338
    49.2800       340
    49.3000       318
    49.3200       330
    49.3400       312
    49.3600       328
    49.3800       306
    49.4000       332
    49.4200       308
    49.4400       330
    49.4600       328
    49.4800       316
    49.5000       316
    49.5200       360
    49.5400       354
    49.5600       360
    49.5800       342
    49.6000       314
    49.6200       360
    49.6400       370
    49.6600       356
    49.6800       350
    49.7000       384
    49.7200       344
    49.7400       344
    49.7600       346
    49.7800       410
    49.8000       386
    49.8200       356
    49.8400       414
    49.8600       392
    49.8800       402
    49.9000       414
    49.9200       446
    49.9400       426
    49.9600       440
    49.9800       498
    50.0000       504
    50.0200       520
    50.0400       500
    50.0600       606
    50.0800       632
    50.1000       612
    50.1200       638
    50.1400       754
    50.1600       798
    50.1800       862
    50.2000       962
    50.2200       984
    50.2400      1104
    50.2600      1190
    50.2800      1258
    50.3000      1260
    50.3200      1276
    50.3400      1266
    50.3600      1318
    50.3800      1296
    50.4000      1300
    50.4200      1216
    50.4400      1242
    50.4600      1262
    50.4800      1154
    50.5000      1222
    50.5200      1212
    50.5400      1230
    50.5600      1286
    50.5800      1276
    50.6000      1292
    50.6200      1360
    50.6400      1432
    50.6600      1574
    50.6800      1730
    50.7000      1916
    50.7200      2076
    50.7400      2222
    50.7600      2354
    50.7800      2498
    50.8000      2616
    50.8200      2728
    50.8400      2610
    50.8600      2608
    50.8800      2514
    50.9000      2530
    50.9200      2328
    50.9400      2318
    50.9600      2074
    50.9800      1924
    51.0000      1932
    51.0200      1800
    51.0400      1558
    51.0600      1464
    51.0800      1252
    51.1000      1208
    51.1200      1134
    51.1400      1112
    51.1600      1020
    51.1800       936
    51.2000       920
    51.2200       876
    51.2400       810
    51.2600       874
    51.2800       784
    51.3000       796
    51.3200       780
    51.3400       796
    51.3600       786
    51.3800       786
    51.4000       728
    51.4200       782
    51.4400       796
    51.4600       778
    51.4800       794
    51.5000       806
    51.5200       824
    51.5400       774
    51.5600       846
    51.5800       796
    51.6000       832
    51.6200       832
    51.6400       870
    51.6600       902
    51.6800       942
    51.7000       970
    51.7200      1058
    51.7400      1068
    51.7600      1134
    51.7800      1172
    51.8000      1312
    51.8200      1402
    51.8400      1538
    51.8600      1750
    51.8800      1760
    51.9000      1892
    51.9200      2010
    51.9400      2222
    51.9600      2408
    51.9800      2530
    52.0000      2648
    52.0200      2592
    52.0400      2568
    52.0600      2440
    52.0800      2294
    52.1000      2120
    52.1200      2034
    52.1400      1920
    52.1600      1806
    52.1800      1666
    52.2000      1472
    52.2200      1376
    52.2400      1238
    52.2600      1160
    52.2800      1116
    52.3000      1008
    52.3200       908
    52.3400       848
    52.3600       810
    52.3800       860
    52.4000       810
    52.4200       760
    52.4400       850
    52.4600       772
    52.4800       838
    52.5000       854
    52.5200       914
    52.5400       910
    52.5600       988
    52.5800      1054
    52.6000      1094
    52.6200      1156
    52.6400      1160
    52.6600      1120
    52.6800      1136
    52.7000      1184
    52.7200      1272
    52.7400      1198
    52.7600      1260
    52.7800      1182
    52.8000      1226
    52.8200      1188
    52.8400      1040
    52.8600      1052
    52.8800      1004
    52.9000      1000
    52.9200       972
    52.9400       916
    52.9600       788
    52.9800       802
    53.0000       800
    53.0200       738
    53.0400       802
    53.0600       678
    53.0800       718
    53.1000       698
    53.1200       764
    53.1400       750
    53.1600       726
    53.1800       784
    53.2000       824
    53.2200       876
    53.2400       892
    53.2600      1000
    53.2800      1020
    53.3000      1042
    53.3200      1098
    53.3400      1078
    53.3600      1018
    53.3800      1040
    53.4000       960
    53.4200       944
    53.4400       934
    53.4600       878
    53.4800       846
    53.5000       838
    53.5200       800
    53.5400       772
    53.5600       742
    53.5800       682
    53.6000       682
    53.6200       704
    53.6400       682
    53.6600       624
    53.6800       638
    53.7000       676
    53.7200       628
    53.7400       618
    53.7600       562
    53.7800       620
    53.8000       628
    53.8200       504
    53.8400       552
    53.8600       594
    53.8800       578
    53.9000       530
    53.9200       546
    53.9400       494
    53.9600       548
    53.9800       508
    54.0000       512
    54.0200       484
    54.0400       512
    54.0600       568
    54.0800       520
    54.1000       526
    54.1200       578
    54.1400       584
    54.1600       604
    54.1800       640
    54.2000       686
    54.2200       668
    54.2400       732
    54.2600       774
    54.2800       794
    54.3000       812
    54.3200       754
    54.3400       768
    54.3600       808
    54.3800       836
    54.4000       894
    54.4200       902
    54.4400       918
    54.4600       962
    54.4800       974
    54.5000       970
    54.5200       976
    54.5400       952
    54.5600       978
    54.5800       962
    54.6000       930
    54.6200       886
    54.6400       880
    54.6600       832
    54.6800       866
    54.7000       834
    54.7200       840
    54.7400       832
    54.7600       792
    54.7800       832
    54.8000       796
    54.8200       822
    54.8400       792
    54.8600       814
    54.8800       718
    54.9000       764
    54.9200       742
    54.9400       738
    54.9600       814
    54.9800       768
    55.0000       776
    55.0200       720
    55.0400       850
    55.0600       882
    55.0800       900
    55.1000       922
    55.1200      1000
    55.1400       958
    55.1600      1004
    55.1800      1038
    55.2000      1060
    55.2200      1050
    55.2400      1074
    55.2600       932
    55.2800      1010
    55.3000       966
    55.3200       946
    55.3400       898
    55.3600       882
    55.3800       868
    55.4000       774
    55.4200       818
    55.4400       746
    55.4600       752
    55.4800       718
    55.5000       668
    55.5200       632
    55.5400       574
    55.5600       604
    55.5800       594
    55.6000       594
    55.6200       504
    55.6400       536
    55.6600       440
    55.6800       434
    55.7000       412
    55.7200       476
    55.7400       404
    55.7600       416
    55.7800       348
    55.8000       354
    55.8200       402
    55.8400       404
    55.8600       352
    55.8800       320
    55.9000       370
    55.9200       354
    55.9400       366
    55.9600       324
    55.9800       374
    56.0000       358
    56.0200       348
    56.0400       350
    56.0600       366
    56.0800       332
    56.1000       370
    56.1200       366
    56.1400       316
    56.1600       314
    56.1800       384
    56.2000       360
    56.2200       352
    56.2400       352
    56.2600       382
    56.2800       334
    56.3000       368
    56.3200       360
    56.3400       394
    56.3600       382
    56.3800       414
    56.4000       386
    56.4200       412
    56.4400       390
    56.4600       424
    56.4800       390
    56.5000       438
    56.5200       446
    56.5400       474
    56.5600       468
    56.5800       482
    56.6000       500
    56.6200       534
    56.6400       568
    56.6600       612
    56.6800       670
    56.7000       666
    56.7200       714
    56.7400       762
    56.7600       820
    56.7800       788
    56.8000       814
    56.8200       776
    56.8400       816
    56.8600       762
    56.8800       800
    56.9000       722
    56.9200       714
    56.9400       672
    56.9600       732
    56.9800       642
    57.0000       622
    57.0200       572
    57.0400       602
    57.0600       612
    57.0800       554
    57.1000       572
    57.1200       538
    57.1400       566
    57.1600       568
    57.1800       586
    57.2000       590
    57.2200       642
    57.2400       630
    57.2600       656
    57.2800       642
    57.3000       692
    57.3200       748
    57.3400       800
    57.3600       852
    57.3800       950
    57.4000       954
    57.4200       962
    57.4400      1000
    57.4600      1002
    57.4800       948
    57.5000       966
    57.5200       972
    57.5400       920
    57.5600       930
    57.5800       886
    57.6000       856
    57.6200       930
    57.6400       924
    57.6600       874
    57.6800       910
    57.7000       904
    57.7200       984
    57.7400      1012
    57.7600       940
    57.7800       960
    57.8000       986
    57.8200      1012
    57.8400      1006
    57.8600       928
    57.8800       948
    57.9000       858
    57.9200       822
    57.9400       802
    57.9600       826
    57.9800       726
    58.0000       746
    58.0200       748
    58.0400       730
    58.0600       666
    58.0800       680
    58.1000       650
    58.1200       660
    58.1400       626
    58.1600       666
    58.1800       636
    58.2000       662
    58.2200       662
    58.2400       726
    58.2600       684
    58.2800       722
    58.3000       752
    58.3200       782
    58.3400       818
    58.3600       836
    58.3800       870
    58.4000       888
    58.4200       910
    58.4400      1016
    58.4600       984
    58.4800      1090
    58.5000      1074
    58.5200      1236
    58.5400      1192
    58.5600      1280
    58.5800      1420
    58.6000      1452
    58.6200      1484
    58.6400      1584
    58.6600      1626
    58.6800      1654
    58.7000      1740
    58.7200      1798
    58.7400      1790
    58.7600      1880
    58.7800      1886
    58.8000      1834
    58.8200      1816
    58.8400      1866
    58.8600      1728
    58.8800      1734
    58.9000      1646
    58.9200      1538
    58.9400      1544
    58.9600      1476
    58.9800      1338
    59.0000      1334
    59.0200      1256
    59.0400      1260
    59.0600      1174
    59.0800      1136
    59.1000      1110
    59.1200      1090
    59.1400      1086
    59.1600      1110
    59.1800      1088
    59.2000      1088
    59.2200      1192
    59.2400      1228
    59.2600      1338
    59.2800      1410
    59.3000      1470
    59.3200      1626
    59.3400      1720
    59.3600      1834
    59.3800      1990
    59.4000      2056
    59.4200      2238
    59.4400      2290
    59.4600      2222
    59.4800      2230
    59.5000      2168
    59.5200      2160
    59.5400      2094
    59.5600      1998
    59.5800      2004
    59.6000      1908
    59.6200      1862
    59.6400      1680
    59.6600      1668
    59.6800      1562
    59.7000      1522
    59.7200      1348
    59.7400      1302
    59.7600      1228
    59.7800      1138
    59.8000      1140
    59.8200      1118
    59.8400      1104
    59.8600       964
    59.8800       998
    59.9000       916
    59.9200       892
    59.9400       826
    59.9600       736
    59.9800       728
    60.0000       662
    60.0200       746
    60.0400       656
    60.0600       630
    60.0800       650
    60.1000       594
    60.1200       606
    60.1400       522
    60.1600       522
    60.1800       514
    60.2000       512
    60.2200       488
    60.2400       474
    60.2600       458
    60.2800       414
    60.3000       470
    60.3200       424
    60.3400       400
    60.3600       436
    60.3800       440
    60.4000       444
    60.4200       390
    60.4400       400
    60.4600       402
    60.4800       418
    60.5000       406
    60.5200       394
    60.5400       380
    60.5600       368
    60.5800       424
    60.6000       374
    60.6200       378
    60.6400       370
    60.6600       412
    60.6800       408
    60.7000       404
    60.7200       390
    60.7400       400
    60.7600       416
    60.7800       410
    60.8000       432
    60.8200       408
    60.8400       420
    60.8600       458
    60.8800       494
    60.9000       484
    60.9200       484
    60.9400       466
    60.9600       510
    60.9800       480
    61.0000       538
    61.0200       504
    61.0400       544
    61.0600       622
    61.0800       604
    61.1000       604
    61.1200       676
    61.1400       742
    61.1600       728
    61.1800       786
    61.2000       798
    61.2200       840
    61.2400       792
    61.2600       888
    61.2800       870
    61.3000       848
    61.3200       908
    61.3400       952
    61.3600      1032
    61.3800      1092
    61.4000      1158
    61.4200      1140
    61.4400      1292
    61.4600      1282
    61.4800      1372
    61.5000      1424
    61.5200      1538
    61.5400      1528
    61.5600      1668
    61.5800      1818
    61.6000      1862
    61.6200      1748
    61.6400      1748
    61.6600      1762
    61.6800      1688
    61.7000      1622
    61.7200      1560
    61.7400      1512
    61.7600      1396
    61.7800      1368
    61.8000      1270
    61.8200      1204
    61.8400      1118
    61.8600      1132
    61.8800      1002
    61.9000       866
    61.9200       870
    61.9400       772
    61.9600       762
    61.9800       714
    62.0000       682
    62.0200       614
    62.0400       636
    62.0600       606
    62.0800       634
    62.1000       608
    62.1200       568
    62.1400       596
    62.1600       582
    62.1800       582
    62.2000       524
    62.2200       516
    62.2400       496
    62.2600       478
    62.2800       522
    62.3000       472
    62.3200       482
    62.3400       514
    62.3600       464
    62.3800       504
    62.4000       458
    62.4200       448
    62.4400       516
    62.4600       440
    62.4800       462
    62.5000       422
    62.5200       414
    62.5400       402
    62.5600       398
    62.5800       416
    62.6000       412
    62.6200       404
    62.6400       458
    62.6600       414
    62.6800       450
    62.7000       398
    62.7200       414
    62.7400       404
    62.7600       394
    62.7800       428
    62.8000       380
    62.8200       378
    62.8400       372
    62.8600       376
    62.8800       356
    62.9000       370
    62.9200       336
    62.9400       314
    62.9600       348
    62.9800       338
    63.0000       322
    63.0200       324
    63.0400       324
    63.0600       308
    63.0800       276
    63.1000       304
    63.1200       328
    63.1400       306
    63.1600       320
    63.1800       268
    63.2000       282
    63.2200       276
    63.2400       324
    63.2600       276
    63.2800       284
    63.3000       324
    63.3200       300
    63.3400       308
    63.3600       294
    63.3800       298
    63.4000       310
    63.4200       342
    63.4400       316
    63.4600       334
    63.4800       338
    63.5000       344
    63.5200       358
    63.5400       400
    63.5600       420
    63.5800       412
    63.6000       384
    63.6200       430
    63.6400       460
    63.6600       468
    63.6800       522
    63.7000       508
    63.7200       598
    63.7400       600
    63.7600       634
    63.7800       642
    63.8000       756
    63.8200       732
    63.8400       740
    63.8600       822
    63.8800       854
    63.9000       950
    63.9200       972
    63.9400       964
    63.9600       908
    63.9800       966
    64.0000       922
    64.0200       874
    64.0400       790
    64.0600       818
    64.0800       760
    64.1000       744
    64.1200       712
    64.1400       676
    64.1600       648
    64.1800       592
    64.2000       606
    64.2200       536
    64.2400       516
    64.2600       496
    64.2800       474
    64.3000       462
    64.3200       396
    64.3400       388
    64.3600       408
    64.3800       376
    64.4000       378
    64.4200       340
    64.4400       342
    64.4600       318
    64.4800       298
    64.5000       286
    64.5200       292
    64.5400       294
    64.5600       266
    64.5800       318
    64.6000       322
    64.6200       274
    64.6400       302
    64.6600       320
    64.6800       270
    64.7000       306
    64.7200       306
    64.7400       286
    64.7600       286
    64.7800       276
    64.8000       306
    64.8200       288
    64.8400       302
    64.8600       304
    64.8800       310
    64.9000       290
    64.9200       296
    64.9400       280
    64.9600       296
    64.9800       324
    65.0000       298
    65.0200       340
    65.0400       338
    65.0600       350
    65.0800       342
    65.1000       344
    65.1200       384
    65.1400       418
    65.1600       344
    65.1800       388
    65.2000       376
    65.2200       390
    65.2400       388
    65.2600       386
    65.2800       426
    65.3000       392
    65.3200       378
    65.3400       434
    65.3600       398
    65.3800       426
    65.4000       416
    65.4200       416
    65.4400       444
    65.4600       428
    65.4800       408
    65.5000       484
    65.5200       458
    65.5400       402
    65.5600       424
    65.5800       454
    65.6000       464
    65.6200       428
    65.6400       492
    65.6600       398
    65.6800       384
    65.7000       402
    65.7200       430
    65.7400       424
    65.7600       410
    65.7800       368
    65.8000       376
    65.8200       336
    65.8400       362
    65.8600       332
    65.8800       312
    65.9000       324
    65.9200       322
    65.9400       316
    65.9600       336
    65.9800       280
    66.0000       292
    66.0200       278
    66.0400       312
    66.0600       284
    66.0800       320
    66.1000       310
    66.1200       272
    66.1400       298
    66.1600       312
    66.1800       336
    66.2000       294
    66.2200       300
    66.2400       328
    66.2600       306
    66.2800       330
    66.3000       326
    66.3200       302
    66.3400       356
    66.3600       354
    66.3800       346
    66.4000       398
    66.4200       402
    66.4400       406
    66.4600       380
    66.4800       400
    66.5000       412
    66.5200       388
    66.5400       400
    66.5600       448
    66.5800       442
    66.6000       418
    66.6200       452
    66.6400       492
    66.6600       442
    66.6800       500
    66.7000       574
    66.7200       548
    66.7400       576
    66.7600       592
    66.7800       626
    66.8000       648
    66.8200       638
    66.8400       644
    66.8600       670
    66.8800       732
    66.9000       740
    66.9200       850
    66.9400       834
    66.9600       862
    66.9800       876
    67.0000       888
    67.0200       908
    67.0400       860
    67.0600       838
    67.0800       848
    67.1000       748
    67.1200       770
    67.1400       756
    67.1600       694
    67.1800       658
    67.2000       706
    67.2200       652
    67.2400       616
    67.2600       588
    67.2800       570
    67.3000       532
    67.3200       522
    67.3400       500
    67.3600       494
    67.3800       466
    67.4000       454
    67.4200       412
    67.4400       442
    67.4600       414
    67.4800       424
    67.5000       410
    67.5200       360
    67.5400       382
    67.5600       378
    67.5800       352
    67.6000       376
    67.6200       336
    67.6400       316
    67.6600       350
    67.6800       368
    67.7000       352
    67.7200       360
    67.7400       340
    67.7600       312
    67.7800       352
    67.8000       352
    67.8200       362
    67.8400       384
    67.8600       368
    67.8800       364
    67.9000       396
    67.9200       402
    67.9400       392
    67.9600       438
    67.9800       442
    68.0000       474
    68.0200       510
    68.0400       480
    68.0600       508
    68.0800       566
    68.1000       618
    68.1200       608
    68.1400       630
    68.1600       656
    68.1800       708
    68.2000       688
    68.2200       694
    68.2400       746
    68.2600       760
    68.2800       754
    68.3000       748
    68.3200       764
    68.3400       764
    68.3600       730
    68.3800       708
    68.4000       734
    68.4200       730
    68.4400       672
    68.4600       688
    68.4800       644
    68.5000       650
    68.5200       604
    68.5400       592
    68.5600       612
    68.5800       518
    68.6000       520
    68.6200       548
    68.6400       504
    68.6600       492
    68.6800       506
    68.7000       512
    68.7200       466
    68.7400       406
    68.7600       482
    68.7800       416
    68.8000       442
    68.8200       380
    68.8400       422
    68.8600       398
    68.8800       400
    68.9000       394
    68.9200       378
    68.9400       414
    68.9600       394
    68.9800       372
    69.0000       394
    69.0200       370
    69.0400       378
    69.0600       372
    69.0800       374
    69.1000       398
    69.1200       426
    69.1400       436
    69.1600       412
    69.1800       448
    69.2000       408
    69.2200       428
    69.2400       436
    69.2600       438
    69.2800       442
    69.3000       436
    69.3200       500
    69.3400       426
    69.3600       440
    69.3800       414
    69.4000       494
    69.4200       456
    69.4400       456
    69.4600       496
    69.4800       492
    69.5000       446
    69.5200       438
    69.5400       410
    69.5600       462
    69.5800       478
    69.6000       474
    69.6200       468
    69.6400       446
    69.6600       484
    69.6800       436
    69.7000       412
    69.7200       440
    69.7400       446
    69.7600       458
    69.7800       450
    69.8000       492
    69.8200       458
    69.8400       482
    69.8600       516
    69.8800       482
    69.9000       474
    69.9200       454
    69.9400       494
    69.9600       468
    69.9800       458
    70.0000       504
    70.0200       464
    70.0400       444
    70.0600       414
    70.0800       402
    70.1000       430
    70.1200       390
    70.1400       400
    70.1600       358
    70.1800       390
    70.2000       326
    70.2200       342
    70.2400       346
    70.2600       334
    70.2800       350
    70.3000       292
    70.3200       336
    70.3400       278
    70.3600       288
    70.3800       262
    70.4000       274
    70.4200       286
    70.4400       256
    70.4600       272
    70.4800       286
    70.5000       286
    70.5200       256
    70.5400       268
    70.5600       240
    70.5800       316
    70.6000       266
    70.6200       260
    70.6400       256
    70.6600       248
    70.6800       286
    70.7000       280
    70.7200       254
    70.7400       256
    70.7600       242
    70.7800       280
    70.8000       256
    70.8200       222
    70.8400       234
    70.8600       228
    70.8800       236
    70.9000       228
    70.9200       202
    70.9400       252
    70.9600       226
    70.9800       224
    71.0000       224
    71.0200       236
    71.0400       252
    71.0600       238
    71.0800       234
    71.1000       242
    71.1200       228
    71.1400       244
    71.1600       226
    71.1800       288
    71.2000       264
    71.2200       274
    71.2400       272
    71.2600       256
    71.2800       290
    71.3000       296
    71.3200       296
    71.3400       284
    71.3600       314
    71.3800       332
    71.4000       328
    71.4200       362
    71.4400       384
    71.4600       380
    71.4800       400
    71.5000       378
    71.5200       380
    71.5400       464
    71.5600       440
    71.5800       428
    71.6000       422
    71.6200       420
    71.6400       456
    71.6600       422
    71.6800       450
    71.7000       408
    71.7200       442
    71.7400       440
    71.7600       436
    71.7800       414
    71.8000       412
    71.8200       440
    71.8400       422
    71.8600       388
    71.8800       428
    71.9000       378
    71.9200       370
    71.9400       370
    71.9600       390
    71.9800       382
    72.0000       354
    72.0200       308
    72.0400       378
    72.0600       382
    72.0800       358
    72.1000       388
    72.1200       344
    72.1400       386
    72.1600       328
    72.1800       376
    72.2000       384
    72.2200       362
    72.2400       392
    72.2600       382
    72.2800       450
    72.3000       440
    72.3200       438
    72.3400       450
    72.3600       462
    72.3800       446
    72.4000       454
    72.4200       520
    72.4400       526
    72.4600       462
    72.4800       506
    72.5000       498
    72.5200       554
    72.5400       590
    72.5600       554
    72.5800       608
    72.6000       594
    72.6200       594
    72.6400       620
    72.6600       624
    72.6800       650
    72.7000       644
    72.7200       734
    72.7400       688
    72.7600       700
    72.7800       692
    72.8000       706
    72.8200       646
    72.8400       668
    72.8600       672
    72.8800       658
    72.9000       662
    72.9200       692
    72.9400       610
    72.9600       610
    72.9800       618
    73.0000       610
    73.0200       562
    73.0400       512
    73.0600       570
    73.0800       514
    73.1000       498
    73.1200       460
    73.1400       434
    73.1600       430
    73.1800       428
    73.2000       378
    73.2200       412
    73.2400       348
    73.2600       332
    73.2800       352
    73.3000       362
    73.3200       356
    73.3400       310
    73.3600       324
    73.3800       306
    73.4000       338
    73.4200       270
    73.4400       290
    73.4600       272
    73.4800       276
    73.5000       258
    73.5200       242
    73.5400       262
    73.5600       260
    73.5800       292
    73.6000       270
    73.6200       240
    73.6400       258
    73.6600       240
    73.6800       258
    73.7000       250
    73.7200       212
    73.7400       270
    73.7600       268
    73.7800       254
    73.8000       224
    73.8200       270
    73.8400       234
    73.8600       272
    73.8800       262
    73.9000       280
    73.9200       232
    73.9400       260
    73.9600       266
    73.9800       268
    74.0000       256
    74.0200       256
    74.0400       250
    74.0600       248
    74.0800       252
    74.1000       266
    74.1200       280
    74.1400       278
    74.1600       272
    74.1800       246
    74.2000       256
    74.2200       250
    74.2400       264
    74.2600       254
    74.2800       252
    74.3000       256
    74.3200       248
    74.3400       262
    74.3600       248
    74.3800       252
    74.4000       242
    74.4200       216
    74.4400       210
    74.4600       230
    74.4800       238
    74.5000       220
    74.5200       196
    74.5400       206
    74.5600       238
    74.5800       212
    74.6000       196
    74.6200       212
    74.6400       210
    74.6600       198
    74.6800       224
    74.7000       210
    74.7200       220
    74.7400       204
    74.7600       202
    74.7800       216
    74.8000       192
    74.8200       206
    74.8400       200
    74.8600       202
    74.8800       212
    74.9000       192
    74.9200       166
    74.9400       208
    74.9600       168
    74.9800       184
    75.0000       222
    75.0200       202
    75.0400       224
    75.0600       236
    75.0800       236
    75.1000       228
    75.1200       238
    75.1400       230
    75.1600       226
    75.1800       250
    75.2000       218
    75.2200       264
    75.2400       260
    75.2600       272
    75.2800       250
    75.3000       262
    75.3200       250
    75.3400       246
    75.3600       276
    75.3800       254
    75.4000       272
    75.4200       250
    75.4400       254
    75.4600       290
    75.4800       292
    75.5000       284
    75.5200       296
    75.5400       288
    75.5600       290
    75.5800       264
    75.6000       268
    75.6200       296
    75.6400       326
    75.6600       306
    75.6800       294
    75.7000       274
    75.7200       302
    75.7400       280
    75.7600       304
    75.7800       310
    75.8000       318
    75.8200       312
    75.8400       296
    75.8600       314
    75.8800       282
    75.9000       292
    75.9200       324
    75.9400       254
    75.9600       296
    75.9800       306
    76.0000       258
    76.0200       322
    76.0400       266
    76.0600       304
    76.0800       282
    76.1000       278
    76.1200       308
    76.1400       304
    76.1600       274
    76.1800       320
    76.2000       304
    76.2200       296
    76.2400       272
    76.2600       272
    76.2800       274
    76.3000       306
    76.3200       316
    76.3400       348
    76.3600       296
    76.3800       316
    76.4000       316
    76.4200       300
    76.4400       326
    76.4600       366
    76.4800       356
    76.5000       376
    76.5200       340
    76.5400       408
    76.5600       408
    76.5800       394
    76.6000       406
    76.6200       388
    76.6400       420
    76.6600       442
    76.6800       398
    76.7000       420
    76.7200       408
    76.7400       376
    76.7600       462
    76.7800       396
    76.8000       390
    76.8200       398
    76.8400       400
    76.8600       434
    76.8800       372
    76.9000       356
    76.9200       356
    76.9400       372
    76.9600       398
    76.9800       384
    77.0000       332
    77.0200       350
    77.0400       356
    77.0600       360
    77.0800       346
    77.1000       362
    77.1200       316
    77.1400       354
    77.1600       366
    77.1800       346
    77.2000       368
    77.2200       350
    77.2400       364
    77.2600       352
    77.2800       384
    77.3000       334
    77.3200       406
    77.3400       422
    77.3600       404
    77.3800       384
    77.4000       428
    77.4200       414
    77.4400       414
    77.4600       448
    77.4800       404
    77.5000       422
    77.5200       486
    77.5400       440
    77.5600       458
    77.5800       488
    77.6000       464
    77.6200       458
    77.6400       496
    77.6600       506
    77.6800       482
    77.7000       530
    77.7200       510
    77.7400       558
    77.7600       540
    77.7800       548
    77.8000       542
    77.8200       560
    77.8400       518
    77.8600       496
    77.8800       472
    77.9000       536
    77.9200       524
    77.9400       484
    77.9600       500
    77.9800       468
    78.0000       448
    78.0200       456
    78.0400       420
    78.0600       444
    78.0800       432
    78.1000       410
    78.1200       398
    78.1400       384
    78.1600       386
    78.1800       344
    78.2000       322
    78.2200       376
    78.2400       366
    78.2600       322
    78.2800       328
    78.3000       336
    78.3200       306
    78.3400       316
    78.3600       288
    78.3800       328
    78.4000       326
    78.4200       310
    78.4400       340
    78.4600       334
    78.4800       360
    78.5000       348
    78.5200       374
    78.5400       388
    78.5600       362
    78.5800       344
    78.6000       354
    78.6200       398
    78.6400       382
    78.6600       370
    78.6800       428
    78.7000       414
    78.7200       388
    78.7400       426
    78.7600       438
    78.7800       420
    78.8000       402
    78.8200       394
    78.8400       390
    78.8600       386
    78.8800       374
    78.9000       342
    78.9200       350
    78.9400       370
    78.9600       400
    78.9800       330
    79.0000       330
    79.0200       362
    79.0400       314
    79.0600       318
    79.0800       358
    79.1000       320
    79.1200       310
    79.1400       304
    79.1600       312
    79.1800       302
    79.2000       284
    79.2200       284
    79.2400       268
    79.2600       284
    79.2800       268
    79.3000       286
    79.3200       278
    79.3400       268
    79.3600       280
    79.3800       262
    79.4000       326
    79.4200       272
    79.4400       256
    79.4600       294
    79.4800       230
    79.5000       248
    79.5200       240
    79.5400       278
    79.5600       278
    79.5800       238
    79.6000       244
    79.6200       264
    79.6400       276
    79.6600       238
    79.6800       238
    79.7000       260
    79.7200       226
    79.7400       238
    79.7600       244
    79.7800       242
    79.8000       258
    79.8200       274
    79.8400       262
    79.8600       276
    79.8800       242
    79.9000       226
    79.9200       286
    79.9400       244
    79.9600       274
    79.9800       262
    80.0000       250
    80.0200       260
    80.0400       274
    80.0600       284
    80.0800       240
    80.1000       276
    80.1200       234
    80.1400       280
    80.1600       242
    80.1800       242
    80.2000       296
    80.2200       278
    80.2400       276
    80.2600       234
    80.2800       244
    80.3000       264
    80.3200       230
    80.3400       274
    80.3600       254
    80.3800       266
    80.4000       248
    80.4200       290
    80.4400       292
    80.4600       272
    80.4800       264
    80.5000       256
    80.5200       310
    80.5400       290
    80.5600       292
    80.5800       304
    80.6000       284
    80.6200       266
    80.6400       274
    80.6600       272
    80.6800       276
    80.7000       256
    80.7200       266
    80.7400       276
    80.7600       234
    80.7800       236
    80.8000       240
    80.8200       264
    80.8400       234
    80.8600       234
    80.8800       238
    80.9000       228
    80.9200       236
    80.9400       264
    80.9600       246
    80.9800       248
    81.0000       194
    81.0200       216
    81.0400       210
    81.0600       248
    81.0800       222
    81.1000       220
    81.1200       222
    81.1400       208
    81.1600       232
    81.1800       246
    81.2000       258
    81.2200       212
    81.2400       242
    81.2600       210
    81.2800       218
    81.3000       232
    81.3200       270
    81.3400       200
    81.3600       242
    81.3800       236
    81.4000       244
    81.4200       226
    81.4400       258
    81.4600       230
    81.4800       238
    81.5000       262
    81.5200       260
    81.5400       282
    81.5600       280
    81.5800       252
    81.6000       238
    81.6200       300
    81.6400       284
    81.6600       236
    81.6800       264
    81.7000       272
    81.7200       280
    81.7400       280
    81.7600       296
    81.7800       272
    81.8000       280
    81.8200       328
    81.8400       292
    81.8600       284
    81.8800       346
    81.9000       314
    81.9200       286
    81.9400       320
    81.9600       314
    81.9800       302
    82.0000       318
    82.0200       338
    82.0400       330
    82.0600       396
    82.0800       386
    82.1000       312
    82.1200       390
    82.1400       336
    82.1600       330
    82.1800       342
    82.2000       334
    82.2200       410
    82.2400       352
    82.2600       380
    82.2800       396
    82.3000       410
    82.3200       408
    82.3400       384
    82.3600       394
    82.3800       410
    82.4000       414
    82.4200       422
    82.4400       446
    82.4600       432
    82.4800       414
    82.5000       466
    82.5200       460
    82.5400       476
    82.5600       518
    82.5800       486
    82.6000       558
    82.6200       546
    82.6400       542
    82.6600       584
    82.6800       582
    82.7000       622
    82.7200       638
    82.7400       700
    82.7600       744
    82.7800       702
    82.8000       724
    82.8200       806
    82.8400       804
    82.8600       878
    82.8800       914
    82.9000       910
    82.9200       856
    82.9400       882
    82.9600       920
    82.9800       844
    83.0000       828
    83.0200       872
    83.0400       810
    83.0600       764
    83.0800       772
    83.1000       804
    83.1200       744
    83.1400       688
    83.1600       768
    83.1800       692
    83.2000       680
    83.2200       628
    83.2400       638
    83.2600       614
    83.2800       602
    83.3000       558
    83.3200       602
    83.3400       538
    83.3600       498
    83.3800       480
    83.4000       430
    83.4200       480
    83.4400       468
    83.4600       458
    83.4800       398
    83.5000       458
    83.5200       356
    83.5400       398
    83.5600       392
    83.5800       398
    83.6000       374
    83.6200       352
    83.6400       350
    83.6600       364
    83.6800       300
    83.7000       340
    83.7200       332
    83.7400       340
    83.7600       322
    83.7800       318
    83.8000       354
    83.8200       316
    83.8400       306
    83.8600       340
    83.8800       302
    83.9000       292
    83.9200       324
    83.9400       278
    83.9600       336
    83.9800       302
    84.0000       288
    84.0200       338
    84.0400       342
    84.0600       314
    84.0800       302
    84.1000       320
    84.1200       342
    84.1400       320
    84.1600       330
    84.1800       350
    84.2000       366
    84.2200       328
    84.2400       322
    84.2600       324
    84.2800       350
    84.3000       342
    84.3200       344
    84.3400       334
    84.3600       332
    84.3800       358
    84.4000       330
    84.4200       306
    84.4400       320
    84.4600       358
    84.4800       362
    84.5000       320
    84.5200       324
    84.5400       292
    84.5600       318
    84.5800       348
    84.6000       326
    84.6200       296
    84.6400       318
    84.6600       310
    84.6800       318
    84.7000       314
    84.7200       310
    84.7400       314
    84.7600       324
    84.7800       314
    84.8000       340
    84.8200       302
    84.8400       308
    84.8600       286
    84.8800       298
    84.9000       298
    84.9200       300
    84.9400       304
    84.9600       272
    84.9800       320
    85.0000       260
    85.0200       266
    85.0400       302
    85.0600       306
    85.0800       288
    85.1000       304
    85.1200       278
    85.1400       288
    85.1600       318
    85.1800       288
    85.2000       268
    85.2200       282
    85.2400       260
    85.2600       264
    85.2800       292
    85.3000       266
    85.3200       304
    85.3400       292
    85.3600       274
    85.3800       262
    85.4000       288
    85.4200       264
    85.4400       272
    85.4600       280
    85.4800       294
    85.5000       280
    85.5200       258
    85.5400       312
    85.5600       278
    85.5800       300
    85.6000       258
    85.6200       288
    85.6400       292
    85.6600       288
    85.6800       284
    85.7000       296
    85.7200       284
    85.7400       306
    85.7600       294
    85.7800       246
    85.8000       262
    85.8200       288
    85.8400       296
    85.8600       308
    85.8800       280
    85.9000       276
    85.9200       278
    85.9400       280
    85.9600       308
    85.9800       240
    86.0000       266
    86.0200       256
    86.0400       270
    86.0600       238
    86.0800       258
    86.1000       256
    86.1200       314
    86.1400       270
    86.1600       256
    86.1800       258
    86.2000       270
    86.2200       232
    86.2400       244
    86.2600       274
    86.2800       268
    86.3000       252
    86.3200       264
    86.3400       242
    86.3600       268
    86.3800       266
    86.4000       266
    86.4200       270
    86.4400       270
    86.4600       272
    86.4800       270
    86.5000       252
    86.5200       254
    86.5400       314
    86.5600       286
    86.5800       288
    86.6000       258
    86.6200       260
    86.6400       260
    86.6600       324
    86.6800       320
    86.7000       312
    86.7200       344
    86.7400       354
    86.7600       328
    86.7800       372
    86.8000       386
    86.8200       362
    86.8400       390
    86.8600       366
    86.8800       350
    86.9000       416
    86.9200       374
    86.9400       382
    86.9600       382
    86.9800       382
    87.0000       396
    87.0200       390
    87.0400       428
    87.0600       420
    87.0800       372
    87.1000       390
    87.1200       370
    87.1400       392
    87.1600       372
    87.1800       378
    87.2000       400
    87.2200       394
    87.2400       378
    87.2600       392
    87.2800       382
    87.3000       334
    87.3200       398
    87.3400       316
    87.3600       350
    87.3800       358
    87.4000       340
    87.4200       312
    87.4400       340
    87.4600       354
    87.4800       364
    87.5000       332
    87.5200       374
    87.5400       352
    87.5600       356
    87.5800       346
    87.6000       386
    87.6200       400
    87.6400       364
    87.6600       372
    87.6800       410
    87.7000       402
    87.7200       396
    87.7400       440
    87.7600       442
    87.7800       432
    87.8000       416
    87.8200       472
    87.8400       434
    87.8600       430
    87.8800       470
    87.9000       442
    87.9200       428
    87.9400       444
    87.9600       454
    87.9800       426
    88.0000       436
    88.0200       446
    88.0400       424
    88.0600       410
    88.0800       424
    88.1000       392
    88.1200       416
    88.1400       460
    88.1600       398
    88.1800       394
    88.2000       436
    88.2200       458
    88.2400       398
    88.2600       414
    88.2800       406
    88.3000       412
    88.3200       390
    88.3400       404
    88.3600       386
    88.3800       412
    88.4000       374
    88.4200       404
    88.4400       372
    88.4600       370
    88.4800       384
    88.5000       346
    88.5200       380
    88.5400       368
    88.5600       350
    88.5800       348
    88.6000       352
    88.6200       306
    88.6400       342
    88.6600       326
    88.6800       316
    88.7000       328
    88.7200       338
    88.7400       308
    88.7600       294
    88.7800       294
    88.8000       282
    88.8200       284
    88.8400       292
    88.8600       268
    88.8800       274
    88.9000       270
    88.9200       242
    88.9400       252
    88.9600       288
    88.9800       252
    89.0000       260
    89.0200       242
    89.0400       244
    89.0600       236
    89.0800       262
    89.1000       252
    89.1200       242
    89.1400       234
    89.1600       268
    89.1800       244
    89.2000       232
    89.2200       240
    89.2400       246
    89.2600       246
    89.2800       248
    89.3000       246
    89.3200       246
    89.3400       246
    89.3600       254
    89.3800       264
    89.4000       266
    89.4200       266
    89.4400       266
    89.4600       244
    89.4800       250
    89.5000       248
    89.5200       226
    89.5400       284
    89.5600       252
    89.5800       254
    89.6000       276
    89.6200       268
    89.6400       234
    89.6600       254
    89.6800       266
    89.7000       284
    89.7200       286
    89.7400       274
    89.7600       272
    89.7800       300
    89.8000       292
    89.8200       306
    89.8400       272
    89.8600       282
    89.8800       306
    89.9000       298
    89.9200       296
    89.9400       300
    89.9600       284
    89.9800       270
    90.0000       270
