    10.0000       362
    10.0200       370
    10.0400       342
    10.0600       340
    10.0800       364
    10.1000       368
    10.1200       366
    10.1400       382
    10.1600       362
    10.1800       360
    10.2000       386
    10.2200       340
    10.2400       394
    10.2600       372
    10.2800       334
    10.3000       338
    10.3200       376
    10.3400       336
    10.3600       396
    10.3800       338
    10.4000       334
    10.4200       328
    10.4400       346
    10.4600       408
    10.4800       364
    10.5000       352
    10.5200       326
    10.5400       342
    10.5600       312
    10.5800       364
    10.6000       396
    10.6200       304
    10.6400       326
    10.6600       336
    10.6800       304
    10.7000       330
    10.7200       376
    10.7400       350
    10.7600       314
    10.7800       322
    10.8000       348
    10.8200       350
    10.8400       356
    10.8600       350
    10.8800       336
    10.9000       360
    10.9200       370
    10.9400       354
    10.9600       346
    10.9800       338
    11.0000       368
    11.0200       320
    11.0400       392
    11.0600       330
    11.0800       338
    11.1000       326
    11.1200       358
    11.1400       364
    11.1600       340
    11.1800       272
    11.2000       328
    11.2200       354
    11.2400       316
    11.2600       342
    11.2800       322
    11.3000       330
    11.3200       334
    11.3400       342
    11.3600       372
    11.3800       328
    11.4000       340
    11.4200       350
    11.4400       346
    11.4600       314
    11.4800       342
    11.5000       314
    11.5200       340
    11.5400       374
    11.5600       328
    11.5800       360
    11.6000       344
    11.6200       318
    11.6400       322
    11.6600       386
    11.6800       354
    11.7000       352
    11.7200       366
    11.7400       338
    11.7600       316
    11.7800       334
    11.8000       372
    11.8200       344
    11.8400       334
    11.8600       356
    11.8800       362
    11.9000       384
    11.9200       386
    11.9400       370
    11.9600       396
    11.9800       404
    12.0000       422
    12.0200       416
    12.0400       442
    12.0600       434
    12.0800       494
    12.1000       488
    12.1200       554
    12.1400       594
    12.1600       628
    12.1800       684
    12.2000       668
    12.2200       676
    12.2400       556
    12.2600       488
    12.2800       482
    12.3000       412
    12.3200       364
    12.3400       324
    12.3600       358
    12.3800       376
    12.4000       336
    12.4200       318
    12.4400       368
    12.4600       340
    12.4800       290
    12.5000       288
    12.5200       338
    12.5400       292
    12.5600       294
    12.5800       304
    12.6000       338
    12.6200       312
    12.6400       304
    12.6600       296
    12.6800       322
    12.7000       292
    12.7200       332
    12.7400       328
    12.7600       282
    12.7800       330
    12.8000       298
    12.8200       294
    12.8400       326
    12.8600       312
    12.8800       264
    12.9000       260
    12.9200       318
    12.9400       278
    12.9600       280
    12.9800       308
    13.0000       296
    13.0200       286
    13.0400       300
    13.0600       256
    13.0800       292
    13.1000       260
    13.1200       302
    13.1400       280
    13.1600       264
    13.1800       296
    13.2000       300
    13.2200       294
    13.2400       260
    13.2600       288
    13.2800       314
    13.3000       282
    13.3200       292
    13.3400       304
    13.3600       282
    13.3800       290
    13.4000       282
    13.4200       280
    13.4400       278
    13.4600       282
    13.4800       296
    13.5000       270
    13.5200       270
    13.5400       276
    13.5600       262
    13.5800       286
    13.6000       284
    13.6200       272
    13.6400       324
    13.6600       316
    13.6800       280
    13.7000       268
    13.7200       286
    13.7400       282
    13.7600       292
    13.7800       262
    13.8000       284
    13.8200       264
    13.8400       276
    13.8600       262
    13.8800       264
    13.9000       296
    13.9200       298
    13.9400       280
    13.9600       284
    13.9800       270
    14.0000       272
    14.0200       268
    14.0400       250
    14.0600       290
    14.0800       266
    14.1000       270
    14.1200       248
    14.1400       304
    14.1600       284
    14.1800       250
    14.2000       270
    14.2200       278
    14.2400       242
    14.2600       296
    14.2800       282
    14.3000       290
    14.3200       286
    14.3400       262
    14.3600       274
    14.3800       294
    14.4000       242
    14.4200       314
    14.4400       294
    14.4600       312
    14.4800       302
    14.5000       328
    14.5200       312
    14.5400       298
    14.5600       292
    14.5800       310
    14.6000       344
    14.6200       340
    14.6400       326
    14.6600       334
    14.6800       320
    14.7000       378
    14.7200       388
    14.7400       372
    14.7600       408
    14.7800       426
    14.8000       446
    14.8200       446
    14.8400       514
    14.8600       542
    14.8800       546
    14.9000       550
    14.9200       704
    14.9400       734
    14.9600       826
    14.9800       784
    15.0000       946
    15.0200      1022
    15.0400      1174
    15.0600      1222
    15.0800      1392
    15.1000      1624
    15.1200      1720
    15.1400      2048
    15.1600      2190
    15.1800      2292
    15.2000      2280
    15.2200      2222
    15.2400      1980
    15.2600      1658
    15.2800      1262
    15.3000       972
    15.3200       778
    15.3400       618
    15.3600       546
    15.3800       520
    15.4000       464
    15.4200       398
    15.4400       362
    15.4600       350
    15.4800       338
    15.5000       292
    15.5200       364
    15.5400       290
    15.5600       306
    15.5800       290
    15.6000       296
    15.6200       308
    15.6400       320
    15.6600       300
    15.6800       312
    15.7000       280
    15.7200       286
    15.7400       278
    15.7600       304
    15.7800       270
    15.8000       254
    15.8200       270
    15.8400       278
    15.8600       286
    15.8800       280
    15.9000       266
    15.9200       246
    15.9400       240
    15.9600       286
    15.9800       312
    16.0000       270
    16.0200       296
    16.0400       278
    16.0600       296
    16.0800       290
    16.1000       324
    16.1200       360
    16.1400       322
    16.1600       352
    16.1800       328
    16.2000       360
    16.2200       330
    16.2400       364
    16.2600       366
    16.2800       402
    16.3000       368
    16.3200       354
    16.3400       324
    16.3600       392
    16.3800       374
    16.4000       352
    16.4200       334
    16.4400       300
    16.4600       310
    16.4800       314
    16.5000       374
    16.5200       332
    16.5400       350
    16.5600       368
    16.5800       424
    16.6000       454
    16.6200       426
    16.6400       460
    16.6600       498
    16.6800       556
    16.7000       598
    16.7200       622
    16.7400       658
    16.7600       758
    16.7800       836
    16.8000       880
    16.8200       992
    16.8400      1138
    16.8600      1280
    16.8800      1368
    16.9000      1622
    16.9200      1882
    16.9400      2162
    16.9600      2610
    16.9800      2898
    17.0000      3410
    17.0200      3842
    17.0400      4142
    17.0600      4228
    17.0800      3924
    17.1000      3418
    17.1200      2738
    17.1400      2142
    17.1600      1662
    17.1800      1334
    17.2000      1010
    17.2200      1006
    17.2400       922
    17.2600       856
    17.2800       788
    17.3000       820
    17.3200       716
    17.3400       620
    17.3600       552
    17.3800       586
    17.4000       518
    17.4200       518
    17.4400       474
    17.4600       540
    17.4800       488
    17.5000       506
    17.5200       506
    17.5400       468
    17.5600       504
    17.5800       544
    17.6000       512
    17.6200       574
    17.6400       652
    17.6600       658
    17.6800       734
    17.7000       800
    17.7200       888
    17.7400       978
    17.7600      1044
    17.7800      1162
    17.8000      1182
    17.8200      1172
    17.8400      1144
    17.8600      1058
    17.8800       930
    17.9000       762
    17.9200       660
    17.9400       488
    17.9600       432
    17.9800       416
    18.0000       354
    18.0200       346
    18.0400       310
    18.0600       322
    18.0800       274
    18.1000       314
    18.1200       308
    18.1400       246
    18.1600       286
    18.1800       270
    18.2000       236
    18.2200       244
    18.2400       252
    18.2600       262
    18.2800       240
    18.3000       242
    18.3200       242
    18.3400       242
    18.3600       290
    18.3800       226
    18.4000       220
    18.4200       246
    18.4400       238
    18.4600       256
    18.4800       246
    18.5000       252
    18.5200       218
    18.5400       224
    18.5600       266
    18.5800       230
    18.6000       236
    18.6200       232
    18.6400       248
    18.6600       242
    18.6800       272
    18.7000       250
    18.7200       264
    18.7400       256
    18.7600       254
    18.7800       234
    18.8000       254
    18.8200       280
    18.8400       236
    18.8600       238
    18.8800       296
    18.9000       276
    18.9200       300
    18.9400       296
    18.9600       280
    18.9800       250
    19.0000       256
    19.0200       304
    19.0400       286
    19.0600       298
    19.0800       258
    19.1000       298
    19.1200       284
    19.1400       308
    19.1600       340
    19.1800       334
    19.2000       332
    19.2200       356
    19.2400       356
    19.2600       410
    19.2800       422
    19.3000       486
    19.3200       506
    19.3400       508
    19.3600       584
    19.3800       624
    19.4000       686
    19.4200       790
    19.4400       886
    19.4600      1010
    19.4800      1062
    19.5000      1168
    19.5200      1402
    19.5400      1438
    19.5600      1538
    19.5800      1532
    19.6000      1492
    19.6200      1366
    19.6400      1176
    19.6600      1060
    19.6800       856
    19.7000       760
    19.7200       678
    19.7400       658
    19.7600       610
    19.7800       676
    19.8000       644
    19.8200       664
    19.8400       670
    19.8600       796
    19.8800       892
    19.9000       938
    19.9200      1048
    19.9400      1144
    19.9600      1274
    19.9800      1286
    20.0000      1362
    20.0200      1324
    20.0400      1246
    20.0600      1144
    20.0800      1006
    20.1000       870
    20.1200       684
    20.1400       612
    20.1600       476
    20.1800       440
    20.2000       374
    20.2200       446
    20.2400       336
    20.2600       322
    20.2800       332
    20.3000       300
    20.3200       300
    20.3400       302
    20.3600       278
    20.3800       296
    20.4000       288
    20.4200       274
    20.4400       248
    20.4600       278
    20.4800       284
    20.5000       290
    20.5200       264
    20.5400       234
    20.5600       252
    20.5800       254
    20.6000       268
    20.6200       276
    20.6400       260
    20.6600       262
    20.6800       230
    20.7000       250
    20.7200       278
    20.7400       282
    20.7600       290
    20.7800       300
    20.8000       324
    20.8200       304
    20.8400       352
    20.8600       336
    20.8800       348
    20.9000       370
    20.9200       394
    20.9400       442
    20.9600       452
    20.9800       576
    21.0000       554
    21.0200       658
    21.0400       678
    21.0600       806
    21.0800       914
    21.1000      1050
    21.1200      1232
    21.1400      1440
    21.1600      1598
    21.1800      1710
    21.2000      1818
    21.2200      1838
    21.2400      1816
    21.2600      1568
    21.2800      1292
    21.3000       932
    21.3200       790
    21.3400       648
    21.3600       540
    21.3800       468
    21.4000       378
    21.4200       394
    21.4400       336
    21.4600       366
    21.4800       288
    21.5000       280
    21.5200       308
    21.5400       258
    21.5600       258
    21.5800       262
    21.6000       252
    21.6200       230
    21.6400       252
    21.6600       236
    21.6800       260
    21.7000       240
    21.7200       216
    21.7400       216
    21.7600       230
    21.7800       212
    21.8000       230
    21.8200       228
    21.8400       234
    21.8600       228
    21.8800       214
    21.9000       234
    21.9200       230
    21.9400       234
    21.9600       248
    21.9800       254
    22.0000       188
    22.0200       224
    22.0400       218
    22.0600       210
    22.0800       222
    22.1000       236
    22.1200       210
    22.1400       202
    22.1600       226
    22.1800       242
    22.2000       214
    22.2200       230
    22.2400       254
    22.2600       240
    22.2800       240
    22.3000       240
    22.3200       258
    22.3400       232
    22.3600       276
    22.3800       246
    22.4000       250
    22.4200       280
    22.4400       296
    22.4600       272
    22.4800       320
    22.5000       352
    22.5200       364
    22.5400       360
    22.5600       376
    22.5800       420
    22.6000       492
    22.6200       520
    22.6400       554
    22.6600       608
    22.6800       668
    22.7000       770
    22.7200       820
    22.7400       952
    22.7600      1040
    22.7800      1288
    22.8000      1368
    22.8200      1544
    22.8400      1788
    22.8600      1932
    22.8800      1986
    22.9000      1962
    22.9200      1866
    22.9400      1730
    22.9600      1548
    22.9800      1246
    23.0000      1002
    23.0200       796
    23.0400       654
    23.0600       606
    23.0800       512
    23.1000       442
    23.1200       444
    23.1400       378
    23.1600       370
    23.1800       370
    23.2000       312
    23.2200       310
    23.2400       280
    23.2600       308
    23.2800       276
    23.3000       274
    23.3200       294
    23.3400       272
    23.3600       270
    23.3800       254
    23.4000       282
    23.4200       240
    23.4400       252
    23.4600       224
    23.4800       248
    23.5000       238
    23.5200       238
    23.5400       258
    23.5600       224
    23.5800       250
    23.6000       276
    23.6200       244
    23.6400       250
    23.6600       230
    23.6800       220
    23.7000       242
    23.7200       234
    23.7400       214
    23.7600       204
    23.7800       242
    23.8000       248
    23.8200       208
    23.8400       210
    23.8600       208
    23.8800       228
    23.9000       228
    23.9200       226
    23.9400       224
    23.9600       240
    23.9800       224
    24.0000       234
    24.0200       232
    24.0400       236
    24.0600       278
    24.0800       238
    24.1000       250
    24.1200       276
    24.1400       240
    24.1600       276
    24.1800       290
    24.2000       286
    24.2200       328
    24.2400       304
    24.2600       350
    24.2800       362
    24.3000       364
    24.3200       394
    24.3400       482
    24.3600       512
    24.3800       568
    24.4000       656
    24.4200       716
    24.4400       794
    24.4600       916
    24.4800      1010
    24.5000      1112
    24.5200      1198
    24.5400      1242
    24.5600      1150
    24.5800      1152
    24.6000      1066
    24.6200      1010
    24.6400       956
    24.6600       874
    24.6800       838
    24.7000       778
    24.7200       802
    24.7400       784
    24.7600       822
    24.7800       816
    24.8000       826
    24.8200       756
    24.8400       704
    24.8600       672
    24.8800       608
    24.9000       524
    24.9200       546
    24.9400       552
    24.9600       512
    24.9800       534
    25.0000       560
    25.0200       570
    25.0400       520
    25.0600       586
    25.0800       614
    25.1000       684
    25.1200       726
    25.1400       800
    25.1600       940
    25.1800      1030
    25.2000      1212
    25.2200      1448
    25.2400      1564
    25.2600      1706
    25.2800      1950
    25.3000      1934
    25.3200      1900
    25.3400      1794
    25.3600      1680
    25.3800      1442
    25.4000      1316
    25.4200       946
    25.4400       906
    25.4600       770
    25.4800       660
    25.5000       638
    25.5200       670
    25.5400       650
    25.5600       652
    25.5800       692
    25.6000       696
    25.6200       652
    25.6400       648
    25.6600       604
    25.6800       604
    25.7000       618
    25.7200       516
    25.7400       456
    25.7600       434
    25.7800       424
    25.8000       410
    25.8200       352
    25.8400       376
    25.8600       358
    25.8800       342
    25.9000       336
    25.9200       328
    25.9400       306
    25.9600       322
    25.9800       316
    26.0000       304
    26.0200       302
    26.0400       290
    26.0600       310
    26.0800       240
    26.1000       290
    26.1200       308
    26.1400       250
    26.1600       242
    26.1800       268
    26.2000       254
    26.2200       258
    26.2400       254
    26.2600       252
    26.2800       262
    26.3000       248
    26.3200       244
    26.3400       234
    26.3600       248
    26.3800       262
    26.4000       260
    26.4200       282
    26.4400       286
    26.4600       254
    26.4800       258
    26.5000       248
    26.5200       258
    26.5400       258
    26.5600       252
    26.5800       282
    26.6000       302
    26.6200       276
    26.6400       284
    26.6600       260
    26.6800       264
    26.7000       274
    26.7200       290
    26.7400       310
    26.7600       310
    26.7800       258
    26.8000       280
    26.8200       276
    26.8400       272
    26.8600       272
    26.8800       282
    26.9000       258
    26.9200       278
    26.9400       250
    26.9600       256
    26.9800       256
    27.0000       276
    27.0200       274
    27.0400       258
    27.0600       308
    27.0800       278
    27.1000       276
    27.1200       310
    27.1400       294
    27.1600       322
    27.1800       358
    27.2000       314
    27.2200       330
    27.2400       360
    27.2600       404
    27.2800       414
    27.3000       474
    27.3200       594
    27.3400       588
    27.3600       624
    27.3800       782
    27.4000       890
    27.4200      1030
    27.4400      1092
    27.4600      1260
    27.4800      1246
    27.5000      1224
    27.5200      1254
    27.5400      1092
    27.5600       972
    27.5800       864
    27.6000       732
    27.6200       638
    27.6400       572
    27.6600       472
    27.6800       446
    27.7000       416
    27.7200       390
    27.7400       358
    27.7600       324
    27.7800       344
    27.8000       306
    27.8200       310
    27.8400       306
    27.8600       326
    27.8800       282
    27.9000       296
    27.9200       310
    27.9400       314
    27.9600       284
    27.9800       286
    28.0000       360
    28.0200       314
    28.0400       292
    28.0600       322
    28.0800       356
    28.1000       378
    28.1200       352
    28.1400       388
    28.1600       380
    28.1800       418
    28.2000       452
    28.2200       492
    28.2400       484
    28.2600       486
    28.2800       468
    28.3000       486
    28.3200       524
    28.3400       470
    28.3600       480
    28.3800       470
    28.4000       478
    28.4200       434
    28.4400       426
    28.4600       438
    28.4800       400
    28.5000       360
    28.5200       352
    28.5400       412
    28.5600       382
    28.5800       378
    28.6000       454
    28.6200       438
    28.6400       482
    28.6600       536
    28.6800       576
    28.7000       620
    28.7200       562
    28.7400       576
    28.7600       596
    28.7800       526
    28.8000       514
    28.8200       440
    28.8400       446
    28.8600       426
    28.8800       398
    28.9000       308
    28.9200       370
    28.9400       330
    28.9600       350
    28.9800       300
    29.0000       308
    29.0200       312
    29.0400       322
    29.0600       300
    29.0800       346
    29.1000       322
    29.1200       316
    29.1400       338
    29.1600       336
    29.1800       354
    29.2000       370
    29.2200       368
    29.2400       372
    29.2600       442
    29.2800       438
    29.3000       462
    29.3200       488
    29.3400       522
    29.3600       552
    29.3800       550
    29.4000       612
    29.4200       638
    29.4400       686
    29.4600       774
    29.4800       768
    29.5000       958
    29.5200      1112
    29.5400      1116
    29.5600      1312
    29.5800      1420
    29.6000      1586
    29.6200      1740
    29.6400      1800
    29.6600      1742
    29.6800      1848
    29.7000      1682
    29.7200      1526
    29.7400      1414
    29.7600      1268
    29.7800      1140
    29.8000      1000
    29.8200       892
    29.8400       858
    29.8600       786
    29.8800       766
    29.9000       748
    29.9200       778
    29.9400       828
    29.9600       820
    29.9800       918
    30.0000       962
    30.0200      1066
    30.0400      1110
    30.0600      1304
    30.0800      1488
    30.1000      1548
    30.1200      1790
    30.1400      1972
    30.1600      2152
    30.1800      2182
    30.2000      2270
    30.2200      2138
    30.2400      2070
    30.2600      1948
    30.2800      1946
    30.3000      1836
    30.3200      1818
    30.3400      1830
    30.3600      1838
    30.3800      1952
    30.4000      2128
    30.4200      2320
    30.4400      2604
    30.4600      2960
    30.4800      3534
    30.5000      3822
    30.5200      4350
    30.5400      5080
    30.5600      5956
    30.5800      6722
    30.6000      7858
    30.6200      9060
    30.6400      9754
    30.6600     10660
    30.6800     11204
    30.7000     10816
    30.7200     10222
    30.7400      9434
    30.7600      8336
    30.7800      7248
    30.8000      5958
    30.8200      4756
    30.8400      4040
    30.8600      3160
    30.8800      2676
    30.9000      2336
    30.9200      1990
    30.9400      1804
    30.9600      1592
    30.9800      1456
    31.0000      1292
    31.0200      1228
    31.0400      1126
    31.0600      1012
    31.0800      1030
    31.1000       916
    31.1200       796
    31.1400       802
    31.1600       780
    31.1800       740
    31.2000       718
    31.2200       760
    31.2400       650
    31.2600       656
    31.2800       624
    31.3000       566
    31.3200       572
    31.3400       518
    31.3600       448
    31.3800       482
    31.4000       452
    31.4200       414
    31.4400       416
    31.4600       414
    31.4800       414
    31.5000       386
    31.5200       398
    31.5400       382
    31.5600       378
    31.5800       368
    31.6000       418
    31.6200       380
    31.6400       396
    31.6600       400
    31.6800       404
    31.7000       416
    31.7200       430
    31.7400       424
    31.7600       472
    31.7800       478
    31.8000       454
    31.8200       506
    31.8400       560
    31.8600       670
    31.8800       650
    31.9000       702
    31.9200       750
    31.9400       808
    31.9600       958
    31.9800       974
    32.0000       984
    32.0200      1080
    32.0400      1126
    32.0600      1098
    32.0800      1078
    32.1000      1030
    32.1200      1000
    32.1400       932
    32.1600       872
    32.1800       836
    32.2000       814
    32.2200       810
    32.2400       752
    32.2600       776
    32.2800       754
    32.3000       860
    32.3200       858
    32.3400       970
    32.3600      1098
    32.3800      1216
    32.4000      1294
    32.4200      1522
    32.4400      1622
    32.4600      1924
    32.4800      2244
    32.5000      2520
    32.5200      2742
    32.5400      2994
    32.5600      3260
    32.5800      3554
    32.6000      3582
    32.6200      3518
    32.6400      3460
    32.6600      3286
    32.6800      2912
    32.7000      2738
    32.7200      2332
    32.7400      2092
    32.7600      1718
    32.7800      1498
    32.8000      1354
    32.8200      1088
    32.8400      1060
    32.8600       860
    32.8800       876
    32.9000       838
    32.9200       794
    32.9400       748
    32.9600       732
    32.9800       814
    33.0000       734
    33.0200       790
    33.0400       788
    33.0600       826
    33.0800       866
    33.1000       828
    33.1200       866
    33.1400       844
    33.1600       838
    33.1800       790
    33.2000       726
    33.2200       698
    33.2400       624
    33.2600       618
    33.2800       516
    33.3000       440
    33.3200       426
    33.3400       398
    33.3600       394
    33.3800       380
    33.4000       354
    33.4200       348
    33.4400       326
    33.4600       300
    33.4800       290
    33.5000       314
    33.5200       264
    33.5400       296
    33.5600       286
    33.5800       254
    33.6000       268
    33.6200       262
    33.6400       296
    33.6600       264
    33.6800       254
    33.7000       238
    33.7200       264
    33.7400       222
    33.7600       260
    33.7800       242
    33.8000       266
    33.8200       254
    33.8400       240
    33.8600       236
    33.8800       266
    33.9000       256
    33.9200       256
    33.9400       268
    33.9600       250
    33.9800       280
    34.0000       252
    34.0200       266
    34.0400       282
    34.0600       278
    34.0800       264
    34.1000       302
    34.1200       268
    34.1400       324
    34.1600       290
    34.1800       318
    34.2000       310
    34.2200       312
    34.2400       328
    34.2600       358
    34.2800       382
    34.3000       376
    34.3200       430
    34.3400       468
    34.3600       516
    34.3800       570
    34.4000       636
    34.4200       646
    34.4400       786
    34.4600       858
    34.4800       910
    34.5000      1070
    34.5200       940
    34.5400      1056
    34.5600       936
    34.5800       884
    34.6000       822
    34.6200       722
    34.6400       700
    34.6600       582
    34.6800       512
    34.7000       494
    34.7200       452
    34.7400       404
    34.7600       366
    34.7800       378
    34.8000       350
    34.8200       308
    34.8400       338
    34.8600       330
    34.8800       306
    34.9000       314
    34.9200       316
    34.9400       296
    34.9600       302
    34.9800       298
    35.0000       296
    35.0200       308
    35.0400       278
    35.0600       288
    35.0800       288
    35.1000       286
    35.1200       252
    35.1400       290
    35.1600       268
    35.1800       260
    35.2000       280
    35.2200       274
    35.2400       272
    35.2600       276
    35.2800       272
    35.3000       244
    35.3200       262
    35.3400       242
    35.3600       272
    35.3800       250
    35.4000       256
    35.4200       266
    35.4400       286
    35.4600       316
    35.4800       298
    35.5000       290
    35.5200       278
    35.5400       280
    35.5600       316
    35.5800       284
    35.6000       342
    35.6200       296
    35.6400       332
    35.6600       314
    35.6800       320
    35.7000       320
    35.7200       296
    35.7400       330
    35.7600       376
    35.7800       362
    35.8000       388
    35.8200       418
    35.8400       444
    35.8600       440
    35.8800       538
    35.9000       580
    35.9200       574
    35.9400       636
    35.9600       618
    35.9800       782
    36.0000       822
    36.0200       854
    36.0400       968
    36.0600      1056
    36.0800      1066
    36.1000      1084
    36.1200      1064
    36.1400      1106
    36.1600      1012
    36.1800      1014
    36.2000       914
    36.2200       910
    36.2400       840
    36.2600       736
    36.2800       694
    36.3000       570
    36.3200       544
    36.3400       556
    36.3600       492
    36.3800       432
    36.4000       456
    36.4200       406
    36.4400       404
    36.4600       402
    36.4800       388
    36.5000       364
    36.5200       410
    36.5400       376
    36.5600       398
    36.5800       424
    36.6000       384
    36.6200       416
    36.6400       416
    36.6600       398
    36.6800       454
    36.7000       510
    36.7200       522
    36.7400       528
    36.7600       656
    36.7800       660
    36.8000       676
    36.8200       770
    36.8400       906
    36.8600       898
    36.8800       906
    36.9000      1060
    36.9200      1056
    36.9400      1104
    36.9600      1060
    36.9800      1026
    37.0000       968
    37.0200      1006
    37.0400       910
    37.0600       958
    37.0800       944
    37.1000       884
    37.1200       828
    37.1400       958
    37.1600       848
    37.1800       862
    37.2000       860
    37.2200       858
    37.2400       770
    37.2600       698
    37.2800       640
    37.3000       658
    37.3200       588
    37.3400       578
    37.3600       484
    37.3800       492
    37.4000       474
    37.4200       450
    37.4400       446
    37.4600       398
    37.4800       410
    37.5000       424
    37.5200       442
    37.5400       434
    37.5600       378
    37.5800       356
    37.6000       436
    37.6200       416
    37.6400       418
    37.6600       438
    37.6800       446
    37.7000       416
    37.7200       480
    37.7400       482
    37.7600       514
    37.7800       528
    37.8000       508
    37.8200       562
    37.8400       602
    37.8600       656
    37.8800       698
    37.9000       732
    37.9200       760
    37.9400       884
    37.9600       908
    37.9800       998
    38.0000      1012
    38.0200      1098
    38.0400      1174
    38.0600      1186
    38.0800      1262
    38.1000      1252
    38.1200      1240
    38.1400      1214
    38.1600      1230
    38.1800      1150
    38.2000      1246
    38.2200      1234
    38.2400      1244
    38.2600      1316
    38.2800      1342
    38.3000      1422
    38.3200      1524
    38.3400      1748
    38.3600      1858
    38.3800      2052
    38.4000      2356
    38.4200      2524
    38.4400      2864
    38.4600      3114
    38.4800      3512
    38.5000      3926
    38.5200      4416
    38.5400      4842
    38.5600      5126
    38.5800      5736
    38.6000      6134
    38.6200      6586
    38.6400      6744
    38.6600      6930
    38.6800      6476
    38.7000      6362
    38.7200      5876
    38.7400      5582
    38.7600      5140
    38.7800      4642
    38.8000      4280
    38.8200      3760
    38.8400      3260
    38.8600      2958
    38.8800      2682
    38.9000      2394
    38.9200      2106
    38.9400      1886
    38.9600      1836
    38.9800      1724
    39.0000      1508
    39.0200      1472
    39.0400      1496
    39.0600      1480
    39.0800      1498
    39.1000      1466
    39.1200      1414
    39.1400      1434
    39.1600      1350
    39.1800      1442
    39.2000      1396
    39.2200      1458
    39.2400      1490
    39.2600      1460
    39.2800      1530
    39.3000      1564
    39.3200      1530
    39.3400      1520
    39.3600      1532
    39.3800      1474
    39.4000      1484
    39.4200      1418
    39.4400      1368
    39.4600      1316
    39.4800      1322
    39.5000      1232
    39.5200      1126
    39.5400      1108
    39.5600      1084
    39.5800      1100
    39.6000      1074
    39.6200      1128
    39.6400      1168
    39.6600      1236
    39.6800      1164
    39.7000      1242
    39.7200      1290
    39.7400      1398
    39.7600      1276
    39.7800      1344
    39.8000      1238
    39.8200      1244
    39.8400      1136
    39.8600      1060
    39.8800      1042
    39.9000      1024
    39.9200       944
    39.9400       940
    39.9600       890
    39.9800       870
    40.0000       840
    40.0200       864
    40.0400       856
    40.0600       906
    40.0800       950
    40.1000       916
    40.1200      1036
    40.1400      1010
    40.1600      1058
    40.1800      1088
    40.2000      1112
    40.2200      1100
    40.2400      1042
    40.2600      1072
    40.2800      1116
    40.3000      1120
    40.3200      1114
    40.3400      1166
    40.3600      1112
    40.3800      1172
    40.4000      1188
    40.4200      1284
    40.4400      1320
    40.4600      1466
    40.4800      1620
    40.5000      1668
    40.5200      1746
    40.5400      1736
    40.5600      1774
    40.5800      1792
    40.6000      1754
    40.6200      1640
    40.6400      1588
    40.6600      1550
    40.6800      1500
    40.7000      1344
    40.7200      1228
    40.7400      1188
    40.7600      1092
    40.7800      1004
    40.8000       968
    40.8200       878
    40.8400       814
    40.8600       762
    40.8800       706
    40.9000       696
    40.9200       732
    40.9400       694
    40.9600       744
    40.9800       668
    41.0000       686
    41.0200       756
    41.0400       786
    41.0600       778
    41.0800       810
    41.1000       900
    41.1200      1018
    41.1400      1102
    41.1600      1170
    41.1800      1288
    41.2000      1444
    41.2200      1614
    41.2400      1768
    41.2600      1878
    41.2800      1882
    41.3000      2002
    41.3200      2038
    41.3400      2096
    41.3600      2142
    41.3800      2210
    41.4000      2338
    41.4200      2448
    41.4400      2400
    41.4600      2438
    41.4800      2520
    41.5000      2510
    41.5200      2424
    41.5400      2426
    41.5600      2194
    41.5800      2166
    41.6000      1954
    41.6200      1830
    41.6400      1626
    41.6600      1446
    41.6800      1402
    41.7000      1210
    41.7200      1176
    41.7400      1090
    41.7600      1038
    41.7800      1042
    41.8000      1010
    41.8200       928
    41.8400       980
    41.8600      1018
    41.8800      1046
    41.9000      1018
    41.9200      1032
    41.9400      1062
    41.9600      1100
    41.9800      1034
    42.0000       988
    42.0200       982
    42.0400       924
    42.0600       892
    42.0800       810
    42.1000       786
    42.1200       742
    42.1400       670
    42.1600       664
    42.1800       582
    42.2000       566
    42.2200       490
    42.2400       536
    42.2600       490
    42.2800       500
    42.3000       460
    42.3200       480
    42.3400       450
    42.3600       428
    42.3800       466
    42.4000       418
    42.4200       418
    42.4400       432
    42.4600       418
    42.4800       392
    42.5000       408
    42.5200       398
    42.5400       390
    42.5600       426
    42.5800       350
    42.6000       392
    42.6200       374
    42.6400       394
    42.6600       362
    42.6800       348
    42.7000       398
    42.7200       346
    42.7400       400
    42.7600       398
    42.7800       384
    42.8000       362
    42.8200       392
    42.8400       402
    42.8600       464
    42.8800       404
    42.9000       412
    42.9200       444
    42.9400       432
    42.9600       456
    42.9800       494
    43.0000       496
    43.0200       516
    43.0400       588
    43.0600       532
    43.0800       614
    43.1000       686
    43.1200       752
    43.1400       836
    43.1600       816
    43.1800       878
    43.2000       970
    43.2200       994
    43.2400      1022
    43.2600      1076
    43.2800      1058
    43.3000      1060
    43.3200       924
    43.3400       922
    43.3600       856
    43.3800       872
    43.4000       780
    43.4200       674
    43.4400       704
    43.4600       594
    43.4800       574
    43.5000       568
    43.5200       534
    43.5400       494
    43.5600       484
    43.5800       462
    43.6000       454
    43.6200       416
    43.6400       480
    43.6600       456
    43.6800       472
    43.7000       454
    43.7200       498
    43.7400       454
    43.7600       468
    43.7800       526
    43.8000       478
    43.8200       478
    43.8400       528
    43.8600       528
    43.8800       554
    43.9000       536
    43.9200       530
    43.9400       508
    43.9600       508
    43.9800       524
    44.0000       550
    44.0200       532
    44.0400       492
    44.0600       494
    44.0800       476
    44.1000       484
    44.1200       480
    44.1400       500
    44.1600       452
    44.1800       448
    44.2000       528
    44.2200       548
    44.2400       572
    44.2600       558
    44.2800       588
    44.3000       532
    44.3200       572
    44.3400       540
    44.3600       568
    44.3800       552
    44.4000       564
    44.4200       542
    44.4400       538
    44.4600       528
    44.4800       530
    44.5000       530
    44.5200       554
    44.5400       522
    44.5600       550
    44.5800       594
    44.6000       614
    44.6200       592
    44.6400       656
    44.6600       660
    44.6800       664
    44.7000       748
    44.7200       682
    44.7400       740
    44.7600       792
    44.7800       758
    44.8000       832
    44.8200       878
    44.8400       922
    44.8600       984
    44.8800      1072
    44.9000      1108
    44.9200      1172
    44.9400      1328
    44.9600      1454
    44.9800      1640
    45.0000      1806
    45.0200      1920
    45.0400      2048
    45.0600      2170
    45.0800      2418
    45.1000      2332
    45.1200      2388
    45.1400      2398
    45.1600      2552
    45.1800      2678
    45.2000      2868
    45.2200      2786
    45.2400      2902
    45.2600      2836
    45.2800      2798
    45.3000      2740
    45.3200      2622
    45.3400      2506
    45.3600      2426
    45.3800      2350
    45.4000      2290
    45.4200      2220
    45.4400      2230
    45.4600      2012
    45.4800      2000
    45.5000      1962
    45.5200      1872
    45.5400      1792
    45.5600      1620
    45.5800      1544
    45.6000      1520
    45.6200      1314
    45.6400      1232
    45.6600      1152
    45.6800      1078
    45.7000       962
    45.7200       934
    45.7400       842
    45.7600       776
    45.7800       736
    45.8000       702
    45.8200       642
    45.8400       662
    45.8600       652
    45.8800       632
    45.9000       656
    45.9200       618
    45.9400       584
    45.9600       602
    45.9800       568
    46.0000       610
    46.0200       604
    46.0400       568
    46.0600       636
    46.0800       594
    46.1000       598
    46.1200       648
    46.1400       640
    46.1600       584
    46.1800       642
    46.2000       738
    46.2200       738
    46.2400       734
    46.2600       754
    46.2800       796
    46.3000       824
    46.3200       852
    46.3400       890
    46.3600      1016
    46.3800      1080
    46.4000      1228
    46.4200      1270
    46.4400      1378
    46.4600      1510
    46.4800      1568
    46.5000      1734
    46.5200      1774
    46.5400      2002
    46.5600      2128
    46.5800      2250
    46.6000      2440
    46.6200      2680
    46.6400      2890
    46.6600      2962
    46.6800      3308
    46.7000      3540
    46.7200      3760
    46.7400      3842
    46.7600      4080
    46.7800      3978
    46.8000      3902
    46.8200      3792
    46.8400      3592
    46.8600      3402
    46.8800      3156
    46.9000      2892
    46.9200      2728
    46.9400      2464
    46.9600      2208
    46.9800      2056
    47.0000      1766
    47.0200      1622
    47.0400      1512
    47.0600      1332
    47.0800      1180
    47.1000      1106
    47.1200       984
    47.1400       960
    47.1600       808
    47.1800       818
    47.2000       774
    47.2200       760
    47.2400       698
    47.2600       676
    47.2800       640
    47.3000       636
    47.3200       554
    47.3400       564
    47.3600       558
    47.3800       512
    47.4000       520
    47.4200       502
    47.4400       514
    47.4600       460
    47.4800       480
    47.5000       482
    47.5200       454
    47.5400       476
    47.5600       464
    47.5800       442
    47.6000       418
    47.6200       432
    47.6400       456
    47.6600       438
    47.6800       460
    47.7000       446
    47.7200       458
    47.7400       458
    47.7600       450
    47.7800       526
    47.8000       474
    47.8200       494
    47.8400       488
    47.8600       480
    47.8800       538
    47.9000       546
    47.9200       512
    47.9400       540
    47.9600       528
    47.9800       554
    48.0000       576
    48.0200       570
    48.0400       552
    48.0600       512
    48.0800       518
    48.1000       540
    48.1200       566
    48.1400       540
    48.1600       532
    48.1800       616
    48.2000       588
    48.2200       652
    48.2400       666
    48.2600       612
    48.2800       602
    48.3000       610
    48.3200       658
    48.3400       728
    48.3600       712
    48.3800       676
    48.4000       750
    48.4200       738
    48.4400       764
    48.4600       836
    48.4800       814
    48.5000       906
    48.5200       966
    48.5400      1066
    48.5600      1140
    48.5800      1146
    48.6000      1226
    48.6200      1172
    48.6400      1172
    48.6600      1132
    48.6800      1072
    48.7000      1048
    48.7200       974
    48.7400       910
    48.7600       850
    48.7800       832
    48.8000       742
    48.8200       708
    48.8400       638
    48.8600       556
    48.8800       522
    48.9000       520
    48.9200       506
    48.9400       480
    48.9600       464
    48.9800       432
    49.0000       416
    49.0200       424
    49.0400       370
    49.0600       352
    49.0800       360
    49.1000       352
    49.1200       386
    49.1400       332
    49.1600       350
    49.1800       350
    49.2000       354
    49.2200       380
    49.2400       322
    49.2600       322
    49.2800       318
    49.3000       326
    49.3200       310
    49.3400       304
    49.3600       352
    49.3800       322
    49.4000       336
    49.4200       366
    49.4400       320
    49.4600       322
    49.4800       344
    49.5000       348
    49.5200       334
    49.5400       334
    49.5600       322
    49.5800       346
    49.6000       336
    49.6200       336
    49.6400       358
    49.6600       350
    49.6800       374
    49.7000       360
    49.7200       350
    49.7400       346
    49.7600       372
    49.7800       408
    49.8000       374
    49.8200       402
    49.8400       374
    49.8600       392
    49.8800       410
    49.9000       402
    49.9200       452
    49.9400       466
    49.9600       454
    49.9800       478
    50.0000       450
    50.0200       514
    50.0400       510
    50.0600       510
    50.0800       590
    50.1000       624
    50.1200       608
    50.1400       634
    50.1600       794
    50.1800       796
    50.2000       894
    50.2200      1000
    50.2400      1100
    50.2600      1242
    50.2800      1266
    50.3000      1308
    50.3200      1324
    50.3400      1356
    50.3600      1348
    50.3800      1328
    50.4000      1302
    50.4200      1288
    50.4400      1336
    50.4600      1326
    50.4800      1184
    50.5000      1290
    50.5200      1266
    50.5400      1280
    50.5600      1258
    50.5800      1350
    50.6000      1424
    50.6200      1542
    50.6400      1634
    50.6600      1766
    50.6800      1922
    50.7000      2112
    50.7200      2278
    50.7400      2514
    50.7600      2694
    50.7800      2772
    50.8000      2858
    50.8200      2942
    50.8400      2872
    50.8600      2822
    50.8800      2698
    50.9000      2638
    50.9200      2560
    50.9400      2286
    50.9600      2252
    50.9800      2050
    51.0000      1970
    51.0200      1712
    51.0400      1522
    51.0600      1450
    51.0800      1328
    51.1000      1222
    51.1200      1110
    51.1400      1100
    51.1600      1022
    51.1800      1006
    51.2000       930
    51.2200       908
    51.2400       864
    51.2600       812
    51.2800       816
    51.3000       780
    51.3200       794
    51.3400       774
    51.3600       734
    51.3800       800
    51.4000       700
    51.4200       772
    51.4400       758
    51.4600       788
    51.4800       728
    51.5000       772
    51.5200       764
    51.5400       738
    51.5600       800
    51.5800       778
    51.6000       882
    51.6200       958
    51.6400       892
    51.6600       934
    51.6800       970
    51.7000      1040
    51.7200      1100
    51.7400      1134
    51.7600      1300
    51.7800      1320
    51.8000      1500
    51.8200      1662
    51.8400      1762
    51.8600      1922
    51.8800      2118
    51.9000      2326
    51.9200      2474
    51.9400      2578
    51.9600      2680
    51.9800      2726
    52.0000      2750
    52.0200      2728
    52.0400      2706
    52.0600      2454
    52.0800      2270
    52.1000      2240
    52.1200      2050
    52.1400      1894
    52.1600      1666
    52.1800      1496
    52.2000      1406
    52.2200      1326
    52.2400      1194
    52.2600      1084
    52.2800       984
    52.3000       920
    52.3200       878
    52.3400       846
    52.3600       774
    52.3800       740
    52.4000       808
    52.4200       702
    52.4400       778
    52.4600       744
    52.4800       760
    52.5000       758
    52.5200       750
    52.5400       864
    52.5600       914
    52.5800       874
    52.6000       890
    52.6200       930
    52.6400       994
    52.6600      1068
    52.6800      1056
    52.7000      1160
    52.7200      1112
    52.7400      1200
    52.7600      1212
    52.7800      1178
    52.8000      1156
    52.8200      1170
    52.8400      1162
    52.8600      1064
    52.8800      1036
    52.9000       944
    52.9200       946
    52.9400       890
    52.9600       902
    52.9800       864
    53.0000       836
    53.0200       720
    53.0400       762
    53.0600       694
    53.0800       686
    53.1000       714
    53.1200       708
    53.1400       710
    53.1600       784
    53.1800       748
    53.2000       794
    53.2200       750
    53.2400       816
    53.2600       856
    53.2800       826
    53.3000       894
    53.3200       854
    53.3400       872
    53.3600       936
    53.3800       926
    53.4000       906
    53.4200       838
    53.4400       812
    53.4600       832
    53.4800       786
    53.5000       810
    53.5200       762
    53.5400       736
    53.5600       794
    53.5800       746
    53.6000       726
    53.6200       674
    53.6400       690
    53.6600       706
    53.6800       626
    53.7000       652
    53.7200       664
    53.7400       618
    53.7600       650
    53.7800       612
    53.8000       598
    53.8200       594
    53.8400       544
    53.8600       586
    53.8800       580
    53.9000       564
    53.9200       550
    53.9400       550
    53.9600       510
    53.9800       602
    54.0000       546
    54.0200       514
    54.0400       540
    54.0600       588
    54.0800       538
    54.1000       570
    54.1200       596
    54.1400       630
    54.1600       650
    54.1800       692
    54.2000       706
    54.2200       718
    54.2400       740
    54.2600       790
    54.2800       830
    54.3000       800
    54.3200       872
    54.3400       906
    54.3600       960
    54.3800       946
    54.4000       984
    54.4200       974
    54.4400      1006
    54.4600       976
    54.4800      1030
    54.5000      1008
    54.5200       998
    54.5400       980
    54.5600       942
    54.5800       906
    54.6000       874
    54.6200       852
    54.6400       856
    54.6600       838
    54.6800       800
    54.7000       764
    54.7200       770
    54.7400       828
    54.7600       716
    54.7800       746
    54.8000       778
    54.8200       762
    54.8400       700
    54.8600       702
    54.8800       754
    54.9000       718
    54.9200       736
    54.9400       734
    54.9600       742
    54.9800       788
    55.0000       808
    55.0200       830
    55.0400       836
    55.0600       884
    55.0800       932
    55.1000      1010
    55.1200      1090
    55.1400      1028
    55.1600      1160
    55.1800      1056
    55.2000      1094
    55.2200      1084
    55.2400      1078
    55.2600      1060
    55.2800      1018
    55.3000       958
    55.3200      1020
    55.3400      1002
    55.3600       970
    55.3800       878
    55.4000       886
    55.4200       816
    55.4400       844
    55.4600       682
    55.4800       682
    55.5000       650
    55.5200       650
    55.5400       624
    55.5600       608
    55.5800       538
    55.6000       570
    55.6200       526
    55.6400       446
    55.6600       472
    55.6800       436
    55.7000       478
    55.7200       474
    55.7400       436
    55.7600       418
    55.7800       404
    55.8000       368
    55.8200       432
    55.8400       426
    55.8600       394
    55.8800       386
    55.9000       410
    55.9200       344
    55.9400       330
    55.9600       362
    55.9800       352
    56.0000       342
    56.0200       336
    56.0400       374
    56.0600       366
    56.0800       388
    56.1000       340
    56.1200       328
    56.1400       348
    56.1600       358
    56.1800       362
    56.2000       346
    56.2200       386
    56.2400       386
    56.2600       378
    56.2800       390
    56.3000       398
    56.3200       364
    56.3400       386
    56.3600       380
    56.3800       416
    56.4000       390
    56.4200       388
    56.4400       448
    56.4600       468
    56.4800       424
    56.5000       470
    56.5200       478
    56.5400       506
    56.5600       500
    56.5800       534
    56.6000       564
    56.6200       568
    56.6400       642
    56.6600       660
    56.6800       740
    56.7000       748
    56.7200       800
    56.7400       816
    56.7600       896
    56.7800       850
    56.8000       840
    56.8200       868
    56.8400       862
    56.8600       790
    56.8800       804
    56.9000       750
    56.9200       754
    56.9400       688
    56.9600       658
    56.9800       640
    57.0000       618
    57.0200       602
    57.0400       550
    57.0600       528
    57.0800       510
    57.1000       522
    57.1200       494
    57.1400       482
    57.1600       482
    57.1800       522
    57.2000       528
    57.2200       566
    57.2400       520
    57.2600       580
    57.2800       572
    57.3000       676
    57.3200       632
    57.3400       640
    57.3600       668
    57.3800       728
    57.4000       700
    57.4200       708
    57.4400       820
    57.4600       792
    57.4800       806
    57.5000       846
    57.5200       824
    57.5400       772
    57.5600       738
    57.5800       812
    57.6000       762
    57.6200       764
    57.6400       778
    57.6600       794
    57.6800       758
    57.7000       762
    57.7200       782
    57.7400       806
    57.7600       810
    57.7800       850
    57.8000       816
    57.8200       832
    57.8400       830
    57.8600       826
    57.8800       806
    57.9000       790
    57.9200       756
    57.9400       746
    57.9600       704
    57.9800       694
    58.0000       704
    58.0200       692
    58.0400       680
    58.0600       676
    58.0800       610
    58.1000       596
    58.1200       618
    58.1400       614
    58.1600       578
    58.1800       620
    58.2000       640
    58.2200       672
    58.2400       706
    58.2600       660
    58.2800       688
    58.3000       742
    58.3200       686
    58.3400       682
    58.3600       720
    58.3800       724
    58.4000       744
    58.4200       800
    58.4400       860
    58.4600       930
    58.4800       962
    58.5000      1020
    58.5200      1010
    58.5400      1090
    58.5600      1130
    58.5800      1132
    58.6000      1242
    58.6200      1292
    58.6400      1312
    58.6600      1424
    58.6800      1384
    58.7000      1390
    58.7200      1538
    58.7400      1582
    58.7600      1614
    58.7800      1594
    58.8000      1630
    58.8200      1618
    58.8400      1558
    58.8600      1522
    58.8800      1484
    58.9000      1498
    58.9200      1426
    58.9400      1444
    58.9600      1376
    58.9800      1316
    59.0000      1316
    59.0200      1164
    59.0400      1244
    59.0600      1228
    59.0800      1148
    59.1000      1200
    59.1200      1116
    59.1400      1140
    59.1600      1172
    59.1800      1154
    59.2000      1178
    59.2200      1220
    59.2400      1328
    59.2600      1372
    59.2800      1516
    59.3000      1558
    59.3200      1704
    59.3400      1850
    59.3600      1912
    59.3800      2104
    59.4000      2252
    59.4200      2304
    59.4400      2340
    59.4600      2486
    59.4800      2398
    59.5000      2396
    59.5200      2410
    59.5400      2250
    59.5600      2166
    59.5800      2110
    59.6000      2064
    59.6200      1928
    59.6400      1940
    59.6600      1806
    59.6800      1636
    59.7000      1598
    59.7200      1486
    59.7400      1446
    59.7600      1358
    59.7800      1244
    59.8000      1218
    59.8200      1168
    59.8400      1138
    59.8600       994
    59.8800       974
    59.9000       924
    59.9200       916
    59.9400       850
    59.9600       846
    59.9800       746
    60.0000       718
    60.0200       690
    60.0400       642
    60.0600       644
    60.0800       646
    60.1000       580
    60.1200       560
    60.1400       554
    60.1600       538
    60.1800       480
    60.2000       496
    60.2200       508
    60.2400       450
    60.2600       454
    60.2800       416
    60.3000       384
    60.3200       414
    60.3400       422
    60.3600       404
    60.3800       392
    60.4000       430
    60.4200       382
    60.4400       380
    60.4600       390
    60.4800       416
    60.5000       388
    60.5200       388
    60.5400       396
    60.5600       390
    60.5800       410
    60.6000       400
    60.6200       388
    60.6400       398
    60.6600       398
    60.6800       396
    60.7000       386
    60.7200       380
    60.7400       412
    60.7600       404
    60.7800       412
    60.8000       390
    60.8200       432
    60.8400       430
    60.8600       448
    60.8800       450
    60.9000       456
    60.9200       434
    60.9400       438
    60.9600       454
    60.9800       484
    61.0000       528
    61.0200       554
    61.0400       578
    61.0600       520
    61.0800       610
    61.1000       588
    61.1200       616
    61.1400       710
    61.1600       684
    61.1800       700
    61.2000       802
    61.2200       844
    61.2400       810
    61.2600       894
    61.2800       958
    61.3000       978
    61.3200      1036
    61.3400      1070
    61.3600      1116
    61.3800      1216
    61.4000      1264
    61.4200      1372
    61.4400      1434
    61.4600      1476
    61.4800      1596
    61.5000      1724
    61.5200      1770
    61.5400      1804
    61.5600      1862
    61.5800      1902
    61.6000      1958
    61.6200      1936
    61.6400      1810
    61.6600      1808
    61.6800      1680
    61.7000      1640
    61.7200      1544
    61.7400      1444
    61.7600      1444
    61.7800      1312
    61.8000      1284
    61.8200      1150
    61.8400      1146
    61.8600       976
    61.8800       894
    61.9000       860
    61.9200       846
    61.9400       826
    61.9600       712
    61.9800       690
    62.0000       624
    62.0200       656
    62.0400       576
    62.0600       632
    62.0800       562
    62.1000       554
    62.1200       538
    62.1400       566
    62.1600       544
    62.1800       526
    62.2000       516
    62.2200       446
    62.2400       446
    62.2600       462
    62.2800       448
    62.3000       446
    62.3200       456
    62.3400       464
    62.3600       438
    62.3800       430
    62.4000       466
    62.4200       444
    62.4400       438
    62.4600       394
    62.4800       448
    62.5000       400
    62.5200       380
    62.5400       380
    62.5600       410
    62.5800       378
    62.6000       382
    62.6200       398
    62.6400       402
    62.6600       418
    62.6800       386
    62.7000       404
    62.7200       364
    62.7400       382
    62.7600       402
    62.7800       376
    62.8000       388
    62.8200       380
    62.8400       374
    62.8600       382
    62.8800       358
    62.9000       364
    62.9200       370
    62.9400       356
    62.9600       322
    62.9800       328
    63.0000       306
    63.0200       294
    63.0400       280
    63.0600       306
    63.0800       294
    63.1000       308
    63.1200       310
    63.1400       302
    63.1600       306
    63.1800       298
    63.2000       304
    63.2200       264
    63.2400       302
    63.2600       304
    63.2800       298
    63.3000       312
    63.3200       286
    63.3400       280
    63.3600       326
    63.3800       284
    63.4000       302
    63.4200       344
    63.4400       336
    63.4600       344
    63.4800       364
    63.5000       340
    63.5200       342
    63.5400       364
    63.5600       426
    63.5800       454
    63.6000       422
    63.6200       450
    63.6400       496
    63.6600       472
    63.6800       558
    63.7000       568
    63.7200       624
    63.7400       600
    63.7600       656
    63.7800       754
    63.8000       786
    63.8200       834
    63.8400       862
    63.8600       864
    63.8800       932
    63.9000       984
    63.9200       922
    63.9400      1022
    63.9600       954
    63.9800       902
    64.0000       952
    64.0200       838
    64.0400       846
    64.0600       850
    64.0800       794
    64.1000       810
    64.1200       716
    64.1400       744
    64.1600       688
    64.1800       544
    64.2000       584
    64.2200       564
    64.2400       510
    64.2600       466
    64.2800       436
    64.3000       424
    64.3200       474
    64.3400       412
    64.3600       372
    64.3800       408
    64.4000       370
    64.4200       312
    64.4400       312
    64.4600       346
    64.4800       344
    64.5000       336
    64.5200       310
    64.5400       272
    64.5600       302
    64.5800       260
    64.6000       294
    64.6200       298
    64.6400       308
    64.6600       312
    64.6800       284
    64.7000       298
    64.7200       304
    64.7400       278
    64.7600       304
    64.7800       318
    64.8000       290
    64.8200       306
    64.8400       296
    64.8600       354
    64.8800       326
    64.9000       334
    64.9200       340
    64.9400       312
    64.9600       338
    64.9800       382
    65.0000       334
    65.0200       374
    65.0400       384
    65.0600       364
    65.0800       392
    65.1000       386
    65.1200       368
    65.1400       378
    65.1600       408
    65.1800       380
    65.2000       384
    65.2200       420
    65.2400       434
    65.2600       404
    65.2800       420
    65.3000       396
    65.3200       442
    65.3400       406
    65.3600       376
    65.3800       386
    65.4000       404
    65.4200       400
    65.4400       408
    65.4600       400
    65.4800       368
    65.5000       432
    65.5200       452
    65.5400       412
    65.5600       432
    65.5800       422
    65.6000       456
    65.6200       418
    65.6400       430
    65.6600       440
    65.6800       468
    65.7000       388
    65.7200       444
    65.7400       408
    65.7600       392
    65.7800       342
    65.8000       360
    65.8200       326
    65.8400       360
    65.8600       316
    65.8800       352
    65.9000       314
    65.9200       298
    65.9400       316
    65.9600       312
    65.9800       308
    66.0000       294
    66.0200       294
    66.0400       300
    66.0600       264
    66.0800       306
    66.1000       286
    66.1200       246
    66.1400       272
    66.1600       284
    66.1800       296
    66.2000       308
    66.2200       290
    66.2400       298
    66.2600       300
    66.2800       312
    66.3000       310
    66.3200       302
    66.3400       318
    66.3600       286
    66.3800       298
    66.4000       320
    66.4200       366
    66.4400       382
    66.4600       378
    66.4800       354
    66.5000       384
    66.5200       368
    66.5400       364
    66.5600       380
    66.5800       376
    66.6000       410
    66.6200       418
    66.6400       406
    66.6600       424
    66.6800       444
    66.7000       430
    66.7200       500
    66.7400       474
    66.7600       504
    66.7800       488
    66.8000       552
    66.8200       574
    66.8400       610
    66.8600       568
    66.8800       640
    66.9000       716
    66.9200       674
    66.9400       638
    66.9600       728
    66.9800       724
    67.0000       724
    67.0200       722
    67.0400       634
    67.0600       664
    67.0800       678
    67.1000       646
    67.1200       666
    67.1400       648
    67.1600       590
    67.1800       582
    67.2000       540
    67.2200       522
    67.2400       496
    67.2600       462
    67.2800       460
    67.3000       452
    67.3200       442
    67.3400       466
    67.3600       422
    67.3800       400
    67.4000       390
    67.4200       350
    67.4400       374
    67.4600       344
    67.4800       344
    67.5000       306
    67.5200       328
    67.5400       340
    67.5600       288
    67.5800       278
    67.6000       302
    67.6200       294
    67.6400       336
    67.6600       290
    67.6800       324
    67.7000       332
    67.7200       330
    67.7400       322
    67.7600       316
    67.7800       330
    67.8000       314
    67.8200       362
    67.8400       330
    67.8600       340
    67.8800       334
    67.9000       368
    67.9200       328
    67.9400       358
    67.9600       376
    67.9800       398
    68.0000       410
    68.0200       400
    68.0400       406
    68.0600       448
    68.0800       506
    68.1000       468
    68.1200       510
    68.1400       560
    68.1600       526
    68.1800       538
    68.2000       574
    68.2200       646
    68.2400       610
    68.2600       602
    68.2800       632
    68.3000       596
    68.3200       704
    68.3400       626
    68.3600       692
    68.3800       706
    68.4000       640
    68.4200       664
    68.4400       656
    68.4600       618
    68.4800       618
    68.5000       642
    68.5200       588
    68.5400       600
    68.5600       574
    68.5800       612
    68.6000       556
    68.6200       602
    68.6400       570
    68.6600       516
    68.6800       510
    68.7000       486
    68.7200       472
    68.7400       434
    68.7600       434
    68.7800       436
    68.8000       414
    68.8200       418
    68.8400       384
    68.8600       408
    68.8800       394
    68.9000       382
    68.9200       378
    68.9400       422
    68.9600       382
    68.9800       372
    69.0000       398
    69.0200       396
    69.0400       432
    69.0600       418
    69.0800       408
    69.1000       428
    69.1200       416
    69.1400       460
    69.1600       434
    69.1800       430
    69.2000       440
    69.2200       412
    69.2400       420
    69.2600       410
    69.2800       412
    69.3000       402
    69.3200       396
    69.3400       492
    69.3600       436
    69.3800       442
    69.4000       442
    69.4200       402
    69.4400       444
    69.4600       462
    69.4800       438
    69.5000       390
    69.5200       406
    69.5400       446
    69.5600       454
    69.5800       434
    69.6000       446
    69.6200       440
    69.6400       468
    69.6600       428
    69.6800       452
    69.7000       512
    69.7200       478
    69.7400       468
    69.7600       430
    69.7800       478
    69.8000       502
    69.8200       522
    69.8400       518
    69.8600       518
    69.8800       536
    69.9000       510
    69.9200       526
    69.9400       518
    69.9600       486
    69.9800       434
    70.0000       502
    70.0200       428
    70.0400       456
    70.0600       462
    70.0800       436
    70.1000       416
    70.1200       432
    70.1400       436
    70.1600       404
    70.1800       428
    70.2000       378
    70.2200       362
    70.2400       384
    70.2600       336
    70.2800       300
    70.3000       282
    70.3200       318
    70.3400       318
    70.3600       290
    70.3800       290
    70.4000       288
    70.4200       292
    70.4400       276
    70.4600       272
    70.4800       256
    70.5000       248
    70.5200       258
    70.5400       272
    70.5600       248
    70.5800       222
    70.6000       244
    70.6200       226
    70.6400       252
    70.6600       260
    70.6800       272
    70.7000       230
    70.7200       218
    70.7400       238
    70.7600       204
    70.7800       220
    70.8000       230
    70.8200       216
    70.8400       262
    70.8600       236
    70.8800       210
    70.9000       238
    70.9200       206
    70.9400       226
    70.9600       220
    70.9800       262
    71.0000       254
    71.0200       210
    71.0400       210
    71.0600       214
    71.0800       208
    71.1000       218
    71.1200       222
    71.1400       250
    71.1600       226
    71.1800       260
    71.2000       260
    71.2200       250
    71.2400       232
    71.2600       234
    71.2800       244
    71.3000       274
    71.3200       254
    71.3400       274
    71.3600       256
    71.3800       260
    71.4000       292
    71.4200       330
    71.4400       296
    71.4600       322
    71.4800       360
    71.5000       334
    71.5200       356
    71.5400       354
    71.5600       366
    71.5800       382
    71.6000       406
    71.6200       402
    71.6400       392
    71.6600       386
    71.6800       414
    71.7000       416
    71.7200       418
    71.7400       412
    71.7600       374
    71.7800       390
    71.8000       414
    71.8200       384
    71.8400       388
    71.8600       332
    71.8800       352
    71.9000       382
    71.9200       372
    71.9400       386
    71.9600       332
    71.9800       352
    72.0000       344
    72.0200       368
    72.0400       382
    72.0600       344
    72.0800       372
    72.1000       344
    72.1200       360
    72.1400       346
    72.1600       354
    72.1800       312
    72.2000       346
    72.2200       342
    72.2400       372
    72.2600       368
    72.2800       404
    72.3000       414
    72.3200       412
    72.3400       382
    72.3600       416
    72.3800       450
    72.4000       442
    72.4200       462
    72.4400       484
    72.4600       486
    72.4800       488
    72.5000       514
    72.5200       540
    72.5400       594
    72.5600       530
    72.5800       646
    72.6000       596
    72.6200       636
    72.6400       602
    72.6600       622
    72.6800       616
    72.7000       686
    72.7200       668
    72.7400       696
    72.7600       736
    72.7800       724
    72.8000       740
    72.8200       724
    72.8400       754
    72.8600       724
    72.8800       684
    72.9000       698
    72.9200       728
    72.9400       648
    72.9600       682
    72.9800       630
    73.0000       606
    73.0200       566
    73.0400       576
    73.0600       554
    73.0800       552
    73.1000       568
    73.1200       496
    73.1400       504
    73.1600       434
    73.1800       472
    73.2000       416
    73.2200       386
    73.2400       376
    73.2600       370
    73.2800       364
    73.3000       344
    73.3200       334
    73.3400       318
    73.3600       264
    73.3800       290
    73.4000       242
    73.4200       246
    73.4400       250
    73.4600       278
    73.4800       266
    73.5000       256
    73.5200       294
    73.5400       264
    73.5600       280
    73.5800       246
    73.6000       232
    73.6200       278
    73.6400       242
    73.6600       262
    73.6800       260
    73.7000       238
    73.7200       264
    73.7400       266
    73.7600       276
    73.7800       242
    73.8000       248
    73.8200       254
    73.8400       278
    73.8600       270
    73.8800       248
    73.9000       254
    73.9200       292
    73.9400       270
    73.9600       272
    73.9800       290
    74.0000       254
    74.0200       270
    74.0400       262
    74.0600       248
    74.0800       260
    74.1000       272
    74.1200       236
    74.1400       272
    74.1600       276
    74.1800       258
    74.2000       252
    74.2200       238
    74.2400       260
    74.2600       236
    74.2800       244
    74.3000       268
    74.3200       250
    74.3400       238
    74.3600       218
    74.3800       240
    74.4000       228
    74.4200       252
    74.4400       218
    74.4600       214
    74.4800       226
    74.5000       226
    74.5200       208
    74.5400       200
    74.5600       200
    74.5800       226
    74.6000       206
    74.6200       202
    74.6400       192
    74.6600       206
    74.6800       218
    74.7000       192
    74.7200       214
    74.7400       208
    74.7600       194
    74.7800       218
    74.8000       216
    74.8200       178
    74.8400       208
    74.8600       192
    74.8800       208
    74.9000       202
    74.9200       186
    74.9400       202
    74.9600       190
    74.9800       200
    75.0000       200
    75.0200       234
    75.0400       230
    75.0600       214
    75.0800       208
    75.1000       204
    75.1200       236
    75.1400       230
    75.1600       258
    75.1800       250
    75.2000       254
    75.2200       250
    75.2400       252
    75.2600       242
    75.2800       258
    75.3000       244
    75.3200       250
    75.3400       264
    75.3600       232
    75.3800       278
    75.4000       284
    75.4200       262
    75.4400       268
    75.4600       262
    75.4800       304
    75.5000       270
    75.5200       286
    75.5400       298
    75.5600       306
    75.5800       292
    75.6000       288
    75.6200       296
    75.6400       314
    75.6600       344
    75.6800       340
    75.7000       322
    75.7200       314
    75.7400       328
    75.7600       326
    75.7800       316
    75.8000       374
    75.8200       302
    75.8400       360
    75.8600       330
    75.8800       334
    75.9000       296
    75.9200       306
    75.9400       284
    75.9600       306
    75.9800       300
    76.0000       308
    76.0200       270
    76.0400       292
    76.0600       258
    76.0800       310
    76.1000       270
    76.1200       268
    76.1400       284
    76.1600       276
    76.1800       284
    76.2000       310
    76.2200       276
    76.2400       292
    76.2600       328
    76.2800       270
    76.3000       322
    76.3200       302
    76.3400       262
    76.3600       322
    76.3800       296
    76.4000       312
    76.4200       336
    76.4400       310
    76.4600       372
    76.4800       394
    76.5000       388
    76.5200       406
    76.5400       378
    76.5600       420
    76.5800       416
    76.6000       416
    76.6200       418
    76.6400       414
    76.6600       382
    76.6800       414
    76.7000       406
    76.7200       412
    76.7400       378
    76.7600       396
    76.7800       378
    76.8000       376
    76.8200       386
    76.8400       408
    76.8600       378
    76.8800       386
    76.9000       364
    76.9200       332
    76.9400       340
    76.9600       376
    76.9800       342
    77.0000       344
    77.0200       346
    77.0400       324
    77.0600       314
    77.0800       342
    77.1000       358
    77.1200       344
    77.1400       352
    77.1600       336
    77.1800       332
    77.2000       338
    77.2200       372
    77.2400       344
    77.2600       406
    77.2800       380
    77.3000       388
    77.3200       370
    77.3400       380
    77.3600       384
    77.3800       390
    77.4000       360
    77.4200       392
    77.4400       372
    77.4600       392
    77.4800       402
    77.5000       374
    77.5200       400
    77.5400       376
    77.5600       406
    77.5800       436
    77.6000       426
    77.6200       430
    77.6400       432
    77.6600       416
    77.6800       442
    77.7000       458
    77.7200       446
    77.7400       474
    77.7600       508
    77.7800       472
    77.8000       500
    77.8200       502
    77.8400       528
    77.8600       518
    77.8800       518
    77.9000       432
    77.9200       478
    77.9400       490
    77.9600       466
    77.9800       436
    78.0000       432
    78.0200       440
    78.0400       434
    78.0600       454
    78.0800       414
    78.1000       426
    78.1200       396
    78.1400       386
    78.1600       406
    78.1800       366
    78.2000       380
    78.2200       334
    78.2400       342
    78.2600       310
    78.2800       328
    78.3000       310
    78.3200       344
    78.3400       344
    78.3600       370
    78.3800       310
    78.4000       328
    78.4200       328
    78.4400       346
    78.4600       324
    78.4800       338
    78.5000       346
    78.5200       364
    78.5400       360
    78.5600       346
    78.5800       354
    78.6000       368
    78.6200       380
    78.6400       404
    78.6600       346
    78.6800       372
    78.7000       418
    78.7200       390
    78.7400       360
    78.7600       442
    78.7800       404
    78.8000       354
    78.8200       390
    78.8400       368
    78.8600       400
    78.8800       368
    78.9000       372
    78.9200       368
    78.9400       374
    78.9600       352
    78.9800       376
    79.0000       318
    79.0200       346
    79.0400       316
    79.0600       326
    79.0800       310
    79.1000       322
    79.1200       294
    79.1400       294
    79.1600       288
    79.1800       294
    79.2000       288
    79.2200       300
    79.2400       292
    79.2600       316
    79.2800       284
    79.3000       278
    79.3200       298
    79.3400       230
    79.3600       268
    79.3800       278
    79.4000       250
    79.4200       282
    79.4400       230
    79.4600       232
    79.4800       280
    79.5000       240
    79.5200       286
    79.5400       230
    79.5600       248
    79.5800       236
    79.6000       256
    79.6200       238
    79.6400       256
    79.6600       250
    79.6800       250
    79.7000       216
    79.7200       252
    79.7400       226
    79.7600       242
    79.7800       230
    79.8000       254
    79.8200       214
    79.8400       250
    79.8600       260
    79.8800       252
    79.9000       260
    79.9200       228
    79.9400       238
    79.9600       236
    79.9800       232
    80.0000       244
    80.0200       254
    80.0400       250
    80.0600       272
    80.0800       236
    80.1000       270
    80.1200       244
    80.1400       236
    80.1600       244
    80.1800       246
    80.2000       244
    80.2200       250
    80.2400       234
    80.2600       246
    80.2800       246
    80.3000       254
    80.3200       236
    80.3400       260
    80.3600       256
    80.3800       248
    80.4000       258
    80.4200       284
    80.4400       284
    80.4600       272
    80.4800       258
    80.5000       274
    80.5200       280
    80.5400       248
    80.5600       304
    80.5800       294
    80.6000       256
    80.6200       274
    80.6400       250
    80.6600       288
    80.6800       280
    80.7000       254
    80.7200       274
    80.7400       262
    80.7600       270
    80.7800       272
    80.8000       242
    80.8200       266
    80.8400       244
    80.8600       268
    80.8800       256
    80.9000       252
    80.9200       228
    80.9400       226
    80.9600       228
    80.9800       232
    81.0000       220
    81.0200       238
    81.0400       210
    81.0600       220
    81.0800       212
    81.1000       214
    81.1200       196
    81.1400       240
    81.1600       234
    81.1800       208
    81.2000       212
    81.2200       234
    81.2400       228
    81.2600       240
    81.2800       236
    81.3000       262
    81.3200       218
    81.3400       248
    81.3600       248
    81.3800       214
    81.4000       246
    81.4200       234
    81.4400       244
    81.4600       248
    81.4800       276
    81.5000       250
    81.5200       238
    81.5400       238
    81.5600       246
    81.5800       260
    81.6000       228
    81.6200       260
    81.6400       264
    81.6600       272
    81.6800       270
    81.7000       254
    81.7200       280
    81.7400       282
    81.7600       292
    81.7800       272
    81.8000       294
    81.8200       326
    81.8400       286
    81.8600       304
    81.8800       318
    81.9000       318
    81.9200       312
    81.9400       332
    81.9600       336
    81.9800       342
    82.0000       342
    82.0200       350
    82.0400       328
    82.0600       356
    82.0800       342
    82.1000       324
    82.1200       364
    82.1400       356
    82.1600       382
    82.1800       398
    82.2000       364
    82.2200       376
    82.2400       348
    82.2600       362
    82.2800       398
    82.3000       390
    82.3200       370
    82.3400       396
    82.3600       402
    82.3800       402
    82.4000       386
    82.4200       450
    82.4400       444
    82.4600       506
    82.4800       484
    82.5000       482
    82.5200       470
    82.5400       504
    82.5600       536
    82.5800       534
    82.6000       564
    82.6200       576
    82.6400       594
    82.6600       626
    82.6800       624
    82.7000       682
    82.7200       646
    82.7400       762
    82.7600       734
    82.7800       776
    82.8000       822
    82.8200       854
    82.8400       920
    82.8600       830
    82.8800       932
    82.9000       952
    82.9200       928
    82.9400       900
    82.9600       878
    82.9800       914
    83.0000       866
    83.0200       870
    83.0400       838
    83.0600       822
    83.0800       816
    83.1000       836
    83.1200       772
    83.1400       748
    83.1600       726
    83.1800       714
    83.2000       660
    83.2200       692
    83.2400       640
    83.2600       592
    83.2800       582
    83.3000       580
    83.3200       520
    83.3400       510
    83.3600       458
    83.3800       440
    83.4000       506
    83.4200       442
    83.4400       458
    83.4600       422
    83.4800       412
    83.5000       400
    83.5200       400
    83.5400       386
    83.5600       378
    83.5800       388
    83.6000       338
    83.6200       372
    83.6400       350
    83.6600       342
    83.6800       308
    83.7000       328
    83.7200       336
    83.7400       324
    83.7600       316
    83.7800       304
    83.8000       350
    83.8200       312
    83.8400       310
    83.8600       308
    83.8800       302
    83.9000       298
    83.9200       308
    83.9400       302
    83.9600       320
    83.9800       318
    84.0000       332
    84.0200       296
    84.0400       318
    84.0600       332
    84.0800       350
    84.1000       340
    84.1200       304
    84.1400       342
    84.1600       314
    84.1800       314
    84.2000       360
    84.2200       338
    84.2400       352
    84.2600       360
    84.2800       336
    84.3000       362
    84.3200       326
    84.3400       336
    84.3600       342
    84.3800       338
    84.4000       306
    84.4200       366
    84.4400       386
    84.4600       352
    84.4800       344
    84.5000       304
    84.5200       350
    84.5400       314
    84.5600       346
    84.5800       314
    84.6000       340
    84.6200       274
    84.6400       332
    84.6600       328
    84.6800       332
    84.7000       348
    84.7200       336
    84.7400       326
    84.7600       330
    84.7800       326
    84.8000       318
    84.8200       354
    84.8400       316
    84.8600       304
    84.8800       286
    84.9000       260
    84.9200       320
    84.9400       286
    84.9600       302
    84.9800       314
    85.0000       280
    85.0200       280
    85.0400       290
    85.0600       278
    85.0800       282
    85.1000       306
    85.1200       266
    85.1400       294
    85.1600       280
    85.1800       292
    85.2000       270
    85.2200       260
    85.2400       264
    85.2600       276
    85.2800       278
    85.3000       272
    85.3200       268
    85.3400       286
    85.3600       276
    85.3800       250
    85.4000       288
    85.4200       296
    85.4400       282
    85.4600       254
    85.4800       248
    85.5000       256
    85.5200       252
    85.5400       282
    85.5600       266
    85.5800       270
    85.6000       274
    85.6200       264
    85.6400       226
    85.6600       284
    85.6800       274
    85.7000       302
    85.7200       298
    85.7400       290
    85.7600       290
    85.7800       254
    85.8000       276
    85.8200       296
    85.8400       286
    85.8600       302
    85.8800       274
    85.9000       286
    85.9200       278
    85.9400       260
    85.9600       276
    85.9800       266
    86.0000       248
    86.0200       314
    86.0400       248
    86.0600       272
    86.0800       266
    86.1000       302
    86.1200       242
    86.1400       250
    86.1600       276
    86.1800       278
    86.2000       232
    86.2200       232
    86.2400       300
    86.2600       256
    86.2800       264
    86.3000       292
    86.3200       222
    86.3400       262
    86.3600       272
    86.3800       270
    86.4000       292
    86.4200       240
    86.4400       268
    86.4600       302
    86.4800       288
    86.5000       294
    86.5200       302
    86.5400       266
    86.5600       304
    86.5800       274
    86.6000       276
    86.6200       326
    86.6400       292
    86.6600       322
    86.6800       304
    86.7000       372
    86.7200       354
    86.7400       332
    86.7600       376
    86.7800       354
    86.8000       364
    86.8200       366
    86.8400       424
    86.8600       406
    86.8800       392
    86.9000       410
    86.9200       418
    86.9400       360
    86.9600       404
    86.9800       388
    87.0000       386
    87.0200       382
    87.0400       424
    87.0600       408
    87.0800       382
    87.1000       378
    87.1200       396
    87.1400       378
    87.1600       416
    87.1800       358
    87.2000       382
    87.2200       394
    87.2400       384
    87.2600       328
    87.2800       356
    87.3000       392
    87.3200       370
    87.3400       344
    87.3600       384
    87.3800       354
    87.4000       336
    87.4200       376
    87.4400       370
    87.4600       396
    87.4800       374
    87.5000       400
    87.5200       354
    87.5400       398
    87.5600       398
    87.5800       404
    87.6000       438
    87.6200       424
    87.6400       396
    87.6600       448
    87.6800       466
    87.7000       458
    87.7200       418
    87.7400       414
    87.7600       432
    87.7800       452
    87.8000       444
    87.8200       452
    87.8400       438
    87.8600       414
    87.8800       460
    87.9000       420
    87.9200       440
    87.9400       396
    87.9600       434
    87.9800       448
    88.0000       418
    88.0200       388
    88.0400       404
    88.0600       408
    88.0800       388
    88.1000       390
    88.1200       396
    88.1400       412
    88.1600       416
    88.1800       400
    88.2000       384
    88.2200       390
    88.2400       404
    88.2600       382
    88.2800       402
    88.3000       404
    88.3200       382
    88.3400       410
    88.3600       404
    88.3800       414
    88.4000       394
    88.4200       404
    88.4400       408
    88.4600       354
    88.4800       402
    88.5000       338
    88.5200       336
    88.5400       344
    88.5600       340
    88.5800       364
    88.6000       338
    88.6200       324
    88.6400       300
    88.6600       336
    88.6800       332
    88.7000       314
    88.7200       312
    88.7400       318
    88.7600       278
    88.7800       270
    88.8000       292
    88.8200       278
    88.8400       306
    88.8600       284
    88.8800       260
    88.9000       230
    88.9200       244
    88.9400       256
    88.9600       258
    88.9800       254
    89.0000       282
    89.0200       250
    89.0400       248
    89.0600       258
    89.0800       242
    89.1000       250
    89.1200       246
    89.1400       232
    89.1600       240
    89.1800       266
    89.2000       234
    89.2200       256
    89.2400       240
    89.2600       280
    89.2800       210
    89.3000       240
    89.3200       248
    89.3400       242
    89.3600       236
    89.3800       214
    89.4000       246
    89.4200       212
    89.4400       270
    89.4600       258
    89.4800       264
    89.5000       256
    89.5200       262
    89.5400       250
    89.5600       264
    89.5800       260
    89.6000       264
    89.6200       250
    89.6400       264
    89.6600       268
    89.6800       312
    89.7000       288
    89.7200       274
    89.7400       298
    89.7600       286
    89.7800       300
    89.8000       252
    89.8200       298
    89.8400       296
    89.8600       284
    89.8800       296
    89.9000       304
    89.9200       314
    89.9400       304
    89.9600       284
    89.9800       258
    90.0000       268
