    10.0000       368
    10.0200       376
    10.0400       362
    10.0600       398
    10.0800       374
    10.1000       346
    10.1200       372
    10.1400       386
    10.1600       338
    10.1800       378
    10.2000       352
    10.2200       350
    10.2400       358
    10.2600       346
    10.2800       360
    10.3000       346
    10.3200       370
    10.3400       346
    10.3600       356
    10.3800       358
    10.4000       326
    10.4200       372
    10.4400       340
    10.4600       364
    10.4800       312
    10.5000       352
    10.5200       360
    10.5400       342
    10.5600       370
    10.5800       354
    10.6000       318
    10.6200       324
    10.6400       372
    10.6600       346
    10.6800       362
    10.7000       320
    10.7200       360
    10.7400       328
    10.7600       316
    10.7800       320
    10.8000       342
    10.8200       298
    10.8400       350
    10.8600       352
    10.8800       330
    10.9000       350
    10.9200       338
    10.9400       342
    10.9600       322
    10.9800       304
    11.0000       318
    11.0200       338
    11.0400       310
    11.0600       346
    11.0800       330
    11.1000       348
    11.1200       334
    11.1400       348
    11.1600       340
    11.1800       318
    11.2000       310
    11.2200       338
    11.2400       316
    11.2600       330
    11.2800       328
    11.3000       330
    11.3200       336
    11.3400       304
    11.3600       352
    11.3800       278
    11.4000       326
    11.4200       362
    11.4400       332
    11.4600       310
    11.4800       316
    11.5000       326
    11.5200       330
    11.5400       352
    11.5600       342
    11.5800       330
    11.6000       310
    11.6200       334
    11.6400       300
    11.6600       326
    11.6800       320
    11.7000       338
    11.7200       332
    11.7400       314
    11.7600       348
    11.7800       336
    11.8000       336
    11.8200       338
    11.8400       344
    11.8600       356
    11.8800       364
    11.9000       370
    11.9200       374
    11.9400       378
    11.9600       372
    11.9800       382
    12.0000       424
    12.0200       416
    12.0400       416
    12.0600       458
    12.0800       498
    12.1000       472
    12.1200       542
    12.1400       582
    12.1600       618
    12.1800       616
    12.2000       652
    12.2200       630
    12.2400       594
    12.2600       518
    12.2800       530
    12.3000       442
    12.3200       356
    12.3400       364
    12.3600       328
    12.3800       322
    12.4000       348
    12.4200       328
    12.4400       332
    12.4600       278
    12.4800       298
    12.5000       334
    12.5200       296
    12.5400       308
    12.5600       330
    12.5800       280
    12.6000       304
    12.6200       304
    12.6400       308
    12.6600       326
    12.6800       274
    12.7000       294
    12.7200       306
    12.7400       306
    12.7600       314
    12.7800       282
    12.8000       292
    12.8200       310
    12.8400       318
    12.8600       328
    12.8800       300
    12.9000       278
    12.9200       286
    12.9400       306
    12.9600       248
    12.9800       306
    13.0000       290
    13.0200       256
    13.0400       300
    13.0600       282
    13.0800       300
    13.1000       322
    13.1200       304
    13.1400       278
    13.1600       284
    13.1800       274
    13.2000       296
    13.2200       280
    13.2400       280
    13.2600       280
    13.2800       282
    13.3000       246
    13.3200       282
    13.3400       302
    13.3600       274
    13.3800       338
    13.4000       256
    13.4200       278
    13.4400       288
    13.4600       292
    13.4800       290
    13.5000       282
    13.5200       260
    13.5400       238
    13.5600       260
    13.5800       276
    13.6000       310
    13.6200       282
    13.6400       302
    13.6600       250
    13.6800       256
    13.7000       254
    13.7200       280
    13.7400       292
    13.7600       270
    13.7800       278
    13.8000       286
    13.8200       270
    13.8400       276
    13.8600       286
    13.8800       292
    13.9000       250
    13.9200       264
    13.9400       244
    13.9600       266
    13.9800       274
    14.0000       268
    14.0200       282
    14.0400       262
    14.0600       266
    14.0800       252
    14.1000       240
    14.1200       270
    14.1400       282
    14.1600       252
    14.1800       244
    14.2000       270
    14.2200       252
    14.2400       274
    14.2600       276
    14.2800       266
    14.3000       240
    14.3200       272
    14.3400       278
    14.3600       268
    14.3800       320
    14.4000       272
    14.4200       266
    14.4400       280
    14.4600       286
    14.4800       306
    14.5000       326
    14.5200       326
    14.5400       290
    14.5600       328
    14.5800       366
    14.6000       330
    14.6200       350
    14.6400       338
    14.6600       394
    14.6800       438
    14.7000       418
    14.7200       414
    14.7400       492
    14.7600       488
    14.7800       590
    14.8000       606
    14.8200       724
    14.8400       794
    14.8600       912
    14.8800      1022
    14.9000      1114
    14.9200      1360
    14.9400      1476
    14.9600      1702
    14.9800      1908
    15.0000      2000
    15.0200      2128
    15.0400      2060
    15.0600      2040
    15.0800      1898
    15.1000      1848
    15.1200      1930
    15.1400      2116
    15.1600      2318
    15.1800      2554
    15.2000      2654
    15.2200      2620
    15.2400      2504
    15.2600      2022
    15.2800      1518
    15.3000      1044
    15.3200       736
    15.3400       570
    15.3600       424
    15.3800       426
    15.4000       344
    15.4200       390
    15.4400       306
    15.4600       336
    15.4800       304
    15.5000       296
    15.5200       284
    15.5400       312
    15.5600       350
    15.5800       262
    15.6000       314
    15.6200       250
    15.6400       268
    15.6600       250
    15.6800       292
    15.7000       246
    15.7200       280
    15.7400       244
    15.7600       260
    15.7800       256
    15.8000       246
    15.8200       276
    15.8400       232
    15.8600       280
    15.8800       280
    15.9000       240
    15.9200       246
    15.9400       248
    15.9600       264
    15.9800       248
    16.0000       258
    16.0200       298
    16.0400       280
    16.0600       262
    16.0800       292
    16.1000       274
    16.1200       260
    16.1400       310
    16.1600       324
    16.1800       324
    16.2000       322
    16.2200       358
    16.2400       346
    16.2600       340
    16.2800       352
    16.3000       346
    16.3200       370
    16.3400       342
    16.3600       334
    16.3800       314
    16.4000       322
    16.4200       330
    16.4400       304
    16.4600       302
    16.4800       282
    16.5000       300
    16.5200       290
    16.5400       306
    16.5600       294
    16.5800       328
    16.6000       356
    16.6200       376
    16.6400       336
    16.6600       406
    16.6800       418
    16.7000       470
    16.7200       538
    16.7400       530
    16.7600       658
    16.7800       688
    16.8000       718
    16.8200       838
    16.8400       956
    16.8600      1052
    16.8800      1154
    16.9000      1422
    16.9200      1564
    16.9400      1888
    16.9600      2236
    16.9800      2646
    17.0000      3092
    17.0200      3384
    17.0400      3920
    17.0600      4318
    17.0800      4338
    17.1000      3960
    17.1200      3174
    17.1400      2512
    17.1600      1800
    17.1800      1328
    17.2000      1088
    17.2200      1020
    17.2400       996
    17.2600       968
    17.2800       992
    17.3000      1116
    17.3200      1208
    17.3400      1228
    17.3600      1276
    17.3800      1458
    17.4000      1482
    17.4200      1650
    17.4400      1770
    17.4600      1774
    17.4800      1670
    17.5000      1580
    17.5200      1192
    17.5400       950
    17.5600       786
    17.5800       662
    17.6000       680
    17.6200       678
    17.6400       732
    17.6600       788
    17.6800       922
    17.7000       966
    17.7200      1068
    17.7400      1144
    17.7600      1192
    17.7800      1364
    17.8000      1370
    17.8200      1444
    17.8400      1466
    17.8600      1400
    17.8800      1142
    17.9000       936
    17.9200       698
    17.9400       548
    17.9600       388
    17.9800       348
    18.0000       326
    18.0200       328
    18.0400       274
    18.0600       282
    18.0800       278
    18.1000       268
    18.1200       280
    18.1400       242
    18.1600       254
    18.1800       226
    18.2000       218
    18.2200       226
    18.2400       208
    18.2600       220
    18.2800       218
    18.3000       230
    18.3200       228
    18.3400       232
    18.3600       230
    18.3800       192
    18.4000       246
    18.4200       212
    18.4400       240
    18.4600       206
    18.4800       220
    18.5000       218
    18.5200       216
    18.5400       226
    18.5600       212
    18.5800       222
    18.6000       222
    18.6200       230
    18.6400       228
    18.6600       230
    18.6800       216
    18.7000       248
    18.7200       216
    18.7400       218
    18.7600       218
    18.7800       196
    18.8000       224
    18.8200       222
    18.8400       212
    18.8600       222
    18.8800       218
    18.9000       198
    18.9200       258
    18.9400       274
    18.9600       242
    18.9800       244
    19.0000       222
    19.0200       206
    19.0400       240
    19.0600       224
    19.0800       220
    19.1000       244
    19.1200       232
    19.1400       230
    19.1600       252
    19.1800       274
    19.2000       262
    19.2200       270
    19.2400       302
    19.2600       308
    19.2800       322
    19.3000       320
    19.3200       314
    19.3400       322
    19.3600       330
    19.3800       418
    19.4000       452
    19.4200       510
    19.4400       512
    19.4600       604
    19.4800       684
    19.5000       732
    19.5200       814
    19.5400       964
    19.5600       960
    19.5800      1070
    19.6000      1040
    19.6200      1030
    19.6400       976
    19.6600       806
    19.6800       666
    19.7000       550
    19.7200       462
    19.7400       450
    19.7600       390
    19.7800       402
    19.8000       416
    19.8200       432
    19.8400       482
    19.8600       484
    19.8800       500
    19.9000       574
    19.9200       680
    19.9400       710
    19.9600       774
    19.9800       848
    20.0000       878
    20.0200       884
    20.0400       922
    20.0600       878
    20.0800       752
    20.1000       646
    20.1200       538
    20.1400       458
    20.1600       384
    20.1800       316
    20.2000       288
    20.2200       250
    20.2400       300
    20.2600       280
    20.2800       254
    20.3000       254
    20.3200       286
    20.3400       256
    20.3600       250
    20.3800       246
    20.4000       234
    20.4200       230
    20.4400       244
    20.4600       258
    20.4800       242
    20.5000       190
    20.5200       222
    20.5400       230
    20.5600       250
    20.5800       210
    20.6000       246
    20.6200       224
    20.6400       240
    20.6600       226
    20.6800       232
    20.7000       256
    20.7200       236
    20.7400       220
    20.7600       212
    20.7800       272
    20.8000       260
    20.8200       260
    20.8400       258
    20.8600       308
    20.8800       286
    20.9000       304
    20.9200       296
    20.9400       344
    20.9600       410
    20.9800       446
    21.0000       476
    21.0200       570
    21.0400       670
    21.0600       702
    21.0800       836
    21.1000       952
    21.1200      1092
    21.1400      1352
    21.1600      1544
    21.1800      1734
    21.2000      1864
    21.2200      1924
    21.2400      1890
    21.2600      1574
    21.2800      1394
    21.3000      1038
    21.3200       828
    21.3400       594
    21.3600       430
    21.3800       392
    21.4000       332
    21.4200       322
    21.4400       260
    21.4600       306
    21.4800       250
    21.5000       250
    21.5200       268
    21.5400       254
    21.5600       200
    21.5800       240
    21.6000       228
    21.6200       228
    21.6400       240
    21.6600       236
    21.6800       212
    21.7000       198
    21.7200       204
    21.7400       220
    21.7600       182
    21.7800       204
    21.8000       218
    21.8200       198
    21.8400       190
    21.8600       194
    21.8800       212
    21.9000       198
    21.9200       218
    21.9400       200
    21.9600       188
    21.9800       214
    22.0000       212
    22.0200       214
    22.0400       188
    22.0600       234
    22.0800       220
    22.1000       192
    22.1200       196
    22.1400       198
    22.1600       206
    22.1800       210
    22.2000       214
    22.2200       214
    22.2400       202
    22.2600       196
    22.2800       232
    22.3000       202
    22.3200       212
    22.3400       220
    22.3600       228
    22.3800       236
    22.4000       174
    22.4200       226
    22.4400       214
    22.4600       210
    22.4800       206
    22.5000       254
    22.5200       244
    22.5400       254
    22.5600       282
    22.5800       260
    22.6000       288
    22.6200       302
    22.6400       310
    22.6600       352
    22.6800       384
    22.7000       422
    22.7200       452
    22.7400       526
    22.7600       630
    22.7800       686
    22.8000       766
    22.8200       910
    22.8400      1000
    22.8600      1172
    22.8800      1266
    22.9000      1424
    22.9200      1390
    22.9400      1278
    22.9600      1106
    22.9800       920
    23.0000       804
    23.0200       654
    23.0400       478
    23.0600       394
    23.0800       360
    23.1000       290
    23.1200       290
    23.1400       296
    23.1600       242
    23.1800       252
    23.2000       266
    23.2200       234
    23.2400       278
    23.2600       202
    23.2800       200
    23.3000       220
    23.3200       238
    23.3400       202
    23.3600       206
    23.3800       234
    23.4000       228
    23.4200       220
    23.4400       210
    23.4600       238
    23.4800       212
    23.5000       226
    23.5200       212
    23.5400       212
    23.5600       194
    23.5800       216
    23.6000       190
    23.6200       234
    23.6400       224
    23.6600       202
    23.6800       218
    23.7000       198
    23.7200       222
    23.7400       192
    23.7600       208
    23.7800       208
    23.8000       228
    23.8200       222
    23.8400       242
    23.8600       214
    23.8800       194
    23.9000       218
    23.9200       192
    23.9400       198
    23.9600       226
    23.9800       200
    24.0000       216
    24.0200       226
    24.0400       246
    24.0600       204
    24.0800       212
    24.1000       238
    24.1200       224
    24.1400       240
    24.1600       224
    24.1800       270
    24.2000       260
    24.2200       294
    24.2400       290
    24.2600       352
    24.2800       336
    24.3000       418
    24.3200       458
    24.3400       484
    24.3600       508
    24.3800       516
    24.4000       570
    24.4200       628
    24.4400       738
    24.4600       822
    24.4800       900
    24.5000      1058
    24.5200      1106
    24.5400      1180
    24.5600      1212
    24.5800      1192
    24.6000      1160
    24.6200       978
    24.6400       960
    24.6600       848
    24.6800       854
    24.7000       830
    24.7200       886
    24.7400       934
    24.7600      1074
    24.7800      1066
    24.8000      1118
    24.8200      1062
    24.8400      1064
    24.8600      1036
    24.8800      1038
    24.9000      1166
    24.9200      1208
    24.9400      1298
    24.9600      1412
    24.9800      1360
    25.0000      1268
    25.0200      1140
    25.0400      1000
    25.0600       926
    25.0800       854
    25.1000       744
    25.1200       720
    25.1400       814
    25.1600       948
    25.1800      1018
    25.2000      1206
    25.2200      1356
    25.2400      1638
    25.2600      1848
    25.2800      2124
    25.3000      2164
    25.3200      2256
    25.3400      2240
    25.3600      2034
    25.3800      1638
    25.4000      1470
    25.4200      1166
    25.4400       846
    25.4600       658
    25.4800       586
    25.5000       472
    25.5200       468
    25.5400       440
    25.5600       478
    25.5800       474
    25.6000       512
    25.6200       536
    25.6400       524
    25.6600       496
    25.6800       474
    25.7000       484
    25.7200       448
    25.7400       368
    25.7600       382
    25.7800       432
    25.8000       372
    25.8200       308
    25.8400       348
    25.8600       322
    25.8800       316
    25.9000       274
    25.9200       316
    25.9400       298
    25.9600       308
    25.9800       272
    26.0000       246
    26.0200       242
    26.0400       238
    26.0600       256
    26.0800       228
    26.1000       220
    26.1200       228
    26.1400       226
    26.1600       230
    26.1800       220
    26.2000       206
    26.2200       228
    26.2400       232
    26.2600       236
    26.2800       222
    26.3000       228
    26.3200       218
    26.3400       202
    26.3600       208
    26.3800       212
    26.4000       236
    26.4200       236
    26.4400       246
    26.4600       266
    26.4800       232
    26.5000       228
    26.5200       212
    26.5400       232
    26.5600       250
    26.5800       272
    26.6000       288
    26.6200       250
    26.6400       266
    26.6600       278
    26.6800       286
    26.7000       280
    26.7200       264
    26.7400       250
    26.7600       252
    26.7800       228
    26.8000       238
    26.8200       274
    26.8400       248
    26.8600       236
    26.8800       260
    26.9000       228
    26.9200       242
    26.9400       246
    26.9600       260
    26.9800       216
    27.0000       226
    27.0200       200
    27.0400       242
    27.0600       256
    27.0800       250
    27.1000       264
    27.1200       266
    27.1400       244
    27.1600       282
    27.1800       260
    27.2000       258
    27.2200       298
    27.2400       294
    27.2600       356
    27.2800       346
    27.3000       366
    27.3200       474
    27.3400       538
    27.3600       584
    27.3800       676
    27.4000       822
    27.4200       952
    27.4400      1064
    27.4600      1210
    27.4800      1342
    27.5000      1286
    27.5200      1334
    27.5400      1208
    27.5600      1032
    27.5800       840
    27.6000       760
    27.6200       570
    27.6400       482
    27.6600       398
    27.6800       358
    27.7000       334
    27.7200       268
    27.7400       272
    27.7600       268
    27.7800       298
    27.8000       260
    27.8200       254
    27.8400       226
    27.8600       252
    27.8800       248
    27.9000       246
    27.9200       250
    27.9400       228
    27.9600       228
    27.9800       260
    28.0000       236
    28.0200       246
    28.0400       264
    28.0600       230
    28.0800       240
    28.1000       260
    28.1200       278
    28.1400       274
    28.1600       266
    28.1800       278
    28.2000       284
    28.2200       308
    28.2400       318
    28.2600       320
    28.2800       354
    28.3000       398
    28.3200       376
    28.3400       368
    28.3600       394
    28.3800       378
    28.4000       358
    28.4200       382
    28.4400       320
    28.4600       344
    28.4800       308
    28.5000       332
    28.5200       318
    28.5400       322
    28.5600       344
    28.5800       332
    28.6000       378
    28.6200       438
    28.6400       456
    28.6600       500
    28.6800       582
    28.7000       656
    28.7200       656
    28.7400       656
    28.7600       728
    28.7800       630
    28.8000       578
    28.8200       544
    28.8400       500
    28.8600       490
    28.8800       472
    28.9000       468
    28.9200       434
    28.9400       388
    28.9600       404
    28.9800       366
    29.0000       366
    29.0200       358
    29.0400       274
    29.0600       306
    29.0800       302
    29.1000       312
    29.1200       280
    29.1400       278
    29.1600       340
    29.1800       332
    29.2000       384
    29.2200       414
    29.2400       402
    29.2600       482
    29.2800       512
    29.3000       608
    29.3200       646
    29.3400       774
    29.3600       834
    29.3800      1048
    29.4000      1170
    29.4200      1344
    29.4400      1354
    29.4600      1458
    29.4800      1416
    29.5000      1408
    29.5200      1328
    29.5400      1524
    29.5600      1508
    29.5800      1668
    29.6000      1862
    29.6200      2044
    29.6400      2168
    29.6600      2460
    29.6800      2402
    29.7000      2274
    29.7200      2096
    29.7400      1710
    29.7600      1436
    29.7800      1250
    29.8000      1038
    29.8200       840
    29.8400       730
    29.8600       668
    29.8800       636
    29.9000       606
    29.9200       654
    29.9400       662
    29.9600       720
    29.9800       820
    30.0000       934
    30.0200      1036
    30.0400      1178
    30.0600      1432
    30.0800      1622
    30.1000      2074
    30.1200      2382
    30.1400      2816
    30.1600      3290
    30.1800      3880
    30.2000      4596
    30.2200      5024
    30.2400      5314
    30.2600      5508
    30.2800      5490
    30.3000      4964
    30.3200      4228
    30.3400      3780
    30.3600      3308
    30.3800      2800
    30.4000      2358
    30.4200      2202
    30.4400      2250
    30.4600      2374
    30.4800      2660
    30.5000      3144
    30.5200      3728
    30.5400      4430
    30.5600      5124
    30.5800      6430
    30.6000      7818
    30.6200      9444
    30.6400     11080
    30.6600     12802
    30.6800     13998
    30.7000     14470
    30.7200     13706
    30.7400     12102
    30.7600     10468
    30.7800      8988
    30.8000      7288
    30.8200      5928
    30.8400      4696
    30.8600      3908
    30.8800      3538
    30.9000      3564
    30.9200      3840
    30.9400      3990
    30.9600      4172
    30.9800      4226
    31.0000      3756
    31.0200      3262
    31.0400      2760
    31.0600      2274
    31.0800      1914
    31.1000      1374
    31.1200      1074
    31.1400       872
    31.1600       710
    31.1800       590
    31.2000       584
    31.2200       506
    31.2400       504
    31.2600       426
    31.2800       436
    31.3000       444
    31.3200       418
    31.3400       392
    31.3600       338
    31.3800       350
    31.4000       340
    31.4200       336
    31.4400       312
    31.4600       334
    31.4800       314
    31.5000       290
    31.5200       316
    31.5400       286
    31.5600       304
    31.5800       312
    31.6000       278
    31.6200       288
    31.6400       312
    31.6600       288
    31.6800       310
    31.7000       306
    31.7200       304
    31.7400       318
    31.7600       290
    31.7800       320
    31.8000       368
    31.8200       354
    31.8400       382
    31.8600       404
    31.8800       374
    31.9000       434
    31.9200       446
    31.9400       484
    31.9600       532
    31.9800       556
    32.0000       634
    32.0200       696
    32.0400       814
    32.0600       776
    32.0800       786
    32.1000       828
    32.1200       824
    32.1400       756
    32.1600       660
    32.1800       604
    32.2000       546
    32.2200       498
    32.2400       506
    32.2600       430
    32.2800       448
    32.3000       458
    32.3200       478
    32.3400       558
    32.3600       546
    32.3800       592
    32.4000       662
    32.4200       732
    32.4400       866
    32.4600       934
    32.4800      1180
    32.5000      1332
    32.5200      1554
    32.5400      1820
    32.5600      2022
    32.5800      2242
    32.6000      2426
    32.6200      2592
    32.6400      2596
    32.6600      2648
    32.6800      2338
    32.7000      2028
    32.7200      1922
    32.7400      1644
    32.7600      1396
    32.7800      1154
    32.8000       964
    32.8200       820
    32.8400       698
    32.8600       580
    32.8800       564
    32.9000       532
    32.9200       504
    32.9400       474
    32.9600       498
    32.9800       484
    33.0000       482
    33.0200       484
    33.0400       548
    33.0600       604
    33.0800       660
    33.1000       678
    33.1200       664
    33.1400       616
    33.1600       596
    33.1800       632
    33.2000       604
    33.2200       546
    33.2400       512
    33.2600       460
    33.2800       434
    33.3000       388
    33.3200       306
    33.3400       310
    33.3600       298
    33.3800       284
    33.4000       282
    33.4200       262
    33.4400       270
    33.4600       240
    33.4800       284
    33.5000       242
    33.5200       240
    33.5400       224
    33.5600       254
    33.5800       222
    33.6000       204
    33.6200       244
    33.6400       246
    33.6600       238
    33.6800       234
    33.7000       266
    33.7200       252
    33.7400       234
    33.7600       244
    33.7800       218
    33.8000       222
    33.8200       220
    33.8400       218
    33.8600       242
    33.8800       260
    33.9000       246
    33.9200       244
    33.9400       230
    33.9600       228
    33.9800       220
    34.0000       214
    34.0200       234
    34.0400       220
    34.0600       246
    34.0800       216
    34.1000       230
    34.1200       234
    34.1400       252
    34.1600       258
    34.1800       244
    34.2000       300
    34.2200       260
    34.2400       282
    34.2600       278
    34.2800       302
    34.3000       306
    34.3200       360
    34.3400       376
    34.3600       416
    34.3800       482
    34.4000       504
    34.4200       638
    34.4400       708
    34.4600       848
    34.4800      1044
    34.5000      1046
    34.5200      1142
    34.5400      1154
    34.5600      1082
    34.5800       952
    34.6000       868
    34.6200       788
    34.6400       658
    34.6600       574
    34.6800       520
    34.7000       456
    34.7200       412
    34.7400       332
    34.7600       324
    34.7800       316
    34.8000       320
    34.8200       310
    34.8400       316
    34.8600       312
    34.8800       312
    34.9000       298
    34.9200       354
    34.9400       290
    34.9600       294
    34.9800       284
    35.0000       296
    35.0200       292
    35.0400       240
    35.0600       280
    35.0800       290
    35.1000       284
    35.1200       302
    35.1400       266
    35.1600       294
    35.1800       296
    35.2000       298
    35.2200       324
    35.2400       340
    35.2600       344
    35.2800       360
    35.3000       412
    35.3200       392
    35.3400       388
    35.3600       374
    35.3800       372
    35.4000       366
    35.4200       350
    35.4400       314
    35.4600       306
    35.4800       290
    35.5000       282
    35.5200       294
    35.5400       276
    35.5600       276
    35.5800       280
    35.6000       256
    35.6200       264
    35.6400       264
    35.6600       294
    35.6800       304
    35.7000       308
    35.7200       296
    35.7400       326
    35.7600       350
    35.7800       362
    35.8000       402
    35.8200       370
    35.8400       444
    35.8600       468
    35.8800       466
    35.9000       492
    35.9200       550
    35.9400       588
    35.9600       612
    35.9800       718
    36.0000       816
    36.0200       880
    36.0400       986
    36.0600      1146
    36.0800      1224
    36.1000      1304
    36.1200      1356
    36.1400      1284
    36.1600      1182
    36.1800      1168
    36.2000      1098
    36.2200       930
    36.2400       820
    36.2600       790
    36.2800       682
    36.3000       542
    36.3200       506
    36.3400       456
    36.3600       412
    36.3800       368
    36.4000       352
    36.4200       326
    36.4400       344
    36.4600       310
    36.4800       330
    36.5000       350
    36.5200       298
    36.5400       302
    36.5600       322
    36.5800       316
    36.6000       316
    36.6200       340
    36.6400       330
    36.6600       326
    36.6800       370
    36.7000       362
    36.7200       378
    36.7400       374
    36.7600       386
    36.7800       444
    36.8000       428
    36.8200       512
    36.8400       608
    36.8600       606
    36.8800       658
    36.9000       754
    36.9200       806
    36.9400       846
    36.9600       884
    36.9800       850
    37.0000       822
    37.0200       832
    37.0400       758
    37.0600       792
    37.0800       724
    37.1000       770
    37.1200       768
    37.1400       826
    37.1600       782
    37.1800       810
    37.2000       802
    37.2200       802
    37.2400       726
    37.2600       660
    37.2800       608
    37.3000       590
    37.3200       596
    37.3400       476
    37.3600       484
    37.3800       432
    37.4000       438
    37.4200       370
    37.4400       352
    37.4600       360
    37.4800       374
    37.5000       384
    37.5200       368
    37.5400       324
    37.5600       340
    37.5800       372
    37.6000       392
    37.6200       362
    37.6400       372
    37.6600       394
    37.6800       384
    37.7000       464
    37.7200       474
    37.7400       440
    37.7600       476
    37.7800       480
    37.8000       544
    37.8200       552
    37.8400       650
    37.8600       662
    37.8800       836
    37.9000       996
    37.9200      1158
    37.9400      1412
    37.9600      1668
    37.9800      1804
    38.0000      1854
    38.0200      1834
    38.0400      1766
    38.0600      1650
    38.0800      1564
    38.1000      1462
    38.1200      1446
    38.1400      1284
    38.1600      1178
    38.1800      1002
    38.2000       986
    38.2200       852
    38.2400       920
    38.2600       846
    38.2800       868
    38.3000       900
    38.3200       948
    38.3400       962
    38.3600      1098
    38.3800      1196
    38.4000      1328
    38.4200      1494
    38.4400      1704
    38.4600      2048
    38.4800      2398
    38.5000      2788
    38.5200      3352
    38.5400      3828
    38.5600      4506
    38.5800      5280
    38.6000      6032
    38.6200      7046
    38.6400      7668
    38.6600      8028
    38.6800      7942
    38.7000      7320
    38.7200      6910
    38.7400      6254
    38.7600      5496
    38.7800      4810
    38.8000      4074
    38.8200      3630
    38.8400      2958
    38.8600      2464
    38.8800      2100
    38.9000      1850
    38.9200      1756
    38.9400      1624
    38.9600      1564
    38.9800      1638
    39.0000      1788
    39.0200      1918
    39.0400      2348
    39.0600      2582
    39.0800      2846
    39.1000      2920
    39.1200      2924
    39.1400      2836
    39.1600      2598
    39.1800      2416
    39.2000      2310
    39.2200      2236
    39.2400      2092
    39.2600      1866
    39.2800      1740
    39.3000      1698
    39.3200      1636
    39.3400      1752
    39.3600      1720
    39.3800      1734
    39.4000      1714
    39.4200      1650
    39.4400      1588
    39.4600      1278
    39.4800      1248
    39.5000      1158
    39.5200      1018
    39.5400       926
    39.5600       808
    39.5800       748
    39.6000       724
    39.6200       736
    39.6400       778
    39.6600       778
    39.6800       862
    39.7000       830
    39.7200       904
    39.7400      1046
    39.7600      1000
    39.7800      1148
    39.8000      1090
    39.8200      1036
    39.8400      1072
    39.8600      1036
    39.8800       952
    39.9000       920
    39.9200       836
    39.9400       850
    39.9600       774
    39.9800       814
    40.0000       846
    40.0200       896
    40.0400      1030
    40.0600      1156
    40.0800      1226
    40.1000      1486
    40.1200      1742
    40.1400      1918
    40.1600      2092
    40.1800      2260
    40.2000      2316
    40.2200      2250
    40.2400      2062
    40.2600      1900
    40.2800      1716
    40.3000      1624
    40.3200      1476
    40.3400      1418
    40.3600      1284
    40.3800      1206
    40.4000      1146
    40.4200      1194
    40.4400      1248
    40.4600      1394
    40.4800      1472
    40.5000      1646
    40.5200      1828
    40.5400      1856
    40.5600      1982
    40.5800      1922
    40.6000      1858
    40.6200      1742
    40.6400      1656
    40.6600      1434
    40.6800      1386
    40.7000      1256
    40.7200      1078
    40.7400      1008
    40.7600       870
    40.7800       794
    40.8000       680
    40.8200       722
    40.8400       614
    40.8600       586
    40.8800       532
    40.9000       544
    40.9200       502
    40.9400       448
    40.9600       522
    40.9800       500
    41.0000       500
    41.0200       488
    41.0400       532
    41.0600       562
    41.0800       588
    41.1000       624
    41.1200       700
    41.1400       812
    41.1600       878
    41.1800      1078
    41.2000      1196
    41.2200      1354
    41.2400      1538
    41.2600      1772
    41.2800      1826
    41.3000      1884
    41.3200      1970
    41.3400      1956
    41.3600      2090
    41.3800      2148
    41.4000      2134
    41.4200      2438
    41.4400      2628
    41.4600      2888
    41.4800      2976
    41.5000      3134
    41.5200      3056
    41.5400      2922
    41.5600      2766
    41.5800      2546
    41.6000      2226
    41.6200      1988
    41.6400      1818
    41.6600      1592
    41.6800      1318
    41.7000      1068
    41.7200       954
    41.7400       812
    41.7600       778
    41.7800       704
    41.8000       622
    41.8200       638
    41.8400       676
    41.8600       620
    41.8800       632
    41.9000       708
    41.9200       668
    41.9400       740
    41.9600       738
    41.9800       776
    42.0000       778
    42.0200       764
    42.0400       752
    42.0600       762
    42.0800       688
    42.1000       638
    42.1200       534
    42.1400       548
    42.1600       484
    42.1800       476
    42.2000       458
    42.2200       422
    42.2400       366
    42.2600       412
    42.2800       388
    42.3000       358
    42.3200       356
    42.3400       386
    42.3600       364
    42.3800       352
    42.4000       350
    42.4200       316
    42.4400       356
    42.4600       336
    42.4800       330
    42.5000       338
    42.5200       368
    42.5400       302
    42.5600       332
    42.5800       336
    42.6000       318
    42.6200       296
    42.6400       334
    42.6600       322
    42.6800       298
    42.7000       326
    42.7200       298
    42.7400       296
    42.7600       322
    42.7800       286
    42.8000       330
    42.8200       348
    42.8400       322
    42.8600       322
    42.8800       330
    42.9000       344
    42.9200       314
    42.9400       354
    42.9600       388
    42.9800       368
    43.0000       346
    43.0200       420
    43.0400       408
    43.0600       432
    43.0800       462
    43.1000       476
    43.1200       506
    43.1400       574
    43.1600       634
    43.1800       692
    43.2000       856
    43.2200       874
    43.2400       940
    43.2600       930
    43.2800      1012
    43.3000      1000
    43.3200       964
    43.3400       938
    43.3600       876
    43.3800       818
    43.4000       732
    43.4200       706
    43.4400       616
    43.4600       524
    43.4800       514
    43.5000       452
    43.5200       452
    43.5400       420
    43.5600       368
    43.5800       408
    43.6000       360
    43.6200       352
    43.6400       374
    43.6600       398
    43.6800       362
    43.7000       386
    43.7200       392
    43.7400       388
    43.7600       450
    43.7800       474
    43.8000       506
    43.8200       520
    43.8400       506
    43.8600       552
    43.8800       522
    43.9000       472
    43.9200       500
    43.9400       496
    43.9600       486
    43.9800       476
    44.0000       466
    44.0200       402
    44.0400       464
    44.0600       424
    44.0800       392
    44.1000       428
    44.1200       442
    44.1400       444
    44.1600       466
    44.1800       480
    44.2000       530
    44.2200       604
    44.2400       620
    44.2600       776
    44.2800       756
    44.3000       790
    44.3200       864
    44.3400       864
    44.3600       776
    44.3800       740
    44.4000       730
    44.4200       682
    44.4400       660
    44.4600       618
    44.4800       540
    44.5000       524
    44.5200       436
    44.5400       450
    44.5600       420
    44.5800       430
    44.6000       398
    44.6200       394
    44.6400       424
    44.6600       428
    44.6800       498
    44.7000       426
    44.7200       468
    44.7400       486
    44.7600       516
    44.7800       522
    44.8000       534
    44.8200       556
    44.8400       590
    44.8600       634
    44.8800       700
    44.9000       780
    44.9200       908
    44.9400      1048
    44.9600      1180
    44.9800      1326
    45.0000      1498
    45.0200      1696
    45.0400      1990
    45.0600      2068
    45.0800      2182
    45.1000      2270
    45.1200      2266
    45.1400      2522
    45.1600      2562
    45.1800      2764
    45.2000      2864
    45.2200      3140
    45.2400      3358
    45.2600      3482
    45.2800      3432
    45.3000      3228
    45.3200      3016
    45.3400      2784
    45.3600      2582
    45.3800      2492
    45.4000      2382
    45.4200      2324
    45.4400      2198
    45.4600      2062
    45.4800      2108
    45.5000      2044
    45.5200      1974
    45.5400      1794
    45.5600      1660
    45.5800      1476
    45.6000      1376
    45.6200      1328
    45.6400      1204
    45.6600      1180
    45.6800       998
    45.7000       886
    45.7200       802
    45.7400       674
    45.7600       704
    45.7800       642
    45.8000       624
    45.8200       576
    45.8400       588
    45.8600       602
    45.8800       578
    45.9000       632
    45.9200       600
    45.9400       658
    45.9600       654
    45.9800       762
    46.0000       826
    46.0200       968
    46.0400       962
    46.0600      1164
    46.0800      1344
    46.1000      1358
    46.1200      1434
    46.1400      1286
    46.1600      1154
    46.1800      1134
    46.2000      1158
    46.2200      1014
    46.2400      1040
    46.2600       986
    46.2800       828
    46.3000       828
    46.3200       850
    46.3400       816
    46.3600       804
    46.3800       800
    46.4000       892
    46.4200       988
    46.4400      1108
    46.4600      1260
    46.4800      1278
    46.5000      1484
    46.5200      1652
    46.5400      1684
    46.5600      1764
    46.5800      1900
    46.6000      1922
    46.6200      2052
    46.6400      2196
    46.6600      2342
    46.6800      2566
    46.7000      2868
    46.7200      3208
    46.7400      3390
    46.7600      3618
    46.7800      3580
    46.8000      3636
    46.8200      3526
    46.8400      3234
    46.8600      3224
    46.8800      2940
    46.9000      2832
    46.9200      2476
    46.9400      2098
    46.9600      1928
    46.9800      1666
    47.0000      1470
    47.0200      1178
    47.0400      1016
    47.0600       942
    47.0800       798
    47.1000       758
    47.1200       654
    47.1400       608
    47.1600       574
    47.1800       558
    47.2000       478
    47.2200       494
    47.2400       450
    47.2600       482
    47.2800       428
    47.3000       440
    47.3200       424
    47.3400       404
    47.3600       398
    47.3800       396
    47.4000       368
    47.4200       386
    47.4400       374
    47.4600       404
    47.4800       394
    47.5000       340
    47.5200       392
    47.5400       370
    47.5600       340
    47.5800       330
    47.6000       302
    47.6200       320
    47.6400       382
    47.6600       302
    47.6800       356
    47.7000       320
    47.7200       346
    47.7400       316
    47.7600       332
    47.7800       372
    47.8000       342
    47.8200       336
    47.8400       398
    47.8600       400
    47.8800       340
    47.9000       378
    47.9200       404
    47.9400       422
    47.9600       434
    47.9800       430
    48.0000       388
    48.0200       426
    48.0400       422
    48.0600       364
    48.0800       414
    48.1000       392
    48.1200       416
    48.1400       410
    48.1600       424
    48.1800       416
    48.2000       396
    48.2200       434
    48.2400       400
    48.2600       454
    48.2800       474
    48.3000       482
    48.3200       536
    48.3400       544
    48.3600       544
    48.3800       506
    48.4000       570
    48.4200       610
    48.4400       612
    48.4600       688
    48.4800       796
    48.5000       816
    48.5200       930
    48.5400       986
    48.5600      1100
    48.5800      1172
    48.6000      1296
    48.6200      1308
    48.6400      1252
    48.6600      1230
    48.6800      1144
    48.7000      1084
    48.7200      1058
    48.7400       936
    48.7600       886
    48.7800       812
    48.8000       664
    48.8200       652
    48.8400       576
    48.8600       570
    48.8800       448
    48.9000       418
    48.9200       390
    48.9400       414
    48.9600       366
    48.9800       350
    49.0000       328
    49.0200       312
    49.0400       340
    49.0600       332
    49.0800       328
    49.1000       306
    49.1200       304
    49.1400       296
    49.1600       270
    49.1800       308
    49.2000       296
    49.2200       292
    49.2400       280
    49.2600       294
    49.2800       272
    49.3000       308
    49.3200       252
    49.3400       276
    49.3600       288
    49.3800       296
    49.4000       280
    49.4200       268
    49.4400       266
    49.4600       286
    49.4800       280
    49.5000       276
    49.5200       302
    49.5400       284
    49.5600       358
    49.5800       310
    49.6000       288
    49.6200       332
    49.6400       296
    49.6600       306
    49.6800       336
    49.7000       388
    49.7200       338
    49.7400       368
    49.7600       428
    49.7800       454
    49.8000       526
    49.8200       534
    49.8400       614
    49.8600       634
    49.8800       708
    49.9000       720
    49.9200       688
    49.9400       672
    49.9600       574
    49.9800       664
    50.0000       600
    50.0200       652
    50.0400       608
    50.0600       590
    50.0800       522
    50.1000       564
    50.1200       576
    50.1400       594
    50.1600       656
    50.1800       736
    50.2000       808
    50.2200       924
    50.2400      1000
    50.2600      1186
    50.2800      1334
    50.3000      1272
    50.3200      1416
    50.3400      1388
    50.3600      1332
    50.3800      1254
    50.4000      1190
    50.4200      1204
    50.4400      1216
    50.4600      1104
    50.4800      1068
    50.5000      1026
    50.5200      1022
    50.5400       968
    50.5600       994
    50.5800      1016
    50.6000      1110
    50.6200      1072
    50.6400      1254
    50.6600      1550
    50.6800      1676
    50.7000      1972
    50.7200      2252
    50.7400      2624
    50.7600      3006
    50.7800      3476
    50.8000      3720
    50.8200      3752
    50.8400      3738
    50.8600      3572
    50.8800      3214
    50.9000      3030
    50.9200      2914
    50.9400      2738
    50.9600      2682
    50.9800      2516
    51.0000      2308
    51.0200      2004
    51.0400      1794
    51.0600      1750
    51.0800      1778
    51.1000      1898
    51.1200      2128
    51.1400      2412
    51.1600      2840
    51.1800      3242
    51.2000      3532
    51.2200      3606
    51.2400      3326
    51.2600      2988
    51.2800      2566
    51.3000      2362
    51.3200      2336
    51.3400      2310
    51.3600      2214
    51.3800      2028
    51.4000      1724
    51.4200      1384
    51.4400      1126
    51.4600      1022
    51.4800       940
    51.5000       848
    51.5200       876
    51.5400       884
    51.5600       872
    51.5800       836
    51.6000       912
    51.6200       976
    51.6400      1094
    51.6600      1214
    51.6800      1336
    51.7000      1496
    51.7200      1526
    51.7400      1582
    51.7600      1536
    51.7800      1626
    51.8000      1580
    51.8200      1852
    51.8400      1904
    51.8600      2092
    51.8800      2278
    51.9000      2464
    51.9200      2784
    51.9400      3034
    51.9600      3394
    51.9800      3334
    52.0000      3568
    52.0200      3444
    52.0400      3330
    52.0600      3026
    52.0800      2676
    52.1000      2456
    52.1200      2306
    52.1400      2200
    52.1600      1932
    52.1800      1722
    52.2000      1480
    52.2200      1196
    52.2400      1072
    52.2600       856
    52.2800       806
    52.3000       690
    52.3200       676
    52.3400       566
    52.3600       598
    52.3800       596
    52.4000       582
    52.4200       602
    52.4400       564
    52.4600       648
    52.4800       670
    52.5000       708
    52.5200       728
    52.5400       704
    52.5600       736
    52.5800       724
    52.6000       726
    52.6200       782
    52.6400       814
    52.6600       900
    52.6800       920
    52.7000       966
    52.7200       960
    52.7400      1066
    52.7600      1124
    52.7800      1164
    52.8000      1206
    52.8200      1122
    52.8400      1102
    52.8600      1040
    52.8800       974
    52.9000       948
    52.9200       932
    52.9400       808
    52.9600       784
    52.9800       714
    53.0000       688
    53.0200       608
    53.0400       588
    53.0600       504
    53.0800       502
    53.1000       464
    53.1200       502
    53.1400       506
    53.1600       488
    53.1800       502
    53.2000       548
    53.2200       570
    53.2400       588
    53.2600       672
    53.2800       686
    53.3000       716
    53.3200       772
    53.3400       774
    53.3600       746
    53.3800       818
    53.4000       798
    53.4200       772
    53.4400       780
    53.4600       778
    53.4800       756
    53.5000       776
    53.5200       696
    53.5400       738
    53.5600       748
    53.5800       640
    53.6000       690
    53.6200       738
    53.6400       706
    53.6600       674
    53.6800       784
    53.7000       780
    53.7200       784
    53.7400       786
    53.7600       860
    53.7800       804
    53.8000       796
    53.8200       840
    53.8400       802
    53.8600       714
    53.8800       770
    53.9000       634
    53.9200       660
    53.9400       654
    53.9600       618
    53.9800       598
    54.0000       608
    54.0200       590
    54.0400       552
    54.0600       566
    54.0800       578
    54.1000       516
    54.1200       614
    54.1400       606
    54.1600       598
    54.1800       644
    54.2000       710
    54.2200       756
    54.2400       782
    54.2600       864
    54.2800       872
    54.3000       886
    54.3200       916
    54.3400       912
    54.3600       946
    54.3800       932
    54.4000       964
    54.4200      1022
    54.4400      1110
    54.4600      1150
    54.4800      1166
    54.5000      1150
    54.5200      1124
    54.5400      1086
    54.5600      1048
    54.5800      1018
    54.6000       910
    54.6200       894
    54.6400       804
    54.6600       792
    54.6800       776
    54.7000       738
    54.7200       688
    54.7400       662
    54.7600       632
    54.7800       652
    54.8000       592
    54.8200       640
    54.8400       676
    54.8600       750
    54.8800       712
    54.9000       828
    54.9200       894
    54.9400       912
    54.9600      1050
    54.9800      1020
    55.0000      1018
    55.0200      1044
    55.0400      1074
    55.0600      1132
    55.0800      1166
    55.1000      1300
    55.1200      1372
    55.1400      1318
    55.1600      1272
    55.1800      1310
    55.2000      1308
    55.2200      1256
    55.2400      1200
    55.2600      1180
    55.2800      1104
    55.3000      1074
    55.3200      1070
    55.3400      1050
    55.3600      1054
    55.3800       960
    55.4000       890
    55.4200       804
    55.4400       804
    55.4600       736
    55.4800       694
    55.5000       656
    55.5200       626
    55.5400       546
    55.5600       538
    55.5800       540
    55.6000       444
    55.6200       466
    55.6400       430
    55.6600       418
    55.6800       388
    55.7000       360
    55.7200       360
    55.7400       312
    55.7600       318
    55.7800       318
    55.8000       282
    55.8200       308
    55.8400       312
    55.8600       292
    55.8800       304
    55.9000       284
    55.9200       330
    55.9400       266
    55.9600       306
    55.9800       284
    56.0000       308
    56.0200       286
    56.0400       300
    56.0600       294
    56.0800       294
    56.1000       292
    56.1200       280
    56.1400       338
    56.1600       292
    56.1800       324
    56.2000       334
    56.2200       378
    56.2400       340
    56.2600       348
    56.2800       338
    56.3000       310
    56.3200       342
    56.3400       332
    56.3600       370
    56.3800       348
    56.4000       362
    56.4200       330
    56.4400       356
    56.4600       330
    56.4800       356
    56.5000       358
    56.5200       386
    56.5400       398
    56.5600       452
    56.5800       416
    56.6000       522
    56.6200       554
    56.6400       606
    56.6600       642
    56.6800       754
    56.7000       784
    56.7200       912
    56.7400       918
    56.7600      1078
    56.7800      1092
    56.8000      1088
    56.8200      1038
    56.8400      1030
    56.8600       960
    56.8800       854
    56.9000       830
    56.9200       798
    56.9400       732
    56.9600       718
    56.9800       676
    57.0000       598
    57.0200       544
    57.0400       508
    57.0600       458
    57.0800       420
    57.1000       418
    57.1200       388
    57.1400       344
    57.1600       336
    57.1800       354
    57.2000       376
    57.2200       374
    57.2400       346
    57.2600       398
    57.2800       410
    57.3000       416
    57.3200       396
    57.3400       436
    57.3600       440
    57.3800       482
    57.4000       508
    57.4200       494
    57.4400       522
    57.4600       578
    57.4800       576
    57.5000       600
    57.5200       574
    57.5400       626
    57.5600       636
    57.5800       590
    57.6000       646
    57.6200       598
    57.6400       588
    57.6600       568
    57.6800       582
    57.7000       510
    57.7200       580
    57.7400       558
    57.7600       580
    57.7800       626
    57.8000       612
    57.8200       570
    57.8400       598
    57.8600       652
    57.8800       582
    57.9000       632
    57.9200       620
    57.9400       670
    57.9600       610
    57.9800       608
    58.0000       570
    58.0200       582
    58.0400       534
    58.0600       538
    58.0800       556
    58.1000       504
    58.1200       490
    58.1400       496
    58.1600       440
    58.1800       476
    58.2000       472
    58.2200       438
    58.2400       466
    58.2600       472
    58.2800       514
    58.3000       566
    58.3200       482
    58.3400       492
    58.3600       506
    58.3800       516
    58.4000       596
    58.4200       558
    58.4400       546
    58.4600       582
    58.4800       612
    58.5000       570
    58.5200       604
    58.5400       750
    58.5600       752
    58.5800       760
    58.6000       812
    58.6200       828
    58.6400       880
    58.6600       998
    58.6800      1006
    58.7000      1156
    58.7200      1002
    58.7400      1014
    58.7600      1072
    58.7800      1144
    58.8000      1138
    58.8200      1152
    58.8400      1146
    58.8600      1174
    58.8800      1152
    58.9000      1144
    58.9200      1194
    58.9400      1078
    58.9600      1162
    58.9800      1020
    59.0000      1048
    59.0200       990
    59.0400       984
    59.0600       960
    59.0800       924
    59.1000       910
    59.1200       962
    59.1400       866
    59.1600       862
    59.1800       904
    59.2000       956
    59.2200       994
    59.2400      1022
    59.2600      1184
    59.2800      1158
    59.3000      1370
    59.3200      1488
    59.3400      1634
    59.3600      1904
    59.3800      2156
    59.4000      2440
    59.4200      2690
    59.4400      2956
    59.4600      3052
    59.4800      3004
    59.5000      3056
    59.5200      2862
    59.5400      2794
    59.5600      2484
    59.5800      2442
    59.6000      2314
    59.6200      2234
    59.6400      2276
    59.6600      2214
    59.6800      2054
    59.7000      1858
    59.7200      1810
    59.7400      1704
    59.7600      1712
    59.7800      1828
    59.8000      1876
    59.8200      1982
    59.8400      2130
    59.8600      2124
    59.8800      2136
    59.9000      2032
    59.9200      1856
    59.9400      1622
    59.9600      1520
    59.9800      1416
    60.0000      1346
    60.0200      1362
    60.0400      1246
    60.0600      1204
    60.0800      1042
    60.1000       868
    60.1200       806
    60.1400       676
    60.1600       608
    60.1800       584
    60.2000       566
    60.2200       486
    60.2400       494
    60.2600       484
    60.2800       406
    60.3000       472
    60.3200       456
    60.3400       412
    60.3600       414
    60.3800       420
    60.4000       418
    60.4200       384
    60.4400       398
    60.4600       396
    60.4800       390
    60.5000       480
    60.5200       420
    60.5400       434
    60.5600       492
    60.5800       520
    60.6000       540
    60.6200       594
    60.6400       532
    60.6600       506
    60.6800       456
    60.7000       478
    60.7200       470
    60.7400       486
    60.7600       462
    60.7800       484
    60.8000       518
    60.8200       498
    60.8400       520
    60.8600       554
    60.8800       584
    60.9000       612
    60.9200       724
    60.9400       754
    60.9600       878
    60.9800       990
    61.0000       962
    61.0200      1074
    61.0400      1160
    61.0600      1200
    61.0800      1270
    61.1000      1232
    61.1200      1308
    61.1400      1222
    61.1600      1256
    61.1800      1198
    61.2000      1160
    61.2200      1098
    61.2400      1246
    61.2600      1154
    61.2800      1168
    61.3000      1186
    61.3200      1246
    61.3400      1196
    61.3600      1224
    61.3800      1328
    61.4000      1312
    61.4200      1410
    61.4400      1510
    61.4600      1690
    61.4800      1772
    61.5000      1938
    61.5200      2124
    61.5400      2274
    61.5600      2654
    61.5800      2620
    61.6000      2744
    61.6200      2568
    61.6400      2502
    61.6600      2318
    61.6800      2178
    61.7000      2008
    61.7200      1938
    61.7400      1792
    61.7600      1698
    61.7800      1690
    61.8000      1520
    61.8200      1340
    61.8400      1244
    61.8600       976
    61.8800       886
    61.9000       788
    61.9200       726
    61.9400       652
    61.9600       588
    61.9800       504
    62.0000       490
    62.0200       486
    62.0400       440
    62.0600       446
    62.0800       384
    62.1000       424
    62.1200       390
    62.1400       378
    62.1600       386
    62.1800       392
    62.2000       362
    62.2200       412
    62.2400       364
    62.2600       370
    62.2800       374
    62.3000       360
    62.3200       380
    62.3400       362
    62.3600       344
    62.3800       370
    62.4000       330
    62.4200       346
    62.4400       344
    62.4600       328
    62.4800       326
    62.5000       360
    62.5200       344
    62.5400       352
    62.5600       330
    62.5800       350
    62.6000       380
    62.6200       372
    62.6400       354
    62.6600       332
    62.6800       394
    62.7000       402
    62.7200       392
    62.7400       386
    62.7600       428
    62.7800       430
    62.8000       426
    62.8200       402
    62.8400       406
    62.8600       432
    62.8800       476
    62.9000       526
    62.9200       504
    62.9400       452
    62.9600       456
    62.9800       486
    63.0000       430
    63.0200       386
    63.0400       396
    63.0600       402
    63.0800       368
    63.1000       368
    63.1200       376
    63.1400       338
    63.1600       344
    63.1800       330
    63.2000       310
    63.2200       300
    63.2400       284
    63.2600       268
    63.2800       248
    63.3000       300
    63.3200       258
    63.3400       260
    63.3600       302
    63.3800       266
    63.4000       254
    63.4200       268
    63.4400       258
    63.4600       274
    63.4800       286
    63.5000       304
    63.5200       302
    63.5400       310
    63.5600       344
    63.5800       308
    63.6000       332
    63.6200       354
    63.6400       380
    63.6600       376
    63.6800       426
    63.7000       446
    63.7200       472
    63.7400       514
    63.7600       624
    63.7800       686
    63.8000       716
    63.8200       816
    63.8400       942
    63.8600      1046
    63.8800      1142
    63.9000      1212
    63.9200      1194
    63.9400      1184
    63.9600      1186
    63.9800      1074
    64.0000      1042
    64.0200       894
    64.0400       918
    64.0600       854
    64.0800       922
    64.1000       854
    64.1200       818
    64.1400       770
    64.1600       706
    64.1800       666
    64.2000       618
    64.2200       524
    64.2400       452
    64.2600       484
    64.2800       418
    64.3000       382
    64.3200       392
    64.3400       392
    64.3600       382
    64.3800       392
    64.4000       386
    64.4200       432
    64.4400       466
    64.4600       460
    64.4800       484
    64.5000       548
    64.5200       544
    64.5400       494
    64.5600       510
    64.5800       456
    64.6000       410
    64.6200       434
    64.6400       460
    64.6600       394
    64.6800       428
    64.7000       422
    64.7200       404
    64.7400       414
    64.7600       380
    64.7800       326
    64.8000       300
    64.8200       292
    64.8400       244
    64.8600       284
    64.8800       284
    64.9000       286
    64.9200       264
    64.9400       292
    64.9600       256
    64.9800       300
    65.0000       342
    65.0200       310
    65.0400       332
    65.0600       314
    65.0800       366
    65.1000       402
    65.1200       356
    65.1400       388
    65.1600       360
    65.1800       406
    65.2000       394
    65.2200       344
    65.2400       388
    65.2600       350
    65.2800       368
    65.3000       388
    65.3200       386
    65.3400       372
    65.3600       346
    65.3800       332
    65.4000       406
    65.4200       374
    65.4400       340
    65.4600       352
    65.4800       386
    65.5000       384
    65.5200       392
    65.5400       408
    65.5600       452
    65.5800       428
    65.6000       456
    65.6200       430
    65.6400       470
    65.6600       484
    65.6800       428
    65.7000       430
    65.7200       388
    65.7400       440
    65.7600       420
    65.7800       444
    65.8000       404
    65.8200       412
    65.8400       412
    65.8600       472
    65.8800       416
    65.9000       390
    65.9200       362
    65.9400       370
    65.9600       386
    65.9800       344
    66.0000       332
    66.0200       324
    66.0400       286
    66.0600       320
    66.0800       306
    66.1000       346
    66.1200       298
    66.1400       320
    66.1600       314
    66.1800       288
    66.2000       298
    66.2200       304
    66.2400       302
    66.2600       296
    66.2800       296
    66.3000       290
    66.3200       300
    66.3400       300
    66.3600       346
    66.3800       384
    66.4000       384
    66.4200       384
    66.4400       378
    66.4600       412
    66.4800       414
    66.5000       398
    66.5200       402
    66.5400       424
    66.5600       466
    66.5800       422
    66.6000       486
    66.6200       544
    66.6400       524
    66.6600       554
    66.6800       500
    66.7000       490
    66.7200       544
    66.7400       536
    66.7600       564
    66.7800       562
    66.8000       608
    66.8200       590
    66.8400       668
    66.8600       738
    66.8800       796
    66.9000       804
    66.9200       814
    66.9400       858
    66.9600       890
    66.9800       872
    67.0000       864
    67.0200       888
    67.0400       920
    67.0600       872
    67.0800       856
    67.1000       828
    67.1200       792
    67.1400       800
    67.1600       768
    67.1800       728
    67.2000       728
    67.2200       636
    67.2400       642
    67.2600       556
    67.2800       526
    67.3000       506
    67.3200       482
    67.3400       440
    67.3600       442
    67.3800       382
    67.4000       424
    67.4200       422
    67.4400       408
    67.4600       346
    67.4800       318
    67.5000       362
    67.5200       328
    67.5400       332
    67.5600       306
    67.5800       314
    67.6000       318
    67.6200       320
    67.6400       306
    67.6600       280
    67.6800       286
    67.7000       282
    67.7200       270
    67.7400       310
    67.7600       282
    67.7800       288
    67.8000       292
    67.8200       312
    67.8400       268
    67.8600       288
    67.8800       286
    67.9000       284
    67.9200       240
    67.9400       300
    67.9600       286
    67.9800       316
    68.0000       324
    68.0200       336
    68.0400       288
    68.0600       348
    68.0800       356
    68.1000       356
    68.1200       356
    68.1400       360
    68.1600       350
    68.1800       404
    68.2000       400
    68.2200       452
    68.2400       452
    68.2600       514
    68.2800       446
    68.3000       524
    68.3200       486
    68.3400       554
    68.3600       580
    68.3800       578
    68.4000       538
    68.4200       584
    68.4400       602
    68.4600       560
    68.4800       558
    68.5000       590
    68.5200       580
    68.5400       542
    68.5600       580
    68.5800       576
    68.6000       520
    68.6200       516
    68.6400       542
    68.6600       472
    68.6800       500
    68.7000       482
    68.7200       450
    68.7400       394
    68.7600       376
    68.7800       362
    68.8000       396
    68.8200       338
    68.8400       398
    68.8600       352
    68.8800       388
    68.9000       348
    68.9200       384
    68.9400       362
    68.9600       318
    68.9800       304
    69.0000       352
    69.0200       356
    69.0400       358
    69.0600       384
    69.0800       372
    69.1000       436
    69.1200       470
    69.1400       452
    69.1600       468
    69.1800       462
    69.2000       412
    69.2200       494
    69.2400       416
    69.2600       378
    69.2800       404
    69.3000       398
    69.3200       420
    69.3400       410
    69.3600       368
    69.3800       384
    69.4000       364
    69.4200       404
    69.4400       342
    69.4600       402
    69.4800       336
    69.5000       376
    69.5200       358
    69.5400       382
    69.5600       362
    69.5800       386
    69.6000       348
    69.6200       332
    69.6400       388
    69.6600       374
    69.6800       358
    69.7000       392
    69.7200       430
    69.7400       416
    69.7600       434
    69.7800       476
    69.8000       468
    69.8200       548
    69.8400       522
    69.8600       594
    69.8800       614
    69.9000       616
    69.9200       624
    69.9400       640
    69.9600       622
    69.9800       578
    70.0000       516
    70.0200       490
    70.0400       512
    70.0600       476
    70.0800       470
    70.1000       520
    70.1200       556
    70.1400       496
    70.1600       510
    70.1800       492
    70.2000       496
    70.2200       482
    70.2400       498
    70.2600       548
    70.2800       530
    70.3000       478
    70.3200       448
    70.3400       432
    70.3600       398
    70.3800       386
    70.4000       364
    70.4200       394
    70.4400       356
    70.4600       356
    70.4800       362
    70.5000       328
    70.5200       368
    70.5400       324
    70.5600       278
    70.5800       290
    70.6000       288
    70.6200       282
    70.6400       248
    70.6600       266
    70.6800       254
    70.7000       228
    70.7200       232
    70.7400       260
    70.7600       228
    70.7800       240
    70.8000       220
    70.8200       218
    70.8400       234
    70.8600       236
    70.8800       210
    70.9000       240
    70.9200       228
    70.9400       232
    70.9600       226
    70.9800       218
    71.0000       222
    71.0200       224
    71.0400       240
    71.0600       230
    71.0800       256
    71.1000       256
    71.1200       228
    71.1400       220
    71.1600       224
    71.1800       224
    71.2000       244
    71.2200       214
    71.2400       234
    71.2600       242
    71.2800       222
    71.3000       250
    71.3200       216
    71.3400       224
    71.3600       242
    71.3800       244
    71.4000       258
    71.4200       252
    71.4400       260
    71.4600       244
    71.4800       328
    71.5000       276
    71.5200       300
    71.5400       316
    71.5600       266
    71.5800       310
    71.6000       320
    71.6200       342
    71.6400       338
    71.6600       370
    71.6800       336
    71.7000       318
    71.7200       326
    71.7400       354
    71.7600       332
    71.7800       320
    71.8000       326
    71.8200       328
    71.8400       322
    71.8600       356
    71.8800       310
    71.9000       290
    71.9200       324
    71.9400       334
    71.9600       322
    71.9800       280
    72.0000       296
    72.0200       274
    72.0400       266
    72.0600       312
    72.0800       294
    72.1000       270
    72.1200       270
    72.1400       288
    72.1600       268
    72.1800       284
    72.2000       274
    72.2200       306
    72.2400       284
    72.2600       270
    72.2800       310
    72.3000       318
    72.3200       316
    72.3400       346
    72.3600       354
    72.3800       366
    72.4000       408
    72.4200       422
    72.4400       448
    72.4600       448
    72.4800       436
    72.5000       482
    72.5200       454
    72.5400       494
    72.5600       490
    72.5800       520
    72.6000       528
    72.6200       566
    72.6400       576
    72.6600       586
    72.6800       556
    72.7000       638
    72.7200       680
    72.7400       708
    72.7600       794
    72.7800       782
    72.8000       874
    72.8200       860
    72.8400       840
    72.8600       832
    72.8800       762
    72.9000       730
    72.9200       712
    72.9400       708
    72.9600       702
    72.9800       714
    73.0000       698
    73.0200       692
    73.0400       636
    73.0600       582
    73.0800       578
    73.1000       508
    73.1200       472
    73.1400       476
    73.1600       406
    73.1800       416
    73.2000       388
    73.2200       398
    73.2400       358
    73.2600       348
    73.2800       328
    73.3000       314
    73.3200       296
    73.3400       290
    73.3600       274
    73.3800       252
    73.4000       238
    73.4200       214
    73.4400       218
    73.4600       230
    73.4800       226
    73.5000       218
    73.5200       230
    73.5400       194
    73.5600       216
    73.5800       202
    73.6000       212
    73.6200       212
    73.6400       224
    73.6600       202
    73.6800       210
    73.7000       240
    73.7200       226
    73.7400       204
    73.7600       198
    73.7800       240
    73.8000       244
    73.8200       226
    73.8400       236
    73.8600       234
    73.8800       244
    73.9000       230
    73.9200       288
    73.9400       220
    73.9600       248
    73.9800       224
    74.0000       238
    74.0200       260
    74.0400       260
    74.0600       250
    74.0800       246
    74.1000       244
    74.1200       256
    74.1400       242
    74.1600       228
    74.1800       242
    74.2000       196
    74.2200       236
    74.2400       244
    74.2600       226
    74.2800       248
    74.3000       212
    74.3200       232
    74.3400       194
    74.3600       222
    74.3800       246
    74.4000       224
    74.4200       208
    74.4400       228
    74.4600       214
    74.4800       214
    74.5000       200
    74.5200       208
    74.5400       224
    74.5600       266
    74.5800       236
    74.6000       252
    74.6200       274
    74.6400       312
    74.6600       274
    74.6800       352
    74.7000       336
    74.7200       334
    74.7400       328
    74.7600       306
    74.7800       286
    74.8000       234
    74.8200       280
    74.8400       274
    74.8600       292
    74.8800       262
    74.9000       284
    74.9200       280
    74.9400       260
    74.9600       286
    74.9800       260
    75.0000       238
    75.0200       254
    75.0400       210
    75.0600       230
    75.0800       228
    75.1000       236
    75.1200       220
    75.1400       218
    75.1600       246
    75.1800       214
    75.2000       252
    75.2200       252
    75.2400       244
    75.2600       290
    75.2800       262
    75.3000       248
    75.3200       260
    75.3400       250
    75.3600       218
    75.3800       254
    75.4000       270
    75.4200       234
    75.4400       248
    75.4600       286
    75.4800       262
    75.5000       288
    75.5200       284
    75.5400       252
    75.5600       296
    75.5800       286
    75.6000       276
    75.6200       296
    75.6400       336
    75.6600       330
    75.6800       312
    75.7000       330
    75.7200       310
    75.7400       372
    75.7600       358
    75.7800       326
    75.8000       364
    75.8200       344
    75.8400       386
    75.8600       392
    75.8800       392
    75.9000       370
    75.9200       410
    75.9400       412
    75.9600       438
    75.9800       408
    76.0000       412
    76.0200       428
    76.0400       426
    76.0600       378
    76.0800       392
    76.1000       336
    76.1200       306
    76.1400       364
    76.1600       332
    76.1800       332
    76.2000       308
    76.2200       322
    76.2400       326
    76.2600       346
    76.2800       312
    76.3000       298
    76.3200       318
    76.3400       300
    76.3600       306
    76.3800       338
    76.4000       314
    76.4200       296
    76.4400       314
    76.4600       332
    76.4800       364
    76.5000       400
    76.5200       396
    76.5400       452
    76.5600       442
    76.5800       466
    76.6000       490
    76.6200       460
    76.6400       508
    76.6600       520
    76.6800       524
    76.7000       488
    76.7200       466
    76.7400       468
    76.7600       438
    76.7800       430
    76.8000       410
    76.8200       410
    76.8400       426
    76.8600       392
    76.8800       378
    76.9000       392
    76.9200       414
    76.9400       300
    76.9600       364
    76.9800       346
    77.0000       300
    77.0200       344
    77.0400       308
    77.0600       324
    77.0800       332
    77.1000       300
    77.1200       312
    77.1400       318
    77.1600       302
    77.1800       340
    77.2000       334
    77.2200       336
    77.2400       370
    77.2600       392
    77.2800       426
    77.3000       404
    77.3200       424
    77.3400       432
    77.3600       390
    77.3800       434
    77.4000       380
    77.4200       402
    77.4400       388
    77.4600       356
    77.4800       394
    77.5000       408
    77.5200       354
    77.5400       364
    77.5600       392
    77.5800       396
    77.6000       360
    77.6200       386
    77.6400       370
    77.6600       414
    77.6800       376
    77.7000       366
    77.7200       422
    77.7400       404
    77.7600       366
    77.7800       430
    77.8000       378
    77.8200       470
    77.8400       466
    77.8600       466
    77.8800       452
    77.9000       414
    77.9200       460
    77.9400       404
    77.9600       448
    77.9800       444
    78.0000       406
    78.0200       388
    78.0400       390
    78.0600       392
    78.0800       376
    78.1000       412
    78.1200       346
    78.1400       340
    78.1600       328
    78.1800       332
    78.2000       326
    78.2200       328
    78.2400       294
    78.2600       318
    78.2800       292
    78.3000       322
    78.3200       288
    78.3400       258
    78.3600       312
    78.3800       262
    78.4000       280
    78.4200       268
    78.4400       306
    78.4600       312
    78.4800       312
    78.5000       306
    78.5200       302
    78.5400       340
    78.5600       352
    78.5800       314
    78.6000       306
    78.6200       332
    78.6400       360
    78.6600       412
    78.6800       428
    78.7000       432
    78.7200       424
    78.7400       490
    78.7600       454
    78.7800       438
    78.8000       466
    78.8200       502
    78.8400       460
    78.8600       418
    78.8800       408
    78.9000       406
    78.9200       392
    78.9400       392
    78.9600       362
    78.9800       346
    79.0000       386
    79.0200       372
    79.0400       332
    79.0600       322
    79.0800       326
    79.1000       292
    79.1200       340
    79.1400       354
    79.1600       328
    79.1800       276
    79.2000       294
    79.2200       336
    79.2400       274
    79.2600       274
    79.2800       294
    79.3000       256
    79.3200       254
    79.3400       274
    79.3600       260
    79.3800       242
    79.4000       226
    79.4200       256
    79.4400       250
    79.4600       264
    79.4800       264
    79.5000       200
    79.5200       248
    79.5400       230
    79.5600       262
    79.5800       232
    79.6000       214
    79.6200       232
    79.6400       220
    79.6600       212
    79.6800       262
    79.7000       226
    79.7200       226
    79.7400       218
    79.7600       240
    79.7800       222
    79.8000       206
    79.8200       226
    79.8400       220
    79.8600       220
    79.8800       208
    79.9000       234
    79.9200       220
    79.9400       204
    79.9600       252
    79.9800       244
    80.0000       214
    80.0200       254
    80.0400       238
    80.0600       228
    80.0800       268
    80.1000       270
    80.1200       254
    80.1400       268
    80.1600       244
    80.1800       258
    80.2000       232
    80.2200       236
    80.2400       232
    80.2600       216
    80.2800       252
    80.3000       250
    80.3200       240
    80.3400       238
    80.3600       238
    80.3800       252
    80.4000       262
    80.4200       242
    80.4400       238
    80.4600       238
    80.4800       286
    80.5000       262
    80.5200       270
    80.5400       300
    80.5600       276
    80.5800       286
    80.6000       244
    80.6200       250
    80.6400       264
    80.6600       284
    80.6800       252
    80.7000       250
    80.7200       236
    80.7400       262
    80.7600       254
    80.7800       262
    80.8000       270
    80.8200       252
    80.8400       262
    80.8600       250
    80.8800       268
    80.9000       210
    80.9200       226
    80.9400       208
    80.9600       236
    80.9800       204
    81.0000       220
    81.0200       216
    81.0400       204
    81.0600       222
    81.0800       240
    81.1000       212
    81.1200       224
    81.1400       242
    81.1600       230
    81.1800       276
    81.2000       280
    81.2200       258
    81.2400       274
    81.2600       250
    81.2800       268
    81.3000       246
    81.3200       270
    81.3400       252
    81.3600       220
    81.3800       262
    81.4000       234
    81.4200       264
    81.4400       256
    81.4600       270
    81.4800       266
    81.5000       260
    81.5200       286
    81.5400       264
    81.5600       282
    81.5800       216
    81.6000       274
    81.6200       256
    81.6400       310
    81.6600       302
    81.6800       276
    81.7000       292
    81.7200       300
    81.7400       318
    81.7600       308
    81.7800       304
    81.8000       352
    81.8200       296
    81.8400       308
    81.8600       338
    81.8800       298
    81.9000       318
    81.9200       304
    81.9400       286
    81.9600       296
    81.9800       314
    82.0000       366
    82.0200       344
    82.0400       348
    82.0600       358
    82.0800       332
    82.1000       316
    82.1200       322
    82.1400       302
    82.1600       318
    82.1800       332
    82.2000       342
    82.2200       346
    82.2400       318
    82.2600       342
    82.2800       352
    82.3000       384
    82.3200       368
    82.3400       332
    82.3600       362
    82.3800       340
    82.4000       336
    82.4200       332
    82.4400       364
    82.4600       352
    82.4800       394
    82.5000       354
    82.5200       398
    82.5400       452
    82.5600       450
    82.5800       442
    82.6000       468
    82.6200       474
    82.6400       502
    82.6600       586
    82.6800       552
    82.7000       620
    82.7200       660
    82.7400       718
    82.7600       794
    82.7800       822
    82.8000       856
    82.8200       996
    82.8400       998
    82.8600      1198
    82.8800      1226
    82.9000      1232
    82.9200      1270
    82.9400      1194
    82.9600      1198
    82.9800      1126
    83.0000      1104
    83.0200      1020
    83.0400       964
    83.0600       954
    83.0800       866
    83.1000       890
    83.1200       876
    83.1400       884
    83.1600       924
    83.1800       880
    83.2000       872
    83.2200       806
    83.2400       710
    83.2600       712
    83.2800       652
    83.3000       618
    83.3200       568
    83.3400       498
    83.3600       448
    83.3800       450
    83.4000       430
    83.4200       410
    83.4400       424
    83.4600       386
    83.4800       382
    83.5000       404
    83.5200       380
    83.5400       370
    83.5600       354
    83.5800       374
    83.6000       358
    83.6200       302
    83.6400       342
    83.6600       310
    83.6800       348
    83.7000       292
    83.7200       306
    83.7400       318
    83.7600       318
    83.7800       320
    83.8000       340
    83.8200       326
    83.8400       322
    83.8600       352
    83.8800       372
    83.9000       422
    83.9200       456
    83.9400       520
    83.9600       574
    83.9800       624
    84.0000       670
    84.0200       646
    84.0400       638
    84.0600       638
    84.0800       616
    84.1000       586
    84.1200       558
    84.1400       498
    84.1600       486
    84.1800       510
    84.2000       466
    84.2200       514
    84.2400       506
    84.2600       558
    84.2800       556
    84.3000       566
    84.3200       476
    84.3400       560
    84.3600       510
    84.3800       482
    84.4000       484
    84.4200       444
    84.4400       436
    84.4600       460
    84.4800       450
    84.5000       414
    84.5200       432
    84.5400       390
    84.5600       416
    84.5800       360
    84.6000       372
    84.6200       348
    84.6400       406
    84.6600       406
    84.6800       366
    84.7000       388
    84.7200       424
    84.7400       408
    84.7600       390
    84.7800       346
    84.8000       368
    84.8200       338
    84.8400       358
    84.8600       324
    84.8800       282
    84.9000       304
    84.9200       288
    84.9400       288
    84.9600       296
    84.9800       318
    85.0000       286
    85.0200       290
    85.0400       264
    85.0600       254
    85.0800       278
    85.1000       292
    85.1200       328
    85.1400       284
    85.1600       252
    85.1800       308
    85.2000       294
    85.2200       272
    85.2400       298
    85.2600       258
    85.2800       310
    85.3000       256
    85.3200       260
    85.3400       262
    85.3600       264
    85.3800       246
    85.4000       230
    85.4200       270
    85.4400       236
    85.4600       260
    85.4800       248
    85.5000       240
    85.5200       252
    85.5400       274
    85.5600       246
    85.5800       234
    85.6000       244
    85.6200       258
    85.6400       286
    85.6600       340
    85.6800       310
    85.7000       330
    85.7200       328
    85.7400       346
    85.7600       332
    85.7800       318
    85.8000       334
    85.8200       284
    85.8400       288
    85.8600       302
    85.8800       292
    85.9000       300
    85.9200       294
    85.9400       312
    85.9600       282
    85.9800       308
    86.0000       302
    86.0200       322
    86.0400       292
    86.0600       316
    86.0800       296
    86.1000       276
    86.1200       310
    86.1400       262
    86.1600       270
    86.1800       264
    86.2000       240
    86.2200       268
    86.2400       278
    86.2600       284
    86.2800       242
    86.3000       298
    86.3200       268
    86.3400       270
    86.3600       288
    86.3800       266
    86.4000       268
    86.4200       270
    86.4400       262
    86.4600       238
    86.4800       292
    86.5000       300
    86.5200       264
    86.5400       284
    86.5600       306
    86.5800       328
    86.6000       326
    86.6200       358
    86.6400       370
    86.6600       414
    86.6800       430
    86.7000       410
    86.7200       420
    86.7400       418
    86.7600       484
    86.7800       474
    86.8000       498
    86.8200       518
    86.8400       518
    86.8600       546
    86.8800       502
    86.9000       568
    86.9200       492
    86.9400       512
    86.9600       472
    86.9800       488
    87.0000       490
    87.0200       516
    87.0400       488
    87.0600       464
    87.0800       470
    87.1000       442
    87.1200       432
    87.1400       436
    87.1600       408
    87.1800       380
    87.2000       350
    87.2200       374
    87.2400       368
    87.2600       342
    87.2800       362
    87.3000       338
    87.3200       330
    87.3400       304
    87.3600       298
    87.3800       320
    87.4000       318
    87.4200       336
    87.4400       322
    87.4600       344
    87.4800       342
    87.5000       364
    87.5200       332
    87.5400       374
    87.5600       388
    87.5800       400
    87.6000       378
    87.6200       436
    87.6400       440
    87.6600       478
    87.6800       518
    87.7000       506
    87.7200       478
    87.7400       526
    87.7600       560
    87.7800       536
    87.8000       582
    87.8200       532
    87.8400       518
    87.8600       502
    87.8800       416
    87.9000       462
    87.9200       484
    87.9400       462
    87.9600       412
    87.9800       412
    88.0000       410
    88.0200       456
    88.0400       416
    88.0600       452
    88.0800       450
    88.1000       392
    88.1200       400
    88.1400       386
    88.1600       380
    88.1800       380
    88.2000       398
    88.2200       382
    88.2400       404
    88.2600       400
    88.2800       392
    88.3000       368
    88.3200       390
    88.3400       374
    88.3600       398
    88.3800       408
    88.4000       400
    88.4200       366
    88.4400       382
    88.4600       350
    88.4800       356
    88.5000       368
    88.5200       346
    88.5400       352
    88.5600       308
    88.5800       312
    88.6000       326
    88.6200       310
    88.6400       348
    88.6600       304
    88.6800       316
    88.7000       304
    88.7200       314
    88.7400       262
    88.7600       302
    88.7800       320
    88.8000       284
    88.8200       270
    88.8400       270
    88.8600       264
    88.8800       292
    88.9000       260
    88.9200       280
    88.9400       248
    88.9600       270
    88.9800       288
    89.0000       296
    89.0200       280
    89.0400       274
    89.0600       260
    89.0800       256
    89.1000       262
    89.1200       272
    89.1400       272
    89.1600       256
    89.1800       244
    89.2000       274
    89.2200       262
    89.2400       260
    89.2600       260
    89.2800       272
    89.3000       222
    89.3200       274
    89.3400       256
    89.3600       258
    89.3800       262
    89.4000       280
    89.4200       286
    89.4400       266
    89.4600       238
    89.4800       264
    89.5000       254
    89.5200       218
    89.5400       268
    89.5600       270
    89.5800       242
    89.6000       274
    89.6200       280
    89.6400       308
    89.6600       326
    89.6800       288
    89.7000       330
    89.7200       310
    89.7400       272
    89.7600       320
    89.7800       304
    89.8000       330
    89.8200       326
    89.8400       310
    89.8600       320
    89.8800       290
    89.9000       278
    89.9200       300
    89.9400       290
    89.9600       312
    89.9800       262
    90.0000       272
