    10.0000       364
    10.0200       376
    10.0400       400
    10.0600       372
    10.0800       376
    10.1000       364
    10.1200       358
    10.1400       340
    10.1600       332
    10.1800       380
    10.2000       360
    10.2200       380
    10.2400       352
    10.2600       362
    10.2800       386
    10.3000       358
    10.3200       384
    10.3400       378
    10.3600       366
    10.3800       362
    10.4000       356
    10.4200       394
    10.4400       364
    10.4600       350
    10.4800       338
    10.5000       356
    10.5200       394
    10.5400       340
    10.5600       320
    10.5800       334
    10.6000       308
    10.6200       346
    10.6400       366
    10.6600       346
    10.6800       340
    10.7000       366
    10.7200       342
    10.7400       332
    10.7600       336
    10.7800       338
    10.8000       354
    10.8200       350
    10.8400       334
    10.8600       350
    10.8800       332
    10.9000       362
    10.9200       334
    10.9400       312
    10.9600       342
    10.9800       348
    11.0000       344
    11.0200       318
    11.0400       340
    11.0600       328
    11.0800       328
    11.1000       340
    11.1200       316
    11.1400       312
    11.1600       326
    11.1800       348
    11.2000       338
    11.2200       360
    11.2400       350
    11.2600       324
    11.2800       324
    11.3000       346
    11.3200       314
    11.3400       340
    11.3600       342
    11.3800       316
    11.4000       302
    11.4200       320
    11.4400       344
    11.4600       308
    11.4800       324
    11.5000       320
    11.5200       368
    11.5400       358
    11.5600       328
    11.5800       346
    11.6000       344
    11.6200       316
    11.6400       326
    11.6600       340
    11.6800       344
    11.7000       330
    11.7200       362
    11.7400       346
    11.7600       310
    11.7800       328
    11.8000       336
    11.8200       372
    11.8400       360
    11.8600       402
    11.8800       368
    11.9000       396
    11.9200       360
    11.9400       366
    11.9600       362
    11.9800       422
    12.0000       388
    12.0200       430
    12.0400       408
    12.0600       472
    12.0800       506
    12.1000       562
    12.1200       606
    12.1400       582
    12.1600       626
    12.1800       638
    12.2000       698
    12.2200       608
    12.2400       574
    12.2600       510
    12.2800       476
    12.3000       398
    12.3200       384
    12.3400       356
    12.3600       342
    12.3800       332
    12.4000       324
    12.4200       312
    12.4400       320
    12.4600       310
    12.4800       322
    12.5000       304
    12.5200       314
    12.5400       318
    12.5600       290
    12.5800       256
    12.6000       306
    12.6200       318
    12.6400       312
    12.6600       298
    12.6800       320
    12.7000       314
    12.7200       286
    12.7400       310
    12.7600       312
    12.7800       330
    12.8000       316
    12.8200       284
    12.8400       312
    12.8600       286
    12.8800       270
    12.9000       278
    12.9200       290
    12.9400       270
    12.9600       308
    12.9800       304
    13.0000       264
    13.0200       280
    13.0400       310
    13.0600       272
    13.0800       284
    13.1000       314
    13.1200       300
    13.1400       294
    13.1600       296
    13.1800       270
    13.2000       284
    13.2200       274
    13.2400       290
    13.2600       264
    13.2800       266
    13.3000       276
    13.3200       268
    13.3400       290
    13.3600       258
    13.3800       288
    13.4000       280
    13.4200       302
    13.4400       268
    13.4600       284
    13.4800       304
    13.5000       280
    13.5200       286
    13.5400       288
    13.5600       282
    13.5800       270
    13.6000       288
    13.6200       228
    13.6400       300
    13.6600       296
    13.6800       256
    13.7000       274
    13.7200       280
    13.7400       264
    13.7600       258
    13.7800       236
    13.8000       312
    13.8200       280
    13.8400       286
    13.8600       258
    13.8800       264
    13.9000       272
    13.9200       286
    13.9400       250
    13.9600       294
    13.9800       266
    14.0000       284
    14.0200       250
    14.0400       258
    14.0600       276
    14.0800       284
    14.1000       258
    14.1200       276
    14.1400       270
    14.1600       228
    14.1800       252
    14.2000       266
    14.2200       276
    14.2400       274
    14.2600       284
    14.2800       312
    14.3000       264
    14.3200       292
    14.3400       268
    14.3600       278
    14.3800       274
    14.4000       266
    14.4200       284
    14.4400       266
    14.4600       254
    14.4800       268
    14.5000       278
    14.5200       284
    14.5400       302
    14.5600       290
    14.5800       304
    14.6000       316
    14.6200       352
    14.6400       310
    14.6600       320
    14.6800       340
    14.7000       322
    14.7200       352
    14.7400       336
    14.7600       374
    14.7800       424
    14.8000       408
    14.8200       402
    14.8400       456
    14.8600       502
    14.8800       566
    14.9000       564
    14.9200       580
    14.9400       618
    14.9600       750
    14.9800       806
    15.0000       830
    15.0200       936
    15.0400       980
    15.0600      1018
    15.0800      1186
    15.1000      1312
    15.1200      1488
    15.1400      1644
    15.1600      1774
    15.1800      1870
    15.2000      1980
    15.2200      1748
    15.2400      1586
    15.2600      1282
    15.2800      1068
    15.3000       790
    15.3200       664
    15.3400       516
    15.3600       454
    15.3800       448
    15.4000       390
    15.4200       366
    15.4400       334
    15.4600       332
    15.4800       358
    15.5000       314
    15.5200       314
    15.5400       276
    15.5600       294
    15.5800       298
    15.6000       310
    15.6200       274
    15.6400       282
    15.6600       256
    15.6800       278
    15.7000       286
    15.7200       330
    15.7400       270
    15.7600       292
    15.7800       270
    15.8000       266
    15.8200       256
    15.8400       270
    15.8600       238
    15.8800       244
    15.9000       252
    15.9200       294
    15.9400       272
    15.9600       276
    15.9800       282
    16.0000       254
    16.0200       304
    16.0400       274
    16.0600       312
    16.0800       282
    16.1000       314
    16.1200       292
    16.1400       342
    16.1600       302
    16.1800       302
    16.2000       356
    16.2200       320
    16.2400       350
    16.2600       338
    16.2800       378
    16.3000       360
    16.3200       382
    16.3400       350
    16.3600       342
    16.3800       354
    16.4000       336
    16.4200       330
    16.4400       310
    16.4600       328
    16.4800       336
    16.5000       316
    16.5200       324
    16.5400       326
    16.5600       336
    16.5800       404
    16.6000       360
    16.6200       370
    16.6400       410
    16.6600       438
    16.6800       504
    16.7000       516
    16.7200       606
    16.7400       636
    16.7600       658
    16.7800       742
    16.8000       824
    16.8200       888
    16.8400       962
    16.8600      1108
    16.8800      1208
    16.9000      1354
    16.9200      1636
    16.9400      1818
    16.9600      2108
    16.9800      2430
    17.0000      2922
    17.0200      3064
    17.0400      3206
    17.0600      3406
    17.0800      3040
    17.1000      2664
    17.1200      2066
    17.1400      1670
    17.1600      1326
    17.1800      1106
    17.2000       976
    17.2200       918
    17.2400       822
    17.2600       806
    17.2800       790
    17.3000       766
    17.3200       702
    17.3400       694
    17.3600       550
    17.3800       582
    17.4000       562
    17.4200       462
    17.4400       498
    17.4600       450
    17.4800       442
    17.5000       422
    17.5200       426
    17.5400       454
    17.5600       480
    17.5800       480
    17.6000       484
    17.6200       528
    17.6400       590
    17.6600       556
    17.6800       594
    17.7000       724
    17.7200       744
    17.7400       842
    17.7600       924
    17.7800       908
    17.8000       990
    17.8200       960
    17.8400       938
    17.8600       882
    17.8800       784
    17.9000       660
    17.9200       546
    17.9400       448
    17.9600       416
    17.9800       370
    18.0000       312
    18.0200       332
    18.0400       334
    18.0600       292
    18.0800       298
    18.1000       276
    18.1200       290
    18.1400       274
    18.1600       266
    18.1800       258
    18.2000       264
    18.2200       272
    18.2400       220
    18.2600       204
    18.2800       240
    18.3000       252
    18.3200       244
    18.3400       216
    18.3600       234
    18.3800       242
    18.4000       232
    18.4200       226
    18.4400       234
    18.4600       240
    18.4800       230
    18.5000       220
    18.5200       222
    18.5400       226
    18.5600       270
    18.5800       234
    18.6000       216
    18.6200       242
    18.6400       238
    18.6600       232
    18.6800       258
    18.7000       236
    18.7200       246
    18.7400       242
    18.7600       260
    18.7800       244
    18.8000       248
    18.8200       252
    18.8400       274
    18.8600       262
    18.8800       272
    18.9000       264
    18.9200       256
    18.9400       296
    18.9600       288
    18.9800       270
    19.0000       274
    19.0200       268
    19.0400       294
    19.0600       312
    19.0800       282
    19.1000       320
    19.1200       304
    19.1400       344
    19.1600       330
    19.1800       356
    19.2000       368
    19.2200       428
    19.2400       434
    19.2600       460
    19.2800       496
    19.3000       556
    19.3200       624
    19.3400       656
    19.3600       708
    19.3800       768
    19.4000       930
    19.4200      1042
    19.4400      1188
    19.4600      1380
    19.4800      1594
    19.5000      1730
    19.5200      1996
    19.5400      2118
    19.5600      2242
    19.5800      2234
    19.6000      1998
    19.6200      1734
    19.6400      1384
    19.6600      1200
    19.6800       998
    19.7000       912
    19.7200       806
    19.7400       736
    19.7600       732
    19.7800       810
    19.8000       820
    19.8200       842
    19.8400       986
    19.8600      1044
    19.8800      1136
    19.9000      1312
    19.9200      1380
    19.9400      1570
    19.9600      1604
    19.9800      1840
    20.0000      1712
    20.0200      1640
    20.0400      1578
    20.0600      1388
    20.0800      1112
    20.1000       914
    20.1200       716
    20.1400       584
    20.1600       538
    20.1800       504
    20.2000       362
    20.2200       366
    20.2400       346
    20.2600       342
    20.2800       318
    20.3000       276
    20.3200       296
    20.3400       264
    20.3600       266
    20.3800       296
    20.4000       272
    20.4200       250
    20.4400       262
    20.4600       250
    20.4800       270
    20.5000       278
    20.5200       246
    20.5400       264
    20.5600       234
    20.5800       278
    20.6000       268
    20.6200       244
    20.6400       234
    20.6600       274
    20.6800       262
    20.7000       268
    20.7200       276
    20.7400       284
    20.7600       272
    20.7800       280
    20.8000       294
    20.8200       318
    20.8400       334
    20.8600       352
    20.8800       348
    20.9000       394
    20.9200       394
    20.9400       456
    20.9600       482
    20.9800       558
    21.0000       590
    21.0200       642
    21.0400       746
    21.0600       804
    21.0800      1004
    21.1000      1122
    21.1200      1320
    21.1400      1484
    21.1600      1616
    21.1800      1804
    21.2000      1800
    21.2200      1768
    21.2400      1718
    21.2600      1604
    21.2800      1406
    21.3000      1062
    21.3200       880
    21.3400       764
    21.3600       610
    21.3800       514
    21.4000       444
    21.4200       396
    21.4400       374
    21.4600       330
    21.4800       332
    21.5000       314
    21.5200       284
    21.5400       258
    21.5600       286
    21.5800       262
    21.6000       246
    21.6200       242
    21.6400       214
    21.6600       236
    21.6800       244
    21.7000       258
    21.7200       244
    21.7400       244
    21.7600       244
    21.7800       240
    21.8000       212
    21.8200       234
    21.8400       236
    21.8600       230
    21.8800       222
    21.9000       238
    21.9200       210
    21.9400       244
    21.9600       228
    21.9800       230
    22.0000       226
    22.0200       230
    22.0400       244
    22.0600       222
    22.0800       226
    22.1000       240
    22.1200       200
    22.1400       216
    22.1600       252
    22.1800       218
    22.2000       228
    22.2200       214
    22.2400       240
    22.2600       250
    22.2800       230
    22.3000       272
    22.3200       268
    22.3400       268
    22.3600       262
    22.3800       318
    22.4000       284
    22.4200       282
    22.4400       290
    22.4600       352
    22.4800       388
    22.5000       400
    22.5200       420
    22.5400       408
    22.5600       506
    22.5800       488
    22.6000       572
    22.6200       626
    22.6400       680
    22.6600       726
    22.6800       900
    22.7000      1006
    22.7200      1210
    22.7400      1368
    22.7600      1554
    22.7800      1844
    22.8000      2014
    22.8200      2312
    22.8400      2608
    22.8600      2802
    22.8800      2904
    22.9000      2750
    22.9200      2504
    22.9400      2202
    22.9600      1812
    22.9800      1456
    23.0000      1090
    23.0200       874
    23.0400       746
    23.0600       610
    23.0800       534
    23.1000       534
    23.1200       488
    23.1400       418
    23.1600       366
    23.1800       360
    23.2000       350
    23.2200       356
    23.2400       314
    23.2600       322
    23.2800       284
    23.3000       290
    23.3200       274
    23.3400       268
    23.3600       274
    23.3800       248
    23.4000       228
    23.4200       258
    23.4400       242
    23.4600       234
    23.4800       256
    23.5000       226
    23.5200       222
    23.5400       246
    23.5600       208
    23.5800       244
    23.6000       242
    23.6200       244
    23.6400       226
    23.6600       224
    23.6800       210
    23.7000       212
    23.7200       218
    23.7400       228
    23.7600       254
    23.7800       192
    23.8000       228
    23.8200       240
    23.8400       236
    23.8600       220
    23.8800       226
    23.9000       226
    23.9200       226
    23.9400       222
    23.9600       258
    23.9800       242
    24.0000       210
    24.0200       246
    24.0400       254
    24.0600       244
    24.0800       246
    24.1000       232
    24.1200       288
    24.1400       296
    24.1600       278
    24.1800       324
    24.2000       320
    24.2200       276
    24.2400       322
    24.2600       322
    24.2800       358
    24.3000       376
    24.3200       432
    24.3400       484
    24.3600       494
    24.3800       586
    24.4000       620
    24.4200       716
    24.4400       778
    24.4600       830
    24.4800       992
    24.5000      1086
    24.5200      1084
    24.5400      1208
    24.5600      1172
    24.5800      1118
    24.6000      1070
    24.6200      1002
    24.6400       886
    24.6600       844
    24.6800       826
    24.7000       746
    24.7200       750
    24.7400       748
    24.7600       742
    24.7800       744
    24.8000       736
    24.8200       638
    24.8400       636
    24.8600       570
    24.8800       582
    24.9000       494
    24.9200       516
    24.9400       462
    24.9600       468
    24.9800       470
    25.0000       486
    25.0200       492
    25.0400       532
    25.0600       524
    25.0800       608
    25.1000       638
    25.1200       708
    25.1400       772
    25.1600       796
    25.1800       876
    25.2000      1046
    25.2200      1128
    25.2400      1304
    25.2600      1422
    25.2800      1580
    25.3000      1590
    25.3200      1504
    25.3400      1560
    25.3600      1414
    25.3800      1264
    25.4000      1098
    25.4200       940
    25.4400       834
    25.4600       810
    25.4800       714
    25.5000       732
    25.5200       716
    25.5400       806
    25.5600       830
    25.5800       802
    25.6000       820
    25.6200       818
    25.6400       784
    25.6600       770
    25.6800       766
    25.7000       654
    25.7200       554
    25.7400       526
    25.7600       476
    25.7800       438
    25.8000       392
    25.8200       384
    25.8400       370
    25.8600       348
    25.8800       388
    25.9000       340
    25.9200       308
    25.9400       276
    25.9600       304
    25.9800       266
    26.0000       292
    26.0200       262
    26.0400       266
    26.0600       278
    26.0800       266
    26.1000       238
    26.1200       248
    26.1400       206
    26.1600       266
    26.1800       254
    26.2000       234
    26.2200       252
    26.2400       242
    26.2600       262
    26.2800       238
    26.3000       230
    26.3200       250
    26.3400       240
    26.3600       248
    26.3800       240
    26.4000       278
    26.4200       244
    26.4400       242
    26.4600       254
    26.4800       260
    26.5000       268
    26.5200       256
    26.5400       276
    26.5600       250
    26.5800       264
    26.6000       264
    26.6200       252
    26.6400       286
    26.6600       270
    26.6800       256
    26.7000       288
    26.7200       274
    26.7400       266
    26.7600       240
    26.7800       252
    26.8000       234
    26.8200       252
    26.8400       278
    26.8600       278
    26.8800       250
    26.9000       242
    26.9200       256
    26.9400       234
    26.9600       242
    26.9800       240
    27.0000       236
    27.0200       250
    27.0400       262
    27.0600       272
    27.0800       288
    27.1000       292
    27.1200       274
    27.1400       324
    27.1600       288
    27.1800       324
    27.2000       346
    27.2200       352
    27.2400       442
    27.2600       436
    27.2800       428
    27.3000       508
    27.3200       596
    27.3400       662
    27.3600       708
    27.3800       824
    27.4000       962
    27.4200      1010
    27.4400      1076
    27.4600      1142
    27.4800      1182
    27.5000      1148
    27.5200      1100
    27.5400      1094
    27.5600       962
    27.5800       928
    27.6000       748
    27.6200       672
    27.6400       582
    27.6600       526
    27.6800       478
    27.7000       428
    27.7200       386
    27.7400       350
    27.7600       338
    27.7800       352
    27.8000       314
    27.8200       308
    27.8400       326
    27.8600       324
    27.8800       286
    27.9000       288
    27.9200       294
    27.9400       316
    27.9600       298
    27.9800       340
    28.0000       308
    28.0200       312
    28.0400       336
    28.0600       310
    28.0800       296
    28.1000       308
    28.1200       342
    28.1400       334
    28.1600       328
    28.1800       350
    28.2000       368
    28.2200       392
    28.2400       422
    28.2600       412
    28.2800       426
    28.3000       432
    28.3200       392
    28.3400       386
    28.3600       412
    28.3800       370
    28.4000       394
    28.4200       386
    28.4400       376
    28.4600       348
    28.4800       326
    28.5000       300
    28.5200       326
    28.5400       344
    28.5600       362
    28.5800       362
    28.6000       408
    28.6200       414
    28.6400       488
    28.6600       482
    28.6800       518
    28.7000       476
    28.7200       474
    28.7400       486
    28.7600       478
    28.7800       442
    28.8000       438
    28.8200       418
    28.8400       376
    28.8600       374
    28.8800       316
    28.9000       338
    28.9200       340
    28.9400       320
    28.9600       328
    28.9800       342
    29.0000       294
    29.0200       294
    29.0400       340
    29.0600       318
    29.0800       294
    29.1000       306
    29.1200       326
    29.1400       302
    29.1600       332
    29.1800       320
    29.2000       322
    29.2200       342
    29.2400       362
    29.2600       396
    29.2800       384
    29.3000       434
    29.3200       404
    29.3400       446
    29.3600       486
    29.3800       490
    29.4000       544
    29.4200       574
    29.4400       640
    29.4600       676
    29.4800       758
    29.5000       816
    29.5200       890
    29.5400       996
    29.5600      1070
    29.5800      1172
    29.6000      1298
    29.6200      1416
    29.6400      1462
    29.6600      1528
    29.6800      1546
    29.7000      1420
    29.7200      1368
    29.7400      1220
    29.7600      1106
    29.7800       950
    29.8000       904
    29.8200       784
    29.8400       764
    29.8600       700
    29.8800       688
    29.9000       688
    29.9200       734
    29.9400       768
    29.9600       822
    29.9800       806
    30.0000       904
    30.0200      1034
    30.0400      1092
    30.0600      1250
    30.0800      1412
    30.1000      1580
    30.1200      1730
    30.1400      1898
    30.1600      2020
    30.1800      2088
    30.2000      2158
    30.2200      2082
    30.2400      1982
    30.2600      1982
    30.2800      1938
    30.3000      1872
    30.3200      1894
    30.3400      1820
    30.3600      1850
    30.3800      1866
    30.4000      2058
    30.4200      2192
    30.4400      2256
    30.4600      2582
    30.4800      2898
    30.5000      3330
    30.5200      3704
    30.5400      4298
    30.5600      4826
    30.5800      5550
    30.6000      6310
    30.6200      7238
    30.6400      7936
    30.6600      8602
    30.6800      8834
    30.7000      8828
    30.7200      8384
    30.7400      7482
    30.7600      6546
    30.7800      5556
    30.8000      4608
    30.8200      3966
    30.8400      3216
    30.8600      2712
    30.8800      2238
    30.9000      1920
    30.9200      1758
    30.9400      1482
    30.9600      1370
    30.9800      1282
    31.0000      1202
    31.0200      1078
    31.0400       978
    31.0600       932
    31.0800       804
    31.1000       854
    31.1200       794
    31.1400       702
    31.1600       758
    31.1800       684
    31.2000       698
    31.2200       616
    31.2400       576
    31.2600       566
    31.2800       554
    31.3000       542
    31.3200       514
    31.3400       500
    31.3600       490
    31.3800       474
    31.4000       418
    31.4200       404
    31.4400       432
    31.4600       432
    31.4800       414
    31.5000       390
    31.5200       410
    31.5400       392
    31.5600       384
    31.5800       410
    31.6000       374
    31.6200       388
    31.6400       404
    31.6600       464
    31.6800       426
    31.7000       414
    31.7200       488
    31.7400       468
    31.7600       548
    31.7800       550
    31.8000       536
    31.8200       606
    31.8400       652
    31.8600       706
    31.8800       820
    31.9000       916
    31.9200       978
    31.9400      1142
    31.9600      1252
    31.9800      1406
    32.0000      1464
    32.0200      1644
    32.0400      1590
    32.0600      1586
    32.0800      1476
    32.1000      1382
    32.1200      1288
    32.1400      1152
    32.1600      1074
    32.1800      1066
    32.2000       972
    32.2200       954
    32.2400       968
    32.2600       986
    32.2800      1004
    32.3000      1124
    32.3200      1204
    32.3400      1308
    32.3600      1428
    32.3800      1660
    32.4000      1908
    32.4200      2124
    32.4400      2456
    32.4600      3004
    32.4800      3338
    32.5000      3744
    32.5200      4184
    32.5400      4704
    32.5600      5072
    32.5800      5190
    32.6000      5126
    32.6200      4948
    32.6400      4632
    32.6600      4346
    32.6800      3880
    32.7000      3226
    32.7200      2914
    32.7400      2398
    32.7600      1956
    32.7800      1774
    32.8000      1464
    32.8200      1316
    32.8400      1158
    32.8600      1106
    32.8800      1024
    32.9000      1000
    32.9200       898
    32.9400      1014
    32.9600       866
    32.9800      1018
    33.0000       904
    33.0200      1016
    33.0400      1100
    33.0600      1178
    33.0800      1192
    33.1000      1180
    33.1200      1190
    33.1400      1148
    33.1600      1030
    33.1800       960
    33.2000       896
    33.2200       772
    33.2400       684
    33.2600       618
    33.2800       590
    33.3000       488
    33.3200       436
    33.3400       430
    33.3600       370
    33.3800       406
    33.4000       372
    33.4200       372
    33.4400       362
    33.4600       304
    33.4800       314
    33.5000       290
    33.5200       314
    33.5400       272
    33.5600       286
    33.5800       306
    33.6000       288
    33.6200       282
    33.6400       258
    33.6600       232
    33.6800       284
    33.7000       252
    33.7200       230
    33.7400       242
    33.7600       268
    33.7800       234
    33.8000       256
    33.8200       244
    33.8400       232
    33.8600       252
    33.8800       288
    33.9000       262
    33.9200       276
    33.9400       270
    33.9600       244
    33.9800       232
    34.0000       274
    34.0200       264
    34.0400       278
    34.0600       302
    34.0800       288
    34.1000       284
    34.1200       306
    34.1400       268
    34.1600       306
    34.1800       310
    34.2000       278
    34.2200       312
    34.2400       316
    34.2600       350
    34.2800       370
    34.3000       364
    34.3200       392
    34.3400       442
    34.3600       470
    34.3800       556
    34.4000       566
    34.4200       614
    34.4400       676
    34.4600       778
    34.4800       834
    34.5000       896
    34.5200       850
    34.5400       834
    34.5600       728
    34.5800       700
    34.6000       700
    34.6200       624
    34.6400       512
    34.6600       540
    34.6800       432
    34.7000       384
    34.7200       382
    34.7400       342
    34.7600       354
    34.7800       346
    34.8000       320
    34.8200       366
    34.8400       304
    34.8600       336
    34.8800       326
    34.9000       306
    34.9200       294
    34.9400       300
    34.9600       316
    34.9800       304
    35.0000       286
    35.0200       264
    35.0400       290
    35.0600       278
    35.0800       264
    35.1000       278
    35.1200       254
    35.1400       274
    35.1600       276
    35.1800       270
    35.2000       260
    35.2200       262
    35.2400       274
    35.2600       260
    35.2800       254
    35.3000       254
    35.3200       276
    35.3400       242
    35.3600       272
    35.3800       292
    35.4000       282
    35.4200       240
    35.4400       322
    35.4600       268
    35.4800       304
    35.5000       272
    35.5200       284
    35.5400       300
    35.5600       314
    35.5800       292
    35.6000       302
    35.6200       300
    35.6400       316
    35.6600       308
    35.6800       320
    35.7000       362
    35.7200       342
    35.7400       332
    35.7600       338
    35.7800       368
    35.8000       400
    35.8200       364
    35.8400       426
    35.8600       418
    35.8800       438
    35.9000       480
    35.9200       502
    35.9400       584
    35.9600       606
    35.9800       678
    36.0000       692
    36.0200       784
    36.0400       858
    36.0600       858
    36.0800       908
    36.1000      1018
    36.1200      1048
    36.1400      1036
    36.1600      1052
    36.1800       986
    36.2000       946
    36.2200       872
    36.2400       798
    36.2600       768
    36.2800       682
    36.3000       622
    36.3200       588
    36.3400       502
    36.3600       512
    36.3800       442
    36.4000       452
    36.4200       424
    36.4400       404
    36.4600       410
    36.4800       394
    36.5000       386
    36.5200       384
    36.5400       436
    36.5600       416
    36.5800       424
    36.6000       478
    36.6200       474
    36.6400       510
    36.6600       476
    36.6800       530
    36.7000       600
    36.7200       668
    36.7400       682
    36.7600       754
    36.7800       832
    36.8000       922
    36.8200      1012
    36.8400      1090
    36.8600      1232
    36.8800      1320
    36.9000      1384
    36.9200      1404
    36.9400      1374
    36.9600      1362
    36.9800      1260
    37.0000      1288
    37.0200      1174
    37.0400      1068
    37.0600       998
    37.0800       954
    37.1000       964
    37.1200       916
    37.1400       960
    37.1600       830
    37.1800       896
    37.2000       878
    37.2200       842
    37.2400       812
    37.2600       784
    37.2800       732
    37.3000       678
    37.3200       618
    37.3400       580
    37.3600       586
    37.3800       500
    37.4000       532
    37.4200       516
    37.4400       464
    37.4600       454
    37.4800       458
    37.5000       398
    37.5200       466
    37.5400       436
    37.5600       438
    37.5800       454
    37.6000       468
    37.6200       466
    37.6400       476
    37.6600       500
    37.6800       482
    37.7000       502
    37.7200       496
    37.7400       546
    37.7600       546
    37.7800       554
    37.8000       624
    37.8200       656
    37.8400       680
    37.8600       692
    37.8800       782
    37.9000       840
    37.9200       910
    37.9400      1024
    37.9600      1156
    37.9800      1234
    38.0000      1280
    38.0200      1432
    38.0400      1428
    38.0600      1562
    38.0800      1596
    38.1000      1574
    38.1200      1552
    38.1400      1480
    38.1600      1414
    38.1800      1330
    38.2000      1368
    38.2200      1436
    38.2400      1346
    38.2600      1414
    38.2800      1548
    38.3000      1558
    38.3200      1672
    38.3400      1898
    38.3600      2078
    38.3800      2256
    38.4000      2540
    38.4200      2756
    38.4400      3234
    38.4600      3664
    38.4800      4016
    38.5000      4448
    38.5200      4802
    38.5400      5082
    38.5600      5392
    38.5800      5754
    38.6000      6072
    38.6200      6484
    38.6400      6594
    38.6600      6482
    38.6800      6402
    38.7000      6072
    38.7200      5642
    38.7400      5358
    38.7600      4970
    38.7800      4636
    38.8000      4230
    38.8200      3702
    38.8400      3304
    38.8600      2806
    38.8800      2486
    38.9000      2338
    38.9200      2028
    38.9400      1922
    38.9600      1710
    38.9800      1584
    39.0000      1410
    39.0200      1396
    39.0400      1376
    39.0600      1346
    39.0800      1358
    39.1000      1380
    39.1200      1316
    39.1400      1262
    39.1600      1284
    39.1800      1274
    39.2000      1314
    39.2200      1336
    39.2400      1298
    39.2600      1334
    39.2800      1418
    39.3000      1370
    39.3200      1458
    39.3400      1346
    39.3600      1372
    39.3800      1394
    39.4000      1380
    39.4200      1350
    39.4400      1290
    39.4600      1292
    39.4800      1142
    39.5000      1224
    39.5200      1168
    39.5400      1208
    39.5600      1148
    39.5800      1206
    39.6000      1214
    39.6200      1274
    39.6400      1400
    39.6600      1446
    39.6800      1518
    39.7000      1586
    39.7200      1690
    39.7400      1726
    39.7600      1772
    39.7800      1650
    39.8000      1584
    39.8200      1514
    39.8400      1394
    39.8600      1278
    39.8800      1178
    39.9000      1074
    39.9200      1080
    39.9400       898
    39.9600       824
    39.9800       866
    40.0000       792
    40.0200       874
    40.0400       844
    40.0600       842
    40.0800       886
    40.1000       928
    40.1200       926
    40.1400       962
    40.1600      1008
    40.1800      1064
    40.2000      1002
    40.2200       992
    40.2400      1048
    40.2600      1020
    40.2800      1000
    40.3000      1000
    40.3200      1016
    40.3400      1008
    40.3600      1040
    40.3800      1080
    40.4000      1130
    40.4200      1194
    40.4400      1320
    40.4600      1384
    40.4800      1496
    40.5000      1562
    40.5200      1702
    40.5400      1872
    40.5600      1720
    40.5800      1798
    40.6000      1758
    40.6200      1722
    40.6400      1690
    40.6600      1644
    40.6800      1522
    40.7000      1360
    40.7200      1306
    40.7400      1214
    40.7600      1106
    40.7800      1006
    40.8000       892
    40.8200       832
    40.8400       844
    40.8600       750
    40.8800       720
    40.9000       678
    40.9200       702
    40.9400       676
    40.9600       700
    40.9800       688
    41.0000       724
    41.0200       748
    41.0400       768
    41.0600       794
    41.0800       818
    41.1000       860
    41.1200       956
    41.1400       994
    41.1600      1094
    41.1800      1302
    41.2000      1272
    41.2200      1452
    41.2400      1652
    41.2600      1652
    41.2800      1784
    41.3000      1812
    41.3200      1862
    41.3400      1878
    41.3600      1946
    41.3800      1900
    41.4000      1964
    41.4200      1978
    41.4400      2106
    41.4600      2140
    41.4800      2148
    41.5000      2236
    41.5200      2020
    41.5400      2064
    41.5600      1990
    41.5800      1876
    41.6000      1680
    41.6200      1636
    41.6400      1594
    41.6600      1432
    41.6800      1272
    41.7000      1226
    41.7200      1098
    41.7400      1068
    41.7600      1050
    41.7800      1122
    41.8000      1034
    41.8200      1134
    41.8400      1194
    41.8600      1226
    41.8800      1300
    41.9000      1294
    41.9200      1288
    41.9400      1308
    41.9600      1398
    41.9800      1298
    42.0000      1272
    42.0200      1144
    42.0400      1122
    42.0600       972
    42.0800       898
    42.1000       888
    42.1200       726
    42.1400       722
    42.1600       664
    42.1800       640
    42.2000       544
    42.2200       578
    42.2400       538
    42.2600       524
    42.2800       502
    42.3000       492
    42.3200       448
    42.3400       454
    42.3600       462
    42.3800       448
    42.4000       426
    42.4200       418
    42.4400       448
    42.4600       394
    42.4800       412
    42.5000       364
    42.5200       400
    42.5400       414
    42.5600       410
    42.5800       428
    42.6000       392
    42.6200       380
    42.6400       448
    42.6600       414
    42.6800       412
    42.7000       408
    42.7200       420
    42.7400       414
    42.7600       394
    42.7800       398
    42.8000       418
    42.8200       404
    42.8400       400
    42.8600       430
    42.8800       428
    42.9000       412
    42.9200       480
    42.9400       536
    42.9600       474
    42.9800       562
    43.0000       534
    43.0200       670
    43.0400       666
    43.0600       688
    43.0800       790
    43.1000       834
    43.1200       906
    43.1400      1008
    43.1600      1048
    43.1800      1108
    43.2000      1256
    43.2200      1282
    43.2400      1370
    43.2600      1348
    43.2800      1330
    43.3000      1330
    43.3200      1220
    43.3400      1080
    43.3600      1068
    43.3800       906
    43.4000       876
    43.4200       790
    43.4400       746
    43.4600       636
    43.4800       616
    43.5000       544
    43.5200       514
    43.5400       516
    43.5600       484
    43.5800       494
    43.6000       516
    43.6200       464
    43.6400       454
    43.6600       478
    43.6800       528
    43.7000       506
    43.7200       490
    43.7400       558
    43.7600       512
    43.7800       552
    43.8000       598
    43.8200       590
    43.8400       600
    43.8600       620
    43.8800       616
    43.9000       592
    43.9200       588
    43.9400       570
    43.9600       606
    43.9800       534
    44.0000       476
    44.0200       550
    44.0400       480
    44.0600       490
    44.0800       498
    44.1000       448
    44.1200       466
    44.1400       460
    44.1600       460
    44.1800       464
    44.2000       496
    44.2200       500
    44.2400       512
    44.2600       524
    44.2800       514
    44.3000       556
    44.3200       504
    44.3400       496
    44.3600       480
    44.3800       538
    44.4000       464
    44.4200       496
    44.4400       538
    44.4600       516
    44.4800       482
    44.5000       514
    44.5200       552
    44.5400       568
    44.5600       558
    44.5800       520
    44.6000       538
    44.6200       606
    44.6400       598
    44.6600       574
    44.6800       626
    44.7000       674
    44.7200       648
    44.7400       732
    44.7600       726
    44.7800       750
    44.8000       806
    44.8200       810
    44.8400       890
    44.8600       962
    44.8800       976
    44.9000      1150
    44.9200      1212
    44.9400      1264
    44.9600      1538
    44.9800      1530
    45.0000      1652
    45.0200      1770
    45.0400      1928
    45.0600      1958
    45.0800      2116
    45.1000      2170
    45.1200      2160
    45.1400      2180
    45.1600      2394
    45.1800      2424
    45.2000      2524
    45.2200      2598
    45.2400      2570
    45.2600      2448
    45.2800      2490
    45.3000      2388
    45.3200      2288
    45.3400      2242
    45.3600      2054
    45.3800      2038
    45.4000      2018
    45.4200      2018
    45.4400      1932
    45.4600      1798
    45.4800      1740
    45.5000      1698
    45.5200      1560
    45.5400      1512
    45.5600      1410
    45.5800      1322
    45.6000      1230
    45.6200      1054
    45.6400      1100
    45.6600       972
    45.6800       928
    45.7000       868
    45.7200       792
    45.7400       808
    45.7600       714
    45.7800       702
    45.8000       664
    45.8200       640
    45.8400       638
    45.8600       670
    45.8800       670
    45.9000       584
    45.9200       588
    45.9400       586
    45.9600       590
    45.9800       564
    46.0000       584
    46.0200       634
    46.0400       586
    46.0600       630
    46.0800       620
    46.1000       608
    46.1200       678
    46.1400       598
    46.1600       664
    46.1800       678
    46.2000       658
    46.2200       806
    46.2400       726
    46.2600       778
    46.2800       848
    46.3000       896
    46.3200       914
    46.3400      1014
    46.3600      1076
    46.3800      1148
    46.4000      1256
    46.4200      1354
    46.4400      1422
    46.4600      1572
    46.4800      1814
    46.5000      1908
    46.5200      2154
    46.5400      2358
    46.5600      2546
    46.5800      2890
    46.6000      3212
    46.6200      3504
    46.6400      3814
    46.6600      4090
    46.6800      4546
    46.7000      4746
    46.7200      5046
    46.7400      5274
    46.7600      5444
    46.7800      5082
    46.8000      5012
    46.8200      4744
    46.8400      4444
    46.8600      4088
    46.8800      3884
    46.9000      3428
    46.9200      3108
    46.9400      2758
    46.9600      2338
    46.9800      2110
    47.0000      1864
    47.0200      1678
    47.0400      1428
    47.0600      1342
    47.0800      1194
    47.1000      1138
    47.1200      1028
    47.1400       970
    47.1600       862
    47.1800       826
    47.2000       772
    47.2200       718
    47.2400       700
    47.2600       618
    47.2800       616
    47.3000       550
    47.3200       564
    47.3400       576
    47.3600       574
    47.3800       520
    47.4000       552
    47.4200       512
    47.4400       452
    47.4600       470
    47.4800       502
    47.5000       492
    47.5200       522
    47.5400       494
    47.5600       500
    47.5800       476
    47.6000       470
    47.6200       478
    47.6400       402
    47.6600       464
    47.6800       488
    47.7000       498
    47.7200       452
    47.7400       498
    47.7600       492
    47.7800       540
    47.8000       558
    47.8200       568
    47.8400       604
    47.8600       602
    47.8800       664
    47.9000       596
    47.9200       628
    47.9400       616
    47.9600       662
    47.9800       582
    48.0000       596
    48.0200       656
    48.0400       596
    48.0600       582
    48.0800       578
    48.1000       582
    48.1200       602
    48.1400       668
    48.1600       640
    48.1800       670
    48.2000       678
    48.2200       648
    48.2400       706
    48.2600       736
    48.2800       772
    48.3000       756
    48.3200       798
    48.3400       758
    48.3600       720
    48.3800       782
    48.4000       782
    48.4200       822
    48.4400       830
    48.4600       854
    48.4800       918
    48.5000       962
    48.5200       980
    48.5400      1002
    48.5600      1038
    48.5800      1136
    48.6000      1104
    48.6200      1152
    48.6400      1090
    48.6600      1072
    48.6800      1064
    48.7000       986
    48.7200       984
    48.7400       960
    48.7600       884
    48.7800       780
    48.8000       796
    48.8200       668
    48.8400       636
    48.8600       642
    48.8800       606
    48.9000       568
    48.9200       560
    48.9400       488
    48.9600       464
    48.9800       448
    49.0000       390
    49.0200       408
    49.0400       406
    49.0600       404
    49.0800       420
    49.1000       358
    49.1200       344
    49.1400       356
    49.1600       364
    49.1800       342
    49.2000       360
    49.2200       378
    49.2400       332
    49.2600       362
    49.2800       344
    49.3000       310
    49.3200       292
    49.3400       304
    49.3600       328
    49.3800       324
    49.4000       322
    49.4200       330
    49.4400       296
    49.4600       312
    49.4800       332
    49.5000       330
    49.5200       326
    49.5400       348
    49.5600       308
    49.5800       358
    49.6000       372
    49.6200       386
    49.6400       330
    49.6600       384
    49.6800       372
    49.7000       372
    49.7200       374
    49.7400       352
    49.7600       364
    49.7800       356
    49.8000       342
    49.8200       390
    49.8400       396
    49.8600       390
    49.8800       398
    49.9000       394
    49.9200       400
    49.9400       430
    49.9600       452
    49.9800       466
    50.0000       508
    50.0200       502
    50.0400       582
    50.0600       566
    50.0800       632
    50.1000       658
    50.1200       630
    50.1400       762
    50.1600       836
    50.1800       862
    50.2000       932
    50.2200       978
    50.2400      1064
    50.2600      1142
    50.2800      1202
    50.3000      1210
    50.3200      1276
    50.3400      1288
    50.3600      1274
    50.3800      1292
    50.4000      1286
    50.4200      1276
    50.4400      1204
    50.4600      1176
    50.4800      1220
    50.5000      1206
    50.5200      1148
    50.5400      1244
    50.5600      1232
    50.5800      1230
    50.6000      1240
    50.6200      1340
    50.6400      1444
    50.6600      1532
    50.6800      1688
    50.7000      1826
    50.7200      1942
    50.7400      2128
    50.7600      2196
    50.7800      2394
    50.8000      2578
    50.8200      2642
    50.8400      2534
    50.8600      2322
    50.8800      2400
    50.9000      2216
    50.9200      2258
    50.9400      2142
    50.9600      1896
    50.9800      1910
    51.0000      1736
    51.0200      1638
    51.0400      1438
    51.0600      1366
    51.0800      1190
    51.1000      1216
    51.1200      1080
    51.1400      1062
    51.1600       964
    51.1800       886
    51.2000       874
    51.2200       878
    51.2400       850
    51.2600       782
    51.2800       798
    51.3000       804
    51.3200       754
    51.3400       824
    51.3600       796
    51.3800       780
    51.4000       830
    51.4200       814
    51.4400       818
    51.4600       822
    51.4800       816
    51.5000       806
    51.5200       818
    51.5400       810
    51.5600       832
    51.5800       838
    51.6000       828
    51.6200       908
    51.6400       834
    51.6600       954
    51.6800       930
    51.7000      1080
    51.7200      1086
    51.7400      1116
    51.7600      1218
    51.7800      1252
    51.8000      1324
    51.8200      1468
    51.8400      1528
    51.8600      1706
    51.8800      1844
    51.9000      1936
    51.9200      2046
    51.9400      2236
    51.9600      2288
    51.9800      2494
    52.0000      2438
    52.0200      2410
    52.0400      2350
    52.0600      2220
    52.0800      2050
    52.1000      2030
    52.1200      1866
    52.1400      1814
    52.1600      1610
    52.1800      1470
    52.2000      1412
    52.2200      1262
    52.2400      1080
    52.2600      1030
    52.2800       946
    52.3000       870
    52.3200       808
    52.3400       794
    52.3600       800
    52.3800       760
    52.4000       748
    52.4200       768
    52.4400       812
    52.4600       792
    52.4800       852
    52.5000       852
    52.5200       898
    52.5400       936
    52.5600      1002
    52.5800      1036
    52.6000      1110
    52.6200      1164
    52.6400      1152
    52.6600      1204
    52.6800      1244
    52.7000      1186
    52.7200      1256
    52.7400      1348
    52.7600      1348
    52.7800      1264
    52.8000      1216
    52.8200      1112
    52.8400      1192
    52.8600      1078
    52.8800      1118
    52.9000       924
    52.9200      1008
    52.9400       910
    52.9600       874
    52.9800       770
    53.0000       792
    53.0200       782
    53.0400       794
    53.0600       724
    53.0800       704
    53.1000       720
    53.1200       760
    53.1400       804
    53.1600       844
    53.1800       874
    53.2000       904
    53.2200       956
    53.2400      1032
    53.2600      1086
    53.2800      1164
    53.3000      1176
    53.3200      1222
    53.3400      1210
    53.3600      1222
    53.3800      1208
    53.4000      1134
    53.4200      1112
    53.4400       990
    53.4600       992
    53.4800       956
    53.5000       934
    53.5200       868
    53.5400       874
    53.5600       780
    53.5800       726
    53.6000       750
    53.6200       704
    53.6400       652
    53.6600       680
    53.6800       668
    53.7000       604
    53.7200       622
    53.7400       602
    53.7600       602
    53.7800       568
    53.8000       560
    53.8200       534
    53.8400       558
    53.8600       522
    53.8800       524
    53.9000       520
    53.9200       526
    53.9400       512
    53.9600       494
    53.9800       534
    54.0000       504
    54.0200       522
    54.0400       504
    54.0600       532
    54.0800       488
    54.1000       550
    54.1200       532
    54.1400       594
    54.1600       552
    54.1800       630
    54.2000       628
    54.2200       676
    54.2400       706
    54.2600       734
    54.2800       738
    54.3000       736
    54.3200       766
    54.3400       732
    54.3600       768
    54.3800       790
    54.4000       842
    54.4200       856
    54.4400       862
    54.4600       870
    54.4800       860
    54.5000       932
    54.5200       944
    54.5400       864
    54.5600       876
    54.5800       954
    54.6000       870
    54.6200       844
    54.6400       798
    54.6600       844
    54.6800       858
    54.7000       832
    54.7200       810
    54.7400       808
    54.7600       882
    54.7800       824
    54.8000       858
    54.8200       824
    54.8400       770
    54.8600       784
    54.8800       740
    54.9000       782
    54.9200       750
    54.9400       808
    54.9600       832
    54.9800       768
    55.0000       772
    55.0200       846
    55.0400       874
    55.0600       892
    55.0800       878
    55.1000       950
    55.1200       920
    55.1400       986
    55.1600       980
    55.1800      1022
    55.2000      1048
    55.2200      1020
    55.2400      1022
    55.2600       968
    55.2800      1004
    55.3000       944
    55.3200       912
    55.3400       894
    55.3600       880
    55.3800       874
    55.4000       860
    55.4200       820
    55.4400       788
    55.4600       712
    55.4800       720
    55.5000       616
    55.5200       668
    55.5400       576
    55.5600       624
    55.5800       552
    55.6000       516
    55.6200       484
    55.6400       492
    55.6600       458
    55.6800       434
    55.7000       470
    55.7200       402
    55.7400       420
    55.7600       424
    55.7800       396
    55.8000       376
    55.8200       376
    55.8400       382
    55.8600       410
    55.8800       352
    55.9000       390
    55.9200       358
    55.9400       374
    55.9600       346
    55.9800       328
    56.0000       338
    56.0200       326
    56.0400       332
    56.0600       308
    56.0800       364
    56.1000       352
    56.1200       340
    56.1400       348
    56.1600       374
    56.1800       318
    56.2000       368
    56.2200       362
    56.2400       352
    56.2600       364
    56.2800       390
    56.3000       360
    56.3200       360
    56.3400       366
    56.3600       404
    56.3800       388
    56.4000       410
    56.4200       380
    56.4400       392
    56.4600       418
    56.4800       444
    56.5000       392
    56.5200       406
    56.5400       436
    56.5600       468
    56.5800       502
    56.6000       484
    56.6200       512
    56.6400       524
    56.6600       562
    56.6800       598
    56.7000       660
    56.7200       670
    56.7400       716
    56.7600       740
    56.7800       726
    56.8000       772
    56.8200       828
    56.8400       732
    56.8600       762
    56.8800       658
    56.9000       740
    56.9200       666
    56.9400       646
    56.9600       608
    56.9800       608
    57.0000       586
    57.0200       602
    57.0400       554
    57.0600       562
    57.0800       602
    57.1000       520
    57.1200       594
    57.1400       560
    57.1600       552
    57.1800       564
    57.2000       572
    57.2200       650
    57.2400       652
    57.2600       606
    57.2800       730
    57.3000       750
    57.3200       812
    57.3400       886
    57.3600       898
    57.3800       934
    57.4000      1042
    57.4200      1038
    57.4400      1090
    57.4600      1130
    57.4800      1112
    57.5000      1102
    57.5200      1058
    57.5400      1048
    57.5600      1066
    57.5800      1044
    57.6000       974
    57.6200      1016
    57.6400       980
    57.6600      1010
    57.6800      1018
    57.7000      1062
    57.7200      1058
    57.7400      1074
    57.7600      1106
    57.7800      1164
    57.8000      1152
    57.8200      1096
    57.8400      1080
    57.8600      1028
    57.8800      1050
    57.9000      1024
    57.9200       920
    57.9400       960
    57.9600       904
    57.9800       894
    58.0000       866
    58.0200       880
    58.0400       836
    58.0600       768
    58.0800       682
    58.1000       772
    58.1200       708
    58.1400       702
    58.1600       678
    58.1800       688
    58.2000       698
    58.2200       692
    58.2400       724
    58.2600       740
    58.2800       750
    58.3000       786
    58.3200       852
    58.3400       876
    58.3600       952
    58.3800       976
    58.4000      1016
    58.4200      1086
    58.4400      1094
    58.4600      1176
    58.4800      1174
    58.5000      1262
    58.5200      1346
    58.5400      1400
    58.5600      1480
    58.5800      1534
    58.6000      1612
    58.6200      1688
    58.6400      1774
    58.6600      1928
    58.6800      1882
    58.7000      2004
    58.7200      2004
    58.7400      2080
    58.7600      2214
    58.7800      2170
    58.8000      2140
    58.8200      2080
    58.8400      2082
    58.8600      2076
    58.8800      1954
    58.9000      1964
    58.9200      1802
    58.9400      1714
    58.9600      1664
    58.9800      1584
    59.0000      1474
    59.0200      1432
    59.0400      1334
    59.0600      1216
    59.0800      1254
    59.1000      1156
    59.1200      1134
    59.1400      1100
    59.1600      1132
    59.1800      1104
    59.2000      1138
    59.2200      1150
    59.2400      1192
    59.2600      1268
    59.2800      1308
    59.3000      1402
    59.3200      1544
    59.3400      1610
    59.3600      1708
    59.3800      1828
    59.4000      1950
    59.4200      2128
    59.4400      2144
    59.4600      2146
    59.4800      2042
    59.5000      2046
    59.5200      1948
    59.5400      1940
    59.5600      1856
    59.5800      1738
    59.6000      1824
    59.6200      1684
    59.6400      1542
    59.6600      1568
    59.6800      1404
    59.7000      1374
    59.7200      1296
    59.7400      1174
    59.7600      1178
    59.7800      1088
    59.8000      1088
    59.8200      1058
    59.8400       990
    59.8600      1000
    59.8800       892
    59.9000       896
    59.9200       836
    59.9400       806
    59.9600       728
    59.9800       766
    60.0000       732
    60.0200       688
    60.0400       612
    60.0600       624
    60.0800       600
    60.1000       608
    60.1200       494
    60.1400       528
    60.1600       520
    60.1800       470
    60.2000       476
    60.2200       444
    60.2400       480
    60.2600       434
    60.2800       414
    60.3000       372
    60.3200       406
    60.3400       424
    60.3600       404
    60.3800       410
    60.4000       398
    60.4200       374
    60.4400       416
    60.4600       432
    60.4800       398
    60.5000       408
    60.5200       424
    60.5400       416
    60.5600       386
    60.5800       364
    60.6000       380
    60.6200       366
    60.6400       384
    60.6600       378
    60.6800       414
    60.7000       384
    60.7200       388
    60.7400       356
    60.7600       412
    60.7800       376
    60.8000       418
    60.8200       412
    60.8400       444
    60.8600       426
    60.8800       440
    60.9000       486
    60.9200       514
    60.9400       486
    60.9600       502
    60.9800       474
    61.0000       506
    61.0200       550
    61.0400       560
    61.0600       608
    61.0800       604
    61.1000       684
    61.1200       718
    61.1400       728
    61.1600       778
    61.1800       726
    61.2000       742
    61.2200       784
    61.2400       874
    61.2600       844
    61.2800       862
    61.3000       894
    61.3200       942
    61.3400       942
    61.3600       954
    61.3800      1030
    61.4000      1046
    61.4200      1134
    61.4400      1174
    61.4600      1302
    61.4800      1338
    61.5000      1366
    61.5200      1480
    61.5400      1562
    61.5600      1636
    61.5800      1766
    61.6000      1640
    61.6200      1682
    61.6400      1544
    61.6600      1600
    61.6800      1524
    61.7000      1414
    61.7200      1354
    61.7400      1408
    61.7600      1244
    61.7800      1294
    61.8000      1138
    61.8200      1056
    61.8400      1036
    61.8600       942
    61.8800       882
    61.9000       838
    61.9200       780
    61.9400       764
    61.9600       672
    61.9800       716
    62.0000       642
    62.0200       618
    62.0400       596
    62.0600       598
    62.0800       602
    62.1000       594
    62.1200       588
    62.1400       568
    62.1600       558
    62.1800       580
    62.2000       580
    62.2200       542
    62.2400       540
    62.2600       510
    62.2800       502
    62.3000       538
    62.3200       480
    62.3400       530
    62.3600       442
    62.3800       472
    62.4000       444
    62.4200       428
    62.4400       422
    62.4600       442
    62.4800       412
    62.5000       466
    62.5200       406
    62.5400       400
    62.5600       396
    62.5800       426
    62.6000       390
    62.6200       410
    62.6400       380
    62.6600       396
    62.6800       404
    62.7000       372
    62.7200       394
    62.7400       364
    62.7600       370
    62.7800       414
    62.8000       372
    62.8200       408
    62.8400       386
    62.8600       376
    62.8800       358
    62.9000       352
    62.9200       342
    62.9400       364
    62.9600       346
    62.9800       324
    63.0000       348
    63.0200       294
    63.0400       304
    63.0600       294
    63.0800       280
    63.1000       286
    63.1200       278
    63.1400       312
    63.1600       300
    63.1800       308
    63.2000       282
    63.2200       280
    63.2400       324
    63.2600       292
    63.2800       308
    63.3000       278
    63.3200       314
    63.3400       278
    63.3600       290
    63.3800       278
    63.4000       318
    63.4200       338
    63.4400       318
    63.4600       324
    63.4800       324
    63.5000       352
    63.5200       380
    63.5400       354
    63.5600       392
    63.5800       388
    63.6000       404
    63.6200       424
    63.6400       450
    63.6600       484
    63.6800       490
    63.7000       500
    63.7200       518
    63.7400       542
    63.7600       618
    63.7800       636
    63.8000       698
    63.8200       776
    63.8400       824
    63.8600       866
    63.8800       888
    63.9000       842
    63.9200       926
    63.9400       914
    63.9600       842
    63.9800       880
    64.0000       796
    64.0200       826
    64.0400       780
    64.0600       764
    64.0800       700
    64.1000       652
    64.1200       666
    64.1400       656
    64.1600       612
    64.1800       588
    64.2000       538
    64.2200       534
    64.2400       488
    64.2600       442
    64.2800       446
    64.3000       396
    64.3200       416
    64.3400       376
    64.3600       378
    64.3800       348
    64.4000       312
    64.4200       370
    64.4400       354
    64.4600       322
    64.4800       282
    64.5000       302
    64.5200       326
    64.5400       276
    64.5600       288
    64.5800       306
    64.6000       282
    64.6200       290
    64.6400       308
    64.6600       296
    64.6800       300
    64.7000       266
    64.7200       286
    64.7400       256
    64.7600       266
    64.7800       326
    64.8000       302
    64.8200       308
    64.8400       260
    64.8600       294
    64.8800       286
    64.9000       338
    64.9200       306
    64.9400       316
    64.9600       334
    64.9800       358
    65.0000       350
    65.0200       338
    65.0400       318
    65.0600       402
    65.0800       412
    65.1000       384
    65.1200       366
    65.1400       392
    65.1600       414
    65.1800       396
    65.2000       404
    65.2200       410
    65.2400       440
    65.2600       424
    65.2800       434
    65.3000       436
    65.3200       420
    65.3400       454
    65.3600       456
    65.3800       446
    65.4000       478
    65.4200       448
    65.4400       464
    65.4600       414
    65.4800       434
    65.5000       452
    65.5200       452
    65.5400       396
    65.5600       408
    65.5800       404
    65.6000       442
    65.6200       416
    65.6400       424
    65.6600       408
    65.6800       388
    65.7000       430
    65.7200       400
    65.7400       344
    65.7600       336
    65.7800       360
    65.8000       346
    65.8200       342
    65.8400       326
    65.8600       318
    65.8800       342
    65.9000       308
    65.9200       324
    65.9400       322
    65.9600       314
    65.9800       276
    66.0000       292
    66.0200       310
    66.0400       258
    66.0600       316
    66.0800       318
    66.1000       298
    66.1200       276
    66.1400       294
    66.1600       286
    66.1800       306
    66.2000       294
    66.2200       278
    66.2400       268
    66.2600       296
    66.2800       304
    66.3000       318
    66.3200       320
    66.3400       306
    66.3600       296
    66.3800       310
    66.4000       316
    66.4200       326
    66.4400       344
    66.4600       356
    66.4800       336
    66.5000       346
    66.5200       390
    66.5400       360
    66.5600       382
    66.5800       386
    66.6000       364
    66.6200       386
    66.6400       408
    66.6600       358
    66.6800       430
    66.7000       400
    66.7200       462
    66.7400       512
    66.7600       478
    66.7800       486
    66.8000       542
    66.8200       538
    66.8400       558
    66.8600       626
    66.8800       628
    66.9000       644
    66.9200       656
    66.9400       688
    66.9600       658
    66.9800       724
    67.0000       734
    67.0200       756
    67.0400       696
    67.0600       710
    67.0800       664
    67.1000       666
    67.1200       626
    67.1400       596
    67.1600       614
    67.1800       606
    67.2000       560
    67.2200       510
    67.2400       556
    67.2600       514
    67.2800       474
    67.3000       456
    67.3200       442
    67.3400       424
    67.3600       392
    67.3800       378
    67.4000       448
    67.4200       368
    67.4400       342
    67.4600       374
    67.4800       344
    67.5000       356
    67.5200       358
    67.5400       366
    67.5600       356
    67.5800       342
    67.6000       370
    67.6200       350
    67.6400       344
    67.6600       288
    67.6800       362
    67.7000       352
    67.7200       322
    67.7400       346
    67.7600       352
    67.7800       358
    67.8000       324
    67.8200       350
    67.8400       342
    67.8600       360
    67.8800       372
    67.9000       412
    67.9200       406
    67.9400       454
    67.9600       456
    67.9800       474
    68.0000       486
    68.0200       566
    68.0400       548
    68.0600       578
    68.0800       570
    68.1000       656
    68.1200       656
    68.1400       682
    68.1600       766
    68.1800       810
    68.2000       796
    68.2200       780
    68.2400       828
    68.2600       860
    68.2800       846
    68.3000       858
    68.3200       888
    68.3400       832
    68.3600       802
    68.3800       808
    68.4000       836
    68.4200       786
    68.4400       778
    68.4600       770
    68.4800       730
    68.5000       678
    68.5200       640
    68.5400       644
    68.5600       640
    68.5800       592
    68.6000       602
    68.6200       576
    68.6400       504
    68.6600       534
    68.6800       492
    68.7000       478
    68.7200       488
    68.7400       440
    68.7600       414
    68.7800       442
    68.8000       450
    68.8200       430
    68.8400       392
    68.8600       412
    68.8800       400
    68.9000       388
    68.9200       358
    68.9400       382
    68.9600       370
    68.9800       402
    69.0000       384
    69.0200       336
    69.0400       382
    69.0600       374
    69.0800       406
    69.1000       372
    69.1200       388
    69.1400       432
    69.1600       412
    69.1800       390
    69.2000       442
    69.2200       440
    69.2400       406
    69.2600       470
    69.2800       414
    69.3000       444
    69.3200       426
    69.3400       448
    69.3600       470
    69.3800       466
    69.4000       484
    69.4200       486
    69.4400       496
    69.4600       470
    69.4800       480
    69.5000       488
    69.5200       502
    69.5400       542
    69.5600       460
    69.5800       476
    69.6000       468
    69.6200       460
    69.6400       472
    69.6600       476
    69.6800       486
    69.7000       422
    69.7200       466
    69.7400       446
    69.7600       482
    69.7800       488
    69.8000       460
    69.8200       476
    69.8400       494
    69.8600       502
    69.8800       498
    69.9000       480
    69.9200       442
    69.9400       436
    69.9600       470
    69.9800       458
    70.0000       426
    70.0200       396
    70.0400       422
    70.0600       412
    70.0800       416
    70.1000       388
    70.1200       384
    70.1400       354
    70.1600       386
    70.1800       362
    70.2000       354
    70.2200       314
    70.2400       318
    70.2600       302
    70.2800       294
    70.3000       290
    70.3200       292
    70.3400       302
    70.3600       266
    70.3800       296
    70.4000       296
    70.4200       284
    70.4400       264
    70.4600       256
    70.4800       276
    70.5000       238
    70.5200       264
    70.5400       238
    70.5600       242
    70.5800       308
    70.6000       270
    70.6200       264
    70.6400       268
    70.6600       252
    70.6800       260
    70.7000       220
    70.7200       236
    70.7400       232
    70.7600       242
    70.7800       238
    70.8000       260
    70.8200       266
    70.8400       248
    70.8600       222
    70.8800       250
    70.9000       214
    70.9200       232
    70.9400       238
    70.9600       254
    70.9800       212
    71.0000       248
    71.0200       232
    71.0400       230
    71.0600       254
    71.0800       230
    71.1000       238
    71.1200       228
    71.1400       248
    71.1600       262
    71.1800       252
    71.2000       252
    71.2200       264
    71.2400       306
    71.2600       240
    71.2800       292
    71.3000       292
    71.3200       286
    71.3400       316
    71.3600       300
    71.3800       332
    71.4000       352
    71.4200       380
    71.4400       372
    71.4600       372
    71.4800       422
    71.5000       398
    71.5200       456
    71.5400       446
    71.5600       466
    71.5800       510
    71.6000       436
    71.6200       472
    71.6400       462
    71.6600       474
    71.6800       502
    71.7000       476
    71.7200       492
    71.7400       464
    71.7600       480
    71.7800       522
    71.8000       458
    71.8200       450
    71.8400       430
    71.8600       436
    71.8800       396
    71.9000       464
    71.9200       408
    71.9400       404
    71.9600       380
    71.9800       428
    72.0000       410
    72.0200       388
    72.0400       404
    72.0600       402
    72.0800       394
    72.1000       366
    72.1200       404
    72.1400       376
    72.1600       384
    72.1800       380
    72.2000       416
    72.2200       384
    72.2400       412
    72.2600       418
    72.2800       428
    72.3000       386
    72.3200       438
    72.3400       436
    72.3600       472
    72.3800       502
    72.4000       472
    72.4200       530
    72.4400       490
    72.4600       530
    72.4800       504
    72.5000       542
    72.5200       528
    72.5400       582
    72.5600       574
    72.5800       612
    72.6000       560
    72.6200       608
    72.6400       610
    72.6600       584
    72.6800       666
    72.7000       636
    72.7200       692
    72.7400       666
    72.7600       694
    72.7800       638
    72.8000       686
    72.8200       652
    72.8400       630
    72.8600       654
    72.8800       574
    72.9000       612
    72.9200       598
    72.9400       568
    72.9600       570
    72.9800       582
    73.0000       588
    73.0200       550
    73.0400       560
    73.0600       470
    73.0800       462
    73.1000       478
    73.1200       474
    73.1400       428
    73.1600       400
    73.1800       368
    73.2000       384
    73.2200       364
    73.2400       356
    73.2600       320
    73.2800       374
    73.3000       330
    73.3200       318
    73.3400       302
    73.3600       270
    73.3800       298
    73.4000       270
    73.4200       280
    73.4400       272
    73.4600       272
    73.4800       254
    73.5000       246
    73.5200       252
    73.5400       222
    73.5600       264
    73.5800       254
    73.6000       242
    73.6200       244
    73.6400       252
    73.6600       274
    73.6800       250
    73.7000       244
    73.7200       248
    73.7400       278
    73.7600       274
    73.7800       248
    73.8000       252
    73.8200       298
    73.8400       246
    73.8600       286
    73.8800       272
    73.9000       258
    73.9200       280
    73.9400       280
    73.9600       286
    73.9800       276
    74.0000       288
    74.0200       282
    74.0400       274
    74.0600       298
    74.0800       298
    74.1000       308
    74.1200       292
    74.1400       278
    74.1600       310
    74.1800       308
    74.2000       318
    74.2200       262
    74.2400       244
    74.2600       276
    74.2800       278
    74.3000       278
    74.3200       230
    74.3400       248
    74.3600       270
    74.3800       250
    74.4000       246
    74.4200       222
    74.4400       240
    74.4600       240
    74.4800       220
    74.5000       208
    74.5200       248
    74.5400       210
    74.5600       236
    74.5800       214
    74.6000       208
    74.6200       232
    74.6400       204
    74.6600       204
    74.6800       202
    74.7000       198
    74.7200       202
    74.7400       194
    74.7600       198
    74.7800       218
    74.8000       224
    74.8200       224
    74.8400       204
    74.8600       172
    74.8800       194
    74.9000       230
    74.9200       230
    74.9400       192
    74.9600       216
    74.9800       212
    75.0000       186
    75.0200       220
    75.0400       220
    75.0600       254
    75.0800       212
    75.1000       248
    75.1200       242
    75.1400       214
    75.1600       224
    75.1800       244
    75.2000       246
    75.2200       240
    75.2400       222
    75.2600       274
    75.2800       264
    75.3000       230
    75.3200       222
    75.3400       240
    75.3600       248
    75.3800       250
    75.4000       248
    75.4200       286
    75.4400       276
    75.4600       260
    75.4800       282
    75.5000       280
    75.5200       292
    75.5400       246
    75.5600       266
    75.5800       296
    75.6000       306
    75.6200       266
    75.6400       316
    75.6600       278
    75.6800       278
    75.7000       312
    75.7200       300
    75.7400       278
    75.7600       294
    75.7800       298
    75.8000       272
    75.8200       308
    75.8400       264
    75.8600       290
    75.8800       302
    75.9000       268
    75.9200       326
    75.9400       288
    75.9600       284
    75.9800       306
    76.0000       298
    76.0200       276
    76.0400       308
    76.0600       284
    76.0800       252
    76.1000       294
    76.1200       288
    76.1400       272
    76.1600       268
    76.1800       280
    76.2000       274
    76.2200       278
    76.2400       274
    76.2600       260
    76.2800       298
    76.3000       292
    76.3200       310
    76.3400       332
    76.3600       292
    76.3800       336
    76.4000       324
    76.4200       366
    76.4400       342
    76.4600       352
    76.4800       340
    76.5000       368
    76.5200       342
    76.5400       378
    76.5600       374
    76.5800       416
    76.6000       372
    76.6200       386
    76.6400       422
    76.6600       392
    76.6800       392
    76.7000       470
    76.7200       376
    76.7400       374
    76.7600       426
    76.7800       388
    76.8000       390
    76.8200       374
    76.8400       422
    76.8600       396
    76.8800       380
    76.9000       362
    76.9200       372
    76.9400       362
    76.9600       354
    76.9800       362
    77.0000       314
    77.0200       324
    77.0400       386
    77.0600       380
    77.0800       350
    77.1000       352
    77.1200       328
    77.1400       346
    77.1600       340
    77.1800       318
    77.2000       358
    77.2200       354
    77.2400       366
    77.2600       434
    77.2800       362
    77.3000       368
    77.3200       370
    77.3400       430
    77.3600       398
    77.3800       356
    77.4000       410
    77.4200       378
    77.4400       448
    77.4600       432
    77.4800       416
    77.5000       474
    77.5200       442
    77.5400       474
    77.5600       500
    77.5800       492
    77.6000       506
    77.6200       488
    77.6400       526
    77.6600       588
    77.6800       558
    77.7000       588
    77.7200       612
    77.7400       574
    77.7600       594
    77.7800       568
    77.8000       586
    77.8200       600
    77.8400       606
    77.8600       616
    77.8800       546
    77.9000       600
    77.9200       556
    77.9400       534
    77.9600       528
    77.9800       552
    78.0000       530
    78.0200       506
    78.0400       482
    78.0600       462
    78.0800       460
    78.1000       464
    78.1200       424
    78.1400       398
    78.1600       402
    78.1800       376
    78.2000       388
    78.2200       394
    78.2400       350
    78.2600       338
    78.2800       332
    78.3000       340
    78.3200       342
    78.3400       348
    78.3600       344
    78.3800       350
    78.4000       346
    78.4200       354
    78.4400       340
    78.4600       346
    78.4800       332
    78.5000       368
    78.5200       358
    78.5400       348
    78.5600       372
    78.5800       392
    78.6000       420
    78.6200       374
    78.6400       416
    78.6600       390
    78.6800       432
    78.7000       412
    78.7200       424
    78.7400       398
    78.7600       406
    78.7800       410
    78.8000       416
    78.8200       402
    78.8400       396
    78.8600       386
    78.8800       374
    78.9000       348
    78.9200       364
    78.9400       364
    78.9600       382
    78.9800       366
    79.0000       358
    79.0200       362
    79.0400       316
    79.0600       298
    79.0800       314
    79.1000       316
    79.1200       298
    79.1400       312
    79.1600       256
    79.1800       302
    79.2000       296
    79.2200       300
    79.2400       268
    79.2600       268
    79.2800       300
    79.3000       288
    79.3200       266
    79.3400       284
    79.3600       278
    79.3800       242
    79.4000       280
    79.4200       252
    79.4400       274
    79.4600       254
    79.4800       252
    79.5000       244
    79.5200       242
    79.5400       240
    79.5600       292
    79.5800       276
    79.6000       260
    79.6200       258
    79.6400       278
    79.6600       282
    79.6800       238
    79.7000       248
    79.7200       242
    79.7400       258
    79.7600       264
    79.7800       252
    79.8000       240
    79.8200       246
    79.8400       236
    79.8600       214
    79.8800       262
    79.9000       262
    79.9200       264
    79.9400       232
    79.9600       250
    79.9800       254
    80.0000       238
    80.0200       272
    80.0400       254
    80.0600       246
    80.0800       240
    80.1000       260
    80.1200       266
    80.1400       242
    80.1600       276
    80.1800       216
    80.2000       228
    80.2200       272
    80.2400       256
    80.2600       282
    80.2800       244
    80.3000       234
    80.3200       256
    80.3400       294
    80.3600       278
    80.3800       266
    80.4000       250
    80.4200       304
    80.4400       276
    80.4600       284
    80.4800       268
    80.5000       250
    80.5200       268
    80.5400       292
    80.5600       292
    80.5800       280
    80.6000       262
    80.6200       294
    80.6400       264
    80.6600       282
    80.6800       280
    80.7000       240
    80.7200       266
    80.7400       270
    80.7600       254
    80.7800       254
    80.8000       262
    80.8200       262
    80.8400       240
    80.8600       230
    80.8800       236
    80.9000       220
    80.9200       226
    80.9400       252
    80.9600       224
    80.9800       220
    81.0000       236
    81.0200       196
    81.0400       216
    81.0600       216
    81.0800       210
    81.1000       228
    81.1200       214
    81.1400       244
    81.1600       226
    81.1800       230
    81.2000       216
    81.2200       246
    81.2400       228
    81.2600       254
    81.2800       246
    81.3000       244
    81.3200       218
    81.3400       240
    81.3600       272
    81.3800       236
    81.4000       272
    81.4200       232
    81.4400       274
    81.4600       264
    81.4800       246
    81.5000       258
    81.5200       256
    81.5400       254
    81.5600       254
    81.5800       244
    81.6000       276
    81.6200       296
    81.6400       274
    81.6600       276
    81.6800       288
    81.7000       270
    81.7200       302
    81.7400       290
    81.7600       264
    81.7800       276
    81.8000       290
    81.8200       304
    81.8400       306
    81.8600       312
    81.8800       306
    81.9000       302
    81.9200       288
    81.9400       328
    81.9600       316
    81.9800       338
    82.0000       334
    82.0200       364
    82.0400       340
    82.0600       344
    82.0800       364
    82.1000       320
    82.1200       328
    82.1400       336
    82.1600       332
    82.1800       338
    82.2000       366
    82.2200       342
    82.2400       358
    82.2600       366
    82.2800       382
    82.3000       342
    82.3200       394
    82.3400       424
    82.3600       420
    82.3800       414
    82.4000       420
    82.4200       424
    82.4400       450
    82.4600       392
    82.4800       420
    82.5000       470
    82.5200       494
    82.5400       450
    82.5600       534
    82.5800       506
    82.6000       532
    82.6200       548
    82.6400       544
    82.6600       512
    82.6800       574
    82.7000       676
    82.7200       658
    82.7400       676
    82.7600       740
    82.7800       694
    82.8000       768
    82.8200       804
    82.8400       848
    82.8600       862
    82.8800       872
    82.9000       814
    82.9200       896
    82.9400       820
    82.9600       834
    82.9800       824
    83.0000       834
    83.0200       788
    83.0400       864
    83.0600       772
    83.0800       796
    83.1000       736
    83.1200       764
    83.1400       756
    83.1600       680
    83.1800       628
    83.2000       652
    83.2200       604
    83.2400       574
    83.2600       584
    83.2800       584
    83.3000       520
    83.3200       548
    83.3400       494
    83.3600       488
    83.3800       454
    83.4000       430
    83.4200       460
    83.4400       454
    83.4600       444
    83.4800       422
    83.5000       426
    83.5200       428
    83.5400       394
    83.5600       370
    83.5800       394
    83.6000       316
    83.6200       332
    83.6400       328
    83.6600       312
    83.6800       316
    83.7000       340
    83.7200       352
    83.7400       354
    83.7600       324
    83.7800       342
    83.8000       328
    83.8200       314
    83.8400       346
    83.8600       286
    83.8800       284
    83.9000       340
    83.9200       308
    83.9400       336
    83.9600       318
    83.9800       338
    84.0000       314
    84.0200       306
    84.0400       326
    84.0600       330
    84.0800       330
    84.1000       342
    84.1200       298
    84.1400       360
    84.1600       306
    84.1800       344
    84.2000       348
    84.2200       322
    84.2400       346
    84.2600       314
    84.2800       300
    84.3000       332
    84.3200       344
    84.3400       308
    84.3600       304
    84.3800       380
    84.4000       316
    84.4200       314
    84.4400       344
    84.4600       320
    84.4800       284
    84.5000       316
    84.5200       322
    84.5400       350
    84.5600       352
    84.5800       308
    84.6000       314
    84.6200       312
    84.6400       292
    84.6600       312
    84.6800       322
    84.7000       300
    84.7200       316
    84.7400       310
    84.7600       280
    84.7800       332
    84.8000       310
    84.8200       294
    84.8400       290
    84.8600       300
    84.8800       292
    84.9000       296
    84.9200       272
    84.9400       296
    84.9600       282
    84.9800       298
    85.0000       272
    85.0200       298
    85.0400       310
    85.0600       292
    85.0800       272
    85.1000       264
    85.1200       270
    85.1400       252
    85.1600       250
    85.1800       236
    85.2000       284
    85.2200       266
    85.2400       276
    85.2600       276
    85.2800       270
    85.3000       272
    85.3200       260
    85.3400       250
    85.3600       266
    85.3800       266
    85.4000       252
    85.4200       300
    85.4400       268
    85.4600       274
    85.4800       266
    85.5000       260
    85.5200       266
    85.5400       270
    85.5600       252
    85.5800       296
    85.6000       278
    85.6200       280
    85.6400       260
    85.6600       306
    85.6800       280
    85.7000       286
    85.7200       276
    85.7400       304
    85.7600       304
    85.7800       286
    85.8000       302
    85.8200       286
    85.8400       292
    85.8600       268
    85.8800       282
    85.9000       292
    85.9200       260
    85.9400       282
    85.9600       284
    85.9800       270
    86.0000       264
    86.0200       286
    86.0400       252
    86.0600       280
    86.0800       274
    86.1000       240
    86.1200       258
    86.1400       250
    86.1600       254
    86.1800       284
    86.2000       240
    86.2200       256
    86.2400       254
    86.2600       270
    86.2800       266
    86.3000       252
    86.3200       252
    86.3400       260
    86.3600       284
    86.3800       280
    86.4000       282
    86.4200       274
    86.4400       256
    86.4600       254
    86.4800       268
    86.5000       252
    86.5200       282
    86.5400       264
    86.5600       280
    86.5800       300
    86.6000       268
    86.6200       290
    86.6400       320
    86.6600       310
    86.6800       306
    86.7000       316
    86.7200       324
    86.7400       340
    86.7600       364
    86.7800       326
    86.8000       384
    86.8200       374
    86.8400       382
    86.8600       348
    86.8800       374
    86.9000       380
    86.9200       368
    86.9400       370
    86.9600       362
    86.9800       382
    87.0000       400
    87.0200       390
    87.0400       378
    87.0600       412
    87.0800       382
    87.1000       384
    87.1200       426
    87.1400       370
    87.1600       382
    87.1800       366
    87.2000       416
    87.2200       362
    87.2400       338
    87.2600       374
    87.2800       394
    87.3000       360
    87.3200       346
    87.3400       334
    87.3600       310
    87.3800       340
    87.4000       350
    87.4200       364
    87.4400       306
    87.4600       340
    87.4800       386
    87.5000       344
    87.5200       356
    87.5400       340
    87.5600       382
    87.5800       358
    87.6000       360
    87.6200       390
    87.6400       352
    87.6600       338
    87.6800       382
    87.7000       394
    87.7200       382
    87.7400       426
    87.7600       416
    87.7800       426
    87.8000       434
    87.8200       396
    87.8400       448
    87.8600       454
    87.8800       430
    87.9000       412
    87.9200       452
    87.9400       430
    87.9600       428
    87.9800       440
    88.0000       410
    88.0200       414
    88.0400       430
    88.0600       446
    88.0800       402
    88.1000       442
    88.1200       398
    88.1400       402
    88.1600       400
    88.1800       402
    88.2000       408
    88.2200       388
    88.2400       420
    88.2600       440
    88.2800       410
    88.3000       378
    88.3200       434
    88.3400       390
    88.3600       400
    88.3800       378
    88.4000       372
    88.4200       400
    88.4400       400
    88.4600       356
    88.4800       356
    88.5000       358
    88.5200       326
    88.5400       374
    88.5600       376
    88.5800       334
    88.6000       320
    88.6200       334
    88.6400       304
    88.6600       328
    88.6800       316
    88.7000       308
    88.7200       300
    88.7400       288
    88.7600       314
    88.7800       316
    88.8000       304
    88.8200       290
    88.8400       274
    88.8600       274
    88.8800       278
    88.9000       242
    88.9200       266
    88.9400       236
    88.9600       278
    88.9800       256
    89.0000       292
    89.0200       266
    89.0400       272
    89.0600       266
    89.0800       254
    89.1000       268
    89.1200       240
    89.1400       254
    89.1600       248
    89.1800       260
    89.2000       250
    89.2200       214
    89.2400       232
    89.2600       232
    89.2800       232
    89.3000       254
    89.3200       242
    89.3400       256
    89.3600       262
    89.3800       246
    89.4000       262
    89.4200       236
    89.4400       244
    89.4600       278
    89.4800       268
    89.5000       210
    89.5200       246
    89.5400       254
    89.5600       248
    89.5800       256
    89.6000       268
    89.6200       260
    89.6400       268
    89.6600       244
    89.6800       290
    89.7000       278
    89.7200       302
    89.7400       276
    89.7600       276
    89.7800       276
    89.8000       280
    89.8200       320
    89.8400       284
    89.8600       292
    89.8800       292
    89.9000       286
    89.9200       304
    89.9400       296
    89.9600       310
    89.9800       294
    90.0000       302
