    10.0000       364
    10.0200       368
    10.0400       390
    10.0600       342
    10.0800       378
    10.1000       368
    10.1200       332
    10.1400       344
    10.1600       400
    10.1800       346
    10.2000       370
    10.2200       390
    10.2400       290
    10.2600       376
    10.2800       352
    10.3000       362
    10.3200       350
    10.3400       338
    10.3600       352
    10.3800       350
    10.4000       344
    10.4200       344
    10.4400       324
    10.4600       320
    10.4800       366
    10.5000       326
    10.5200       326
    10.5400       346
    10.5600       366
    10.5800       344
    10.6000       328
    10.6200       358
    10.6400       342
    10.6600       338
    10.6800       340
    10.7000       284
    10.7200       332
    10.7400       318
    10.7600       336
    10.7800       326
    10.8000       330
    10.8200       340
    10.8400       298
    10.8600       326
    10.8800       320
    10.9000       322
    10.9200       304
    10.9400       326
    10.9600       328
    10.9800       328
    11.0000       360
    11.0200       350
    11.0400       340
    11.0600       328
    11.0800       324
    11.1000       308
    11.1200       344
    11.1400       308
    11.1600       328
    11.1800       330
    11.2000       348
    11.2200       322
    11.2400       314
    11.2600       328
    11.2800       316
    11.3000       300
    11.3200       324
    11.3400       292
    11.3600       366
    11.3800       332
    11.4000       304
    11.4200       322
    11.4400       306
    11.4600       356
    11.4800       312
    11.5000       328
    11.5200       330
    11.5400       314
    11.5600       320
    11.5800       306
    11.6000       330
    11.6200       336
    11.6400       332
    11.6600       312
    11.6800       296
    11.7000       306
    11.7200       294
    11.7400       318
    11.7600       348
    11.7800       336
    11.8000       344
    11.8200       328
    11.8400       356
    11.8600       360
    11.8800       362
    11.9000       364
    11.9200       352
    11.9400       382
    11.9600       384
    11.9800       388
    12.0000       418
    12.0200       444
    12.0400       428
    12.0600       426
    12.0800       486
    12.1000       456
    12.1200       488
    12.1400       550
    12.1600       612
    12.1800       576
    12.2000       612
    12.2200       642
    12.2400       600
    12.2600       566
    12.2800       530
    12.3000       420
    12.3200       390
    12.3400       350
    12.3600       338
    12.3800       330
    12.4000       342
    12.4200       334
    12.4400       324
    12.4600       280
    12.4800       270
    12.5000       322
    12.5200       310
    12.5400       292
    12.5600       284
    12.5800       272
    12.6000       268
    12.6200       278
    12.6400       312
    12.6600       300
    12.6800       308
    12.7000       278
    12.7200       292
    12.7400       298
    12.7600       258
    12.7800       258
    12.8000       292
    12.8200       292
    12.8400       276
    12.8600       270
    12.8800       286
    12.9000       304
    12.9200       278
    12.9400       290
    12.9600       272
    12.9800       254
    13.0000       318
    13.0200       266
    13.0400       300
    13.0600       248
    13.0800       264
    13.1000       296
    13.1200       272
    13.1400       254
    13.1600       274
    13.1800       278
    13.2000       256
    13.2200       270
    13.2400       268
    13.2600       264
    13.2800       266
    13.3000       276
    13.3200       262
    13.3400       276
    13.3600       328
    13.3800       270
    13.4000       272
    13.4200       278
    13.4400       306
    13.4600       272
    13.4800       240
    13.5000       278
    13.5200       256
    13.5400       310
    13.5600       242
    13.5800       278
    13.6000       270
    13.6200       276
    13.6400       254
    13.6600       262
    13.6800       278
    13.7000       266
    13.7200       262
    13.7400       250
    13.7600       254
    13.7800       278
    13.8000       266
    13.8200       234
    13.8400       244
    13.8600       256
    13.8800       276
    13.9000       244
    13.9200       266
    13.9400       246
    13.9600       280
    13.9800       244
    14.0000       230
    14.0200       264
    14.0400       270
    14.0600       250
    14.0800       248
    14.1000       264
    14.1200       216
    14.1400       254
    14.1600       254
    14.1800       246
    14.2000       258
    14.2200       238
    14.2400       260
    14.2600       256
    14.2800       212
    14.3000       264
    14.3200       270
    14.3400       206
    14.3600       250
    14.3800       278
    14.4000       252
    14.4200       242
    14.4400       242
    14.4600       224
    14.4800       250
    14.5000       248
    14.5200       244
    14.5400       248
    14.5600       282
    14.5800       252
    14.6000       258
    14.6200       256
    14.6400       280
    14.6600       290
    14.6800       256
    14.7000       292
    14.7200       308
    14.7400       290
    14.7600       316
    14.7800       326
    14.8000       336
    14.8200       350
    14.8400       380
    14.8600       364
    14.8800       372
    14.9000       424
    14.9200       414
    14.9400       426
    14.9600       484
    14.9800       518
    15.0000       524
    15.0200       646
    15.0400       658
    15.0600       732
    15.0800       774
    15.1000       802
    15.1200       850
    15.1400       974
    15.1600      1106
    15.1800      1166
    15.2000      1152
    15.2200      1222
    15.2400      1066
    15.2600       868
    15.2800       736
    15.3000       616
    15.3200       494
    15.3400       442
    15.3600       392
    15.3800       376
    15.4000       312
    15.4200       322
    15.4400       302
    15.4600       298
    15.4800       286
    15.5000       258
    15.5200       244
    15.5400       228
    15.5600       234
    15.5800       252
    15.6000       274
    15.6200       232
    15.6400       264
    15.6600       238
    15.6800       250
    15.7000       234
    15.7200       262
    15.7400       226
    15.7600       238
    15.7800       238
    15.8000       252
    15.8200       232
    15.8400       248
    15.8600       236
    15.8800       230
    15.9000       250
    15.9200       256
    15.9400       250
    15.9600       234
    15.9800       208
    16.0000       260
    16.0200       268
    16.0400       232
    16.0600       226
    16.0800       252
    16.1000       226
    16.1200       264
    16.1400       258
    16.1600       266
    16.1800       264
    16.2000       256
    16.2200       300
    16.2400       286
    16.2600       304
    16.2800       294
    16.3000       290
    16.3200       308
    16.3400       300
    16.3600       282
    16.3800       274
    16.4000       250
    16.4200       272
    16.4400       260
    16.4600       272
    16.4800       286
    16.5000       284
    16.5200       268
    16.5400       282
    16.5600       276
    16.5800       292
    16.6000       304
    16.6200       312
    16.6400       338
    16.6600       342
    16.6800       346
    16.7000       400
    16.7200       392
    16.7400       424
    16.7600       422
    16.7800       472
    16.8000       534
    16.8200       552
    16.8400       630
    16.8600       666
    16.8800       724
    16.9000       846
    16.9200       968
    16.9400      1064
    16.9600      1234
    16.9800      1416
    17.0000      1592
    17.0200      1856
    17.0400      2040
    17.0600      2118
    17.0800      1974
    17.1000      1908
    17.1200      1536
    17.1400      1344
    17.1600      1080
    17.1800       934
    17.2000       806
    17.2200       712
    17.2400       762
    17.2600       720
    17.2800       676
    17.3000       688
    17.3200       626
    17.3400       580
    17.3600       550
    17.3800       476
    17.4000       532
    17.4200       472
    17.4400       422
    17.4600       466
    17.4800       406
    17.5000       410
    17.5200       412
    17.5400       374
    17.5600       410
    17.5800       346
    17.6000       360
    17.6200       368
    17.6400       382
    17.6600       424
    17.6800       448
    17.7000       524
    17.7200       510
    17.7400       574
    17.7600       594
    17.7800       606
    17.8000       626
    17.8200       682
    17.8400       626
    17.8600       616
    17.8800       568
    17.9000       496
    17.9200       458
    17.9400       414
    17.9600       320
    17.9800       338
    18.0000       290
    18.0200       284
    18.0400       238
    18.0600       250
    18.0800       264
    18.1000       256
    18.1200       226
    18.1400       214
    18.1600       244
    18.1800       214
    18.2000       236
    18.2200       204
    18.2400       220
    18.2600       210
    18.2800       212
    18.3000       242
    18.3200       190
    18.3400       208
    18.3600       234
    18.3800       194
    18.4000       226
    18.4200       226
    18.4400       202
    18.4600       200
    18.4800       214
    18.5000       214
    18.5200       222
    18.5400       216
    18.5600       218
    18.5800       238
    18.6000       240
    18.6200       244
    18.6400       222
    18.6600       242
    18.6800       234
    18.7000       256
    18.7200       234
    18.7400       258
    18.7600       226
    18.7800       254
    18.8000       260
    18.8200       254
    18.8400       274
    18.8600       288
    18.8800       298
    18.9000       272
    18.9200       298
    18.9400       300
    18.9600       320
    18.9800       340
    19.0000       318
    19.0200       296
    19.0400       316
    19.0600       308
    19.0800       332
    19.1000       322
    19.1200       360
    19.1400       364
    19.1600       366
    19.1800       400
    19.2000       420
    19.2200       446
    19.2400       486
    19.2600       590
    19.2800       606
    19.3000       670
    19.3200       694
    19.3400       756
    19.3600       912
    19.3800      1000
    19.4000      1154
    19.4200      1226
    19.4400      1466
    19.4600      1606
    19.4800      1960
    19.5000      2294
    19.5200      2570
    19.5400      2950
    19.5600      3080
    19.5800      3018
    19.6000      2776
    19.6200      2514
    19.6400      2094
    19.6600      1706
    19.6800      1448
    19.7000      1162
    19.7200      1014
    19.7400       960
    19.7600       936
    19.7800       986
    19.8000      1032
    19.8200      1150
    19.8400      1166
    19.8600      1312
    19.8800      1378
    19.9000      1526
    19.9200      1816
    19.9400      2014
    19.9600      2186
    19.9800      2320
    20.0000      2368
    20.0200      2388
    20.0400      2116
    20.0600      1906
    20.0800      1516
    20.1000      1344
    20.1200      1096
    20.1400       842
    20.1600       714
    20.1800       582
    20.2000       532
    20.2200       502
    20.2400       428
    20.2600       424
    20.2800       442
    20.3000       334
    20.3200       336
    20.3400       352
    20.3600       306
    20.3800       292
    20.4000       320
    20.4200       318
    20.4400       268
    20.4600       254
    20.4800       266
    20.5000       254
    20.5200       262
    20.5400       258
    20.5600       272
    20.5800       220
    20.6000       244
    20.6200       258
    20.6400       280
    20.6600       240
    20.6800       246
    20.7000       226
    20.7200       256
    20.7400       274
    20.7600       266
    20.7800       290
    20.8000       308
    20.8200       284
    20.8400       298
    20.8600       350
    20.8800       374
    20.9000       372
    20.9200       418
    20.9400       438
    20.9600       428
    20.9800       460
    21.0000       548
    21.0200       566
    21.0400       624
    21.0600       716
    21.0800       782
    21.1000       948
    21.1200      1030
    21.1400      1206
    21.1600      1300
    21.1800      1476
    21.2000      1578
    21.2200      1662
    21.2400      1632
    21.2600      1502
    21.2800      1296
    21.3000      1194
    21.3200      1058
    21.3400       816
    21.3600       674
    21.3800       584
    21.4000       498
    21.4200       402
    21.4400       372
    21.4600       372
    21.4800       316
    21.5000       340
    21.5200       274
    21.5400       292
    21.5600       288
    21.5800       274
    21.6000       270
    21.6200       230
    21.6400       252
    21.6600       238
    21.6800       250
    21.7000       218
    21.7200       222
    21.7400       238
    21.7600       224
    21.7800       236
    21.8000       228
    21.8200       242
    21.8400       240
    21.8600       214
    21.8800       238
    21.9000       224
    21.9200       238
    21.9400       234
    21.9600       224
    21.9800       234
    22.0000       220
    22.0200       234
    22.0400       208
    22.0600       240
    22.0800       212
    22.1000       226
    22.1200       222
    22.1400       248
    22.1600       252
    22.1800       224
    22.2000       218
    22.2200       262
    22.2400       234
    22.2600       232
    22.2800       248
    22.3000       268
    22.3200       262
    22.3400       254
    22.3600       316
    22.3800       296
    22.4000       270
    22.4200       322
    22.4400       346
    22.4600       376
    22.4800       394
    22.5000       428
    22.5200       492
    22.5400       474
    22.5600       544
    22.5800       634
    22.6000       632
    22.6200       768
    22.6400       860
    22.6600       894
    22.6800      1068
    22.7000      1248
    22.7200      1436
    22.7400      1626
    22.7600      1928
    22.7800      2226
    22.8000      2660
    22.8200      2998
    22.8400      3486
    22.8600      3812
    22.8800      3982
    22.9000      3932
    22.9200      3854
    22.9400      3184
    22.9600      2640
    22.9800      2224
    23.0000      1740
    23.0200      1242
    23.0400      1016
    23.0600       894
    23.0800       756
    23.1000       646
    23.1200       558
    23.1400       554
    23.1600       488
    23.1800       460
    23.2000       438
    23.2200       384
    23.2400       392
    23.2600       362
    23.2800       362
    23.3000       304
    23.3200       320
    23.3400       290
    23.3600       322
    23.3800       322
    23.4000       300
    23.4200       282
    23.4400       246
    23.4600       256
    23.4800       230
    23.5000       250
    23.5200       212
    23.5400       236
    23.5600       252
    23.5800       266
    23.6000       250
    23.6200       234
    23.6400       222
    23.6600       224
    23.6800       224
    23.7000       250
    23.7200       230
    23.7400       244
    23.7600       248
    23.7800       220
    23.8000       224
    23.8200       270
    23.8400       228
    23.8600       228
    23.8800       226
    23.9000       268
    23.9200       230
    23.9400       266
    23.9600       226
    23.9800       260
    24.0000       244
    24.0200       244
    24.0400       260
    24.0600       292
    24.0800       266
    24.1000       256
    24.1200       274
    24.1400       294
    24.1600       298
    24.1800       324
    24.2000       282
    24.2200       300
    24.2400       310
    24.2600       336
    24.2800       416
    24.3000       392
    24.3200       402
    24.3400       476
    24.3600       546
    24.3800       560
    24.4000       580
    24.4200       714
    24.4400       784
    24.4600       814
    24.4800       910
    24.5000       996
    24.5200      1094
    24.5400      1096
    24.5600      1102
    24.5800      1108
    24.6000      1048
    24.6200       990
    24.6400       818
    24.6600       794
    24.6800       790
    24.7000       778
    24.7200       722
    24.7400       678
    24.7600       616
    24.7800       620
    24.8000       598
    24.8200       540
    24.8400       546
    24.8600       534
    24.8800       490
    24.9000       472
    24.9200       450
    24.9400       438
    24.9600       446
    24.9800       438
    25.0000       446
    25.0200       440
    25.0400       458
    25.0600       486
    25.0800       502
    25.1000       548
    25.1200       518
    25.1400       620
    25.1600       618
    25.1800       680
    25.2000       664
    25.2200       792
    25.2400       804
    25.2600       906
    25.2800       932
    25.3000      1078
    25.3200      1096
    25.3400      1098
    25.3600      1008
    25.3800       954
    25.4000       866
    25.4200       818
    25.4400       828
    25.4600       718
    25.4800       770
    25.5000       754
    25.5200       840
    25.5400       820
    25.5600       914
    25.5800       998
    25.6000      1120
    25.6200      1064
    25.6400      1000
    25.6600       956
    25.6800       874
    25.7000       782
    25.7200       714
    25.7400       590
    25.7600       520
    25.7800       496
    25.8000       424
    25.8200       376
    25.8400       404
    25.8600       336
    25.8800       364
    25.9000       332
    25.9200       330
    25.9400       366
    25.9600       310
    25.9800       304
    26.0000       300
    26.0200       302
    26.0400       306
    26.0600       268
    26.0800       272
    26.1000       258
    26.1200       264
    26.1400       306
    26.1600       282
    26.1800       268
    26.2000       268
    26.2200       266
    26.2400       274
    26.2600       300
    26.2800       260
    26.3000       296
    26.3200       314
    26.3400       306
    26.3600       346
    26.3800       322
    26.4000       340
    26.4200       334
    26.4400       406
    26.4600       384
    26.4800       362
    26.5000       398
    26.5200       368
    26.5400       412
    26.5600       398
    26.5800       434
    26.6000       454
    26.6200       420
    26.6400       414
    26.6600       452
    26.6800       452
    26.7000       418
    26.7200       446
    26.7400       380
    26.7600       374
    26.7800       394
    26.8000       370
    26.8200       334
    26.8400       304
    26.8600       334
    26.8800       344
    26.9000       272
    26.9200       314
    26.9400       302
    26.9600       268
    26.9800       324
    27.0000       280
    27.0200       272
    27.0400       266
    27.0600       280
    27.0800       276
    27.1000       312
    27.1200       284
    27.1400       270
    27.1600       328
    27.1800       358
    27.2000       356
    27.2200       332
    27.2400       382
    27.2600       408
    27.2800       448
    27.3000       466
    27.3200       576
    27.3400       588
    27.3600       610
    27.3800       702
    27.4000       814
    27.4200       858
    27.4400       950
    27.4600       986
    27.4800      1002
    27.5000      1082
    27.5200      1040
    27.5400      1024
    27.5600       938
    27.5800       882
    27.6000       802
    27.6200       770
    27.6400       646
    27.6600       570
    27.6800       538
    27.7000       452
    27.7200       416
    27.7400       392
    27.7600       386
    27.7800       340
    27.8000       348
    27.8200       358
    27.8400       302
    27.8600       296
    27.8800       344
    27.9000       306
    27.9200       304
    27.9400       328
    27.9600       304
    27.9800       304
    28.0000       332
    28.0200       316
    28.0400       296
    28.0600       302
    28.0800       324
    28.1000       298
    28.1200       326
    28.1400       344
    28.1600       348
    28.1800       336
    28.2000       400
    28.2200       414
    28.2400       420
    28.2600       418
    28.2800       404
    28.3000       406
    28.3200       420
    28.3400       388
    28.3600       396
    28.3800       396
    28.4000       356
    28.4200       378
    28.4400       300
    28.4600       312
    28.4800       334
    28.5000       344
    28.5200       318
    28.5400       274
    28.5600       298
    28.5800       328
    28.6000       310
    28.6200       326
    28.6400       364
    28.6600       378
    28.6800       362
    28.7000       380
    28.7200       390
    28.7400       402
    28.7600       352
    28.7800       368
    28.8000       334
    28.8200       336
    28.8400       334
    28.8600       310
    28.8800       328
    28.9000       284
    28.9200       292
    28.9400       288
    28.9600       266
    28.9800       286
    29.0000       306
    29.0200       278
    29.0400       268
    29.0600       292
    29.0800       270
    29.1000       268
    29.1200       264
    29.1400       272
    29.1600       300
    29.1800       290
    29.2000       300
    29.2200       298
    29.2400       328
    29.2600       338
    29.2800       326
    29.3000       372
    29.3200       350
    29.3400       388
    29.3600       388
    29.3800       424
    29.4000       392
    29.4200       446
    29.4400       472
    29.4600       550
    29.4800       514
    29.5000       594
    29.5200       624
    29.5400       658
    29.5600       728
    29.5800       744
    29.6000       826
    29.6200       804
    29.6400       948
    29.6600       968
    29.6800       992
    29.7000       916
    29.7200       884
    29.7400       842
    29.7600       720
    29.7800       688
    29.8000       652
    29.8200       606
    29.8400       644
    29.8600       594
    29.8800       546
    29.9000       546
    29.9200       604
    29.9400       630
    29.9600       646
    29.9800       698
    30.0000       786
    30.0200       858
    30.0400       928
    30.0600      1044
    30.0800      1130
    30.1000      1244
    30.1200      1420
    30.1400      1488
    30.1600      1680
    30.1800      1744
    30.2000      1800
    30.2200      1864
    30.2400      1766
    30.2600      1774
    30.2800      1710
    30.3000      1696
    30.3200      1594
    30.3400      1562
    30.3600      1628
    30.3800      1478
    30.4000      1558
    30.4200      1562
    30.4400      1746
    30.4600      1756
    30.4800      1872
    30.5000      2070
    30.5200      2318
    30.5400      2674
    30.5600      2942
    30.5800      3292
    30.6000      3654
    30.6200      4054
    30.6400      4494
    30.6600      4866
    30.6800      4980
    30.7000      5054
    30.7200      4782
    30.7400      4576
    30.7600      4084
    30.7800      3706
    30.8000      3238
    30.8200      2742
    30.8400      2278
    30.8600      1876
    30.8800      1626
    30.9000      1436
    30.9200      1256
    30.9400      1168
    30.9600      1098
    30.9800      1056
    31.0000       950
    31.0200       934
    31.0400       878
    31.0600       846
    31.0800       816
    31.1000       780
    31.1200       772
    31.1400       792
    31.1600       722
    31.1800       718
    31.2000       724
    31.2200       638
    31.2400       670
    31.2600       606
    31.2800       592
    31.3000       596
    31.3200       496
    31.3400       510
    31.3600       472
    31.3800       436
    31.4000       440
    31.4200       470
    31.4400       422
    31.4600       438
    31.4800       434
    31.5000       436
    31.5200       392
    31.5400       400
    31.5600       422
    31.5800       424
    31.6000       450
    31.6200       406
    31.6400       466
    31.6600       484
    31.6800       494
    31.7000       504
    31.7200       502
    31.7400       564
    31.7600       606
    31.7800       642
    31.8000       684
    31.8200       780
    31.8400       830
    31.8600       940
    31.8800      1066
    31.9000      1136
    31.9200      1368
    31.9400      1430
    31.9600      1602
    31.9800      1770
    32.0000      1952
    32.0200      2034
    32.0400      2074
    32.0600      2004
    32.0800      1942
    32.1000      1892
    32.1200      1708
    32.1400      1496
    32.1600      1388
    32.1800      1340
    32.2000      1244
    32.2200      1244
    32.2400      1200
    32.2600      1198
    32.2800      1344
    32.3000      1372
    32.3200      1532
    32.3400      1676
    32.3600      1890
    32.3800      2198
    32.4000      2386
    32.4200      2844
    32.4400      3206
    32.4600      3740
    32.4800      4318
    32.5000      4896
    32.5200      5406
    32.5400      6094
    32.5600      6526
    32.5800      6718
    32.6000      6626
    32.6200      6598
    32.6400      6112
    32.6600      5624
    32.6800      4956
    32.7000      4360
    32.7200      3836
    32.7400      3246
    32.7600      2700
    32.7800      2308
    32.8000      1960
    32.8200      1750
    32.8400      1594
    32.8600      1356
    32.8800      1216
    32.9000      1116
    32.9200      1192
    32.9400      1096
    32.9600      1046
    32.9800      1116
    33.0000      1198
    33.0200      1212
    33.0400      1272
    33.0600      1430
    33.0800      1422
    33.1000      1504
    33.1200      1444
    33.1400      1402
    33.1600      1350
    33.1800      1184
    33.2000      1162
    33.2200      1004
    33.2400       840
    33.2600       784
    33.2800       660
    33.3000       576
    33.3200       530
    33.3400       474
    33.3600       452
    33.3800       460
    33.4000       392
    33.4200       340
    33.4400       376
    33.4600       388
    33.4800       330
    33.5000       352
    33.5200       312
    33.5400       316
    33.5600       306
    33.5800       298
    33.6000       290
    33.6200       268
    33.6400       288
    33.6600       294
    33.6800       258
    33.7000       234
    33.7200       276
    33.7400       272
    33.7600       256
    33.7800       272
    33.8000       282
    33.8200       252
    33.8400       246
    33.8600       262
    33.8800       254
    33.9000       256
    33.9200       246
    33.9400       240
    33.9600       264
    33.9800       216
    34.0000       246
    34.0200       238
    34.0400       244
    34.0600       262
    34.0800       290
    34.1000       272
    34.1200       260
    34.1400       282
    34.1600       252
    34.1800       282
    34.2000       276
    34.2200       264
    34.2400       306
    34.2600       324
    34.2800       316
    34.3000       296
    34.3200       310
    34.3400       318
    34.3600       368
    34.3800       394
    34.4000       418
    34.4200       438
    34.4400       474
    34.4600       506
    34.4800       582
    34.5000       552
    34.5200       588
    34.5400       630
    34.5600       548
    34.5800       528
    34.6000       522
    34.6200       480
    34.6400       398
    34.6600       422
    34.6800       398
    34.7000       360
    34.7200       370
    34.7400       348
    34.7600       330
    34.7800       348
    34.8000       364
    34.8200       322
    34.8400       324
    34.8600       324
    34.8800       286
    34.9000       294
    34.9200       318
    34.9400       316
    34.9600       364
    34.9800       322
    35.0000       310
    35.0200       322
    35.0400       330
    35.0600       330
    35.0800       366
    35.1000       322
    35.1200       294
    35.1400       310
    35.1600       310
    35.1800       310
    35.2000       304
    35.2200       272
    35.2400       286
    35.2600       256
    35.2800       298
    35.3000       280
    35.3200       270
    35.3400       264
    35.3600       254
    35.3800       302
    35.4000       252
    35.4200       294
    35.4400       268
    35.4600       280
    35.4800       270
    35.5000       300
    35.5200       310
    35.5400       280
    35.5600       322
    35.5800       324
    35.6000       264
    35.6200       312
    35.6400       280
    35.6600       306
    35.6800       326
    35.7000       306
    35.7200       316
    35.7400       368
    35.7600       344
    35.7800       360
    35.8000       328
    35.8200       376
    35.8400       358
    35.8600       400
    35.8800       414
    35.9000       402
    35.9200       458
    35.9400       462
    35.9600       500
    35.9800       510
    36.0000       600
    36.0200       598
    36.0400       652
    36.0600       728
    36.0800       696
    36.1000       800
    36.1200       850
    36.1400       932
    36.1600       894
    36.1800       916
    36.2000       902
    36.2200       886
    36.2400       768
    36.2600       708
    36.2800       684
    36.3000       648
    36.3200       546
    36.3400       486
    36.3600       514
    36.3800       462
    36.4000       476
    36.4200       466
    36.4400       478
    36.4600       408
    36.4800       422
    36.5000       444
    36.5200       422
    36.5400       472
    36.5600       474
    36.5800       528
    36.6000       516
    36.6200       520
    36.6400       526
    36.6600       570
    36.6800       620
    36.7000       634
    36.7200       702
    36.7400       822
    36.7600       870
    36.7800       974
    36.8000      1080
    36.8200      1224
    36.8400      1404
    36.8600      1418
    36.8800      1666
    36.9000      1754
    36.9200      1858
    36.9400      1782
    36.9600      1730
    36.9800      1612
    37.0000      1574
    37.0200      1372
    37.0400      1324
    37.0600      1216
    37.0800      1072
    37.1000      1042
    37.1200      1004
    37.1400       978
    37.1600       940
    37.1800       904
    37.2000       892
    37.2200       876
    37.2400       844
    37.2600       760
    37.2800       772
    37.3000       716
    37.3200       696
    37.3400       668
    37.3600       632
    37.3800       552
    37.4000       568
    37.4200       532
    37.4400       518
    37.4600       536
    37.4800       576
    37.5000       540
    37.5200       562
    37.5400       572
    37.5600       564
    37.5800       568
    37.6000       578
    37.6200       564
    37.6400       564
    37.6600       584
    37.6800       582
    37.7000       618
    37.7200       608
    37.7400       686
    37.7600       650
    37.7800       722
    37.8000       746
    37.8200       768
    37.8400       846
    37.8600       948
    37.8800       920
    37.9000       994
    37.9200      1186
    37.9400      1220
    37.9600      1404
    37.9800      1478
    38.0000      1696
    38.0200      1796
    38.0400      1896
    38.0600      1934
    38.0800      1994
    38.1000      1948
    38.1200      1850
    38.1400      1832
    38.1600      1702
    38.1800      1678
    38.2000      1706
    38.2200      1610
    38.2400      1640
    38.2600      1574
    38.2800      1688
    38.3000      1756
    38.3200      1844
    38.3400      2072
    38.3600      2270
    38.3800      2476
    38.4000      2658
    38.4200      2890
    38.4400      3340
    38.4600      3804
    38.4800      4020
    38.5000      4572
    38.5200      4766
    38.5400      4896
    38.5600      5052
    38.5800      5256
    38.6000      5362
    38.6200      5476
    38.6400      5588
    38.6600      5438
    38.6800      5402
    38.7000      5198
    38.7200      5210
    38.7400      4954
    38.7600      4690
    38.7800      4486
    38.8000      4140
    38.8200      3758
    38.8400      3284
    38.8600      3068
    38.8800      2632
    38.9000      2410
    38.9200      2112
    38.9400      1856
    38.9600      1774
    38.9800      1624
    39.0000      1504
    39.0200      1376
    39.0400      1284
    39.0600      1204
    39.0800      1262
    39.1000      1266
    39.1200      1180
    39.1400      1228
    39.1600      1188
    39.1800      1180
    39.2000      1148
    39.2200      1156
    39.2400      1176
    39.2600      1198
    39.2800      1108
    39.3000      1182
    39.3200      1176
    39.3400      1206
    39.3600      1246
    39.3800      1172
    39.4000      1188
    39.4200      1182
    39.4400      1132
    39.4600      1230
    39.4800      1166
    39.5000      1158
    39.5200      1190
    39.5400      1166
    39.5600      1188
    39.5800      1330
    39.6000      1406
    39.6200      1432
    39.6400      1612
    39.6600      1830
    39.6800      1932
    39.7000      2108
    39.7200      2216
    39.7400      2300
    39.7600      2160
    39.7800      2024
    39.8000      1968
    39.8200      1784
    39.8400      1670
    39.8600      1538
    39.8800      1398
    39.9000      1256
    39.9200      1170
    39.9400      1028
    39.9600       962
    39.9800       844
    40.0000       788
    40.0200       780
    40.0400       740
    40.0600       716
    40.0800       768
    40.1000       734
    40.1200       800
    40.1400       794
    40.1600       808
    40.1800       826
    40.2000       816
    40.2200       826
    40.2400       882
    40.2600       856
    40.2800       808
    40.3000       800
    40.3200       810
    40.3400       890
    40.3600       868
    40.3800       870
    40.4000       974
    40.4200       974
    40.4400      1090
    40.4600      1142
    40.4800      1200
    40.5000      1208
    40.5200      1384
    40.5400      1510
    40.5600      1610
    40.5800      1582
    40.6000      1604
    40.6200      1678
    40.6400      1612
    40.6600      1630
    40.6800      1538
    40.7000      1488
    40.7200      1356
    40.7400      1294
    40.7600      1162
    40.7800      1070
    40.8000       976
    40.8200       922
    40.8400       816
    40.8600       764
    40.8800       746
    40.9000       730
    40.9200       692
    40.9400       588
    40.9600       664
    40.9800       690
    41.0000       730
    41.0200       666
    41.0400       706
    41.0600       758
    41.0800       752
    41.1000       784
    41.1200       858
    41.1400       926
    41.1600       980
    41.1800      1044
    41.2000      1104
    41.2200      1234
    41.2400      1288
    41.2600      1354
    41.2800      1402
    41.3000      1524
    41.3200      1530
    41.3400      1504
    41.3600      1554
    41.3800      1540
    41.4000      1608
    41.4200      1532
    41.4400      1580
    41.4600      1582
    41.4800      1586
    41.5000      1522
    41.5200      1472
    41.5400      1532
    41.5600      1466
    41.5800      1390
    41.6000      1368
    41.6200      1198
    41.6400      1178
    41.6600      1220
    41.6800      1028
    41.7000      1066
    41.7200      1026
    41.7400      1024
    41.7600      1082
    41.7800      1142
    41.8000      1144
    41.8200      1220
    41.8400      1310
    41.8600      1466
    41.8800      1468
    41.9000      1602
    41.9200      1626
    41.9400      1574
    41.9600      1614
    41.9800      1480
    42.0000      1526
    42.0200      1456
    42.0400      1244
    42.0600      1160
    42.0800      1154
    42.1000      1000
    42.1200       944
    42.1400       820
    42.1600       794
    42.1800       690
    42.2000       660
    42.2200       606
    42.2400       572
    42.2600       524
    42.2800       542
    42.3000       478
    42.3200       526
    42.3400       450
    42.3600       464
    42.3800       434
    42.4000       426
    42.4200       422
    42.4400       386
    42.4600       396
    42.4800       438
    42.5000       410
    42.5200       380
    42.5400       426
    42.5600       376
    42.5800       398
    42.6000       400
    42.6200       386
    42.6400       382
    42.6600       388
    42.6800       382
    42.7000       402
    42.7200       406
    42.7400       412
    42.7600       392
    42.7800       398
    42.8000       422
    42.8200       408
    42.8400       434
    42.8600       436
    42.8800       474
    42.9000       468
    42.9200       502
    42.9400       484
    42.9600       592
    42.9800       584
    43.0000       638
    43.0200       716
    43.0400       760
    43.0600       808
    43.0800       926
    43.1000       950
    43.1200      1074
    43.1400      1204
    43.1600      1244
    43.1800      1444
    43.2000      1520
    43.2200      1624
    43.2400      1602
    43.2600      1662
    43.2800      1622
    43.3000      1610
    43.3200      1452
    43.3400      1414
    43.3600      1208
    43.3800      1278
    43.4000      1068
    43.4200       984
    43.4400       928
    43.4600       842
    43.4800       720
    43.5000       702
    43.5200       640
    43.5400       602
    43.5600       600
    43.5800       578
    43.6000       542
    43.6200       492
    43.6400       522
    43.6600       534
    43.6800       530
    43.7000       558
    43.7200       544
    43.7400       604
    43.7600       596
    43.7800       642
    43.8000       658
    43.8200       642
    43.8400       670
    43.8600       696
    43.8800       720
    43.9000       676
    43.9200       680
    43.9400       646
    43.9600       654
    43.9800       594
    44.0000       620
    44.0200       548
    44.0400       548
    44.0600       494
    44.0800       468
    44.1000       454
    44.1200       480
    44.1400       430
    44.1600       462
    44.1800       504
    44.2000       462
    44.2200       466
    44.2400       496
    44.2600       452
    44.2800       482
    44.3000       444
    44.3200       528
    44.3400       516
    44.3600       522
    44.3800       466
    44.4000       512
    44.4200       520
    44.4400       512
    44.4600       566
    44.4800       572
    44.5000       546
    44.5200       550
    44.5400       568
    44.5600       588
    44.5800       632
    44.6000       618
    44.6200       686
    44.6400       686
    44.6600       732
    44.6800       690
    44.7000       748
    44.7200       708
    44.7400       750
    44.7600       782
    44.7800       812
    44.8000       776
    44.8200       824
    44.8400       812
    44.8600       874
    44.8800       944
    44.9000       968
    44.9200      1062
    44.9400      1030
    44.9600      1228
    44.9800      1284
    45.0000      1332
    45.0200      1516
    45.0400      1516
    45.0600      1680
    45.0800      1756
    45.1000      1628
    45.1200      1708
    45.1400      1740
    45.1600      1828
    45.1800      1848
    45.2000      1850
    45.2200      1888
    45.2400      1906
    45.2600      1882
    45.2800      1886
    45.3000      1792
    45.3200      1704
    45.3400      1616
    45.3600      1514
    45.3800      1562
    45.4000      1464
    45.4200      1416
    45.4400      1388
    45.4600      1338
    45.4800      1254
    45.5000      1212
    45.5200      1180
    45.5400      1100
    45.5600      1040
    45.5800      1048
    45.6000       972
    45.6200       908
    45.6400       940
    45.6600       934
    45.6800       852
    45.7000       828
    45.7200       780
    45.7400       784
    45.7600       790
    45.7800       754
    45.8000       760
    45.8200       754
    45.8400       776
    45.8600       712
    45.8800       724
    45.9000       694
    45.9200       666
    45.9400       700
    45.9600       680
    45.9800       658
    46.0000       664
    46.0200       762
    46.0400       702
    46.0600       676
    46.0800       640
    46.1000       700
    46.1200       686
    46.1400       730
    46.1600       710
    46.1800       766
    46.2000       742
    46.2200       798
    46.2400       810
    46.2600       890
    46.2800       914
    46.3000      1008
    46.3200       998
    46.3400      1004
    46.3600      1158
    46.3800      1176
    46.4000      1350
    46.4200      1438
    46.4400      1568
    46.4600      1678
    46.4800      1962
    46.5000      2108
    46.5200      2326
    46.5400      2662
    46.5600      2878
    46.5800      3294
    46.6000      3730
    46.6200      4156
    46.6400      4700
    46.6600      5318
    46.6800      5792
    46.7000      6334
    46.7200      6794
    46.7400      6788
    46.7600      7128
    46.7800      7110
    46.8000      6796
    46.8200      6360
    46.8400      6082
    46.8600      5566
    46.8800      5088
    46.9000      4732
    46.9200      4200
    46.9400      3734
    46.9600      3184
    46.9800      2730
    47.0000      2372
    47.0200      2066
    47.0400      1890
    47.0600      1666
    47.0800      1460
    47.1000      1360
    47.1200      1200
    47.1400      1144
    47.1600      1110
    47.1800       932
    47.2000       862
    47.2200       894
    47.2400       736
    47.2600       740
    47.2800       750
    47.3000       728
    47.3200       656
    47.3400       632
    47.3600       632
    47.3800       596
    47.4000       586
    47.4200       608
    47.4400       560
    47.4600       528
    47.4800       528
    47.5000       562
    47.5200       526
    47.5400       522
    47.5600       514
    47.5800       524
    47.6000       518
    47.6200       534
    47.6400       524
    47.6600       488
    47.6800       468
    47.7000       530
    47.7200       590
    47.7400       604
    47.7600       636
    47.7800       620
    47.8000       624
    47.8200       676
    47.8400       666
    47.8600       712
    47.8800       772
    47.9000       770
    47.9200       790
    47.9400       762
    47.9600       772
    47.9800       750
    48.0000       726
    48.0200       700
    48.0400       712
    48.0600       712
    48.0800       724
    48.1000       674
    48.1200       718
    48.1400       752
    48.1600       720
    48.1800       744
    48.2000       804
    48.2200       800
    48.2400       768
    48.2600       846
    48.2800       850
    48.3000       864
    48.3200       826
    48.3400       832
    48.3600       786
    48.3800       878
    48.4000       832
    48.4200       846
    48.4400       854
    48.4600       788
    48.4800       888
    48.5000       942
    48.5200       900
    48.5400       900
    48.5600       984
    48.5800      1014
    48.6000      1024
    48.6200      1010
    48.6400       954
    48.6600       992
    48.6800       934
    48.7000       968
    48.7200       890
    48.7400       872
    48.7600       784
    48.7800       798
    48.8000       742
    48.8200       724
    48.8400       638
    48.8600       638
    48.8800       614
    48.9000       546
    48.9200       532
    48.9400       500
    48.9600       470
    48.9800       436
    49.0000       466
    49.0200       426
    49.0400       402
    49.0600       406
    49.0800       426
    49.1000       354
    49.1200       336
    49.1400       368
    49.1600       384
    49.1800       366
    49.2000       326
    49.2200       364
    49.2400       356
    49.2600       330
    49.2800       330
    49.3000       294
    49.3200       302
    49.3400       304
    49.3600       314
    49.3800       312
    49.4000       318
    49.4200       304
    49.4400       326
    49.4600       324
    49.4800       326
    49.5000       352
    49.5200       300
    49.5400       314
    49.5600       338
    49.5800       342
    49.6000       344
    49.6200       320
    49.6400       340
    49.6600       364
    49.6800       346
    49.7000       316
    49.7200       394
    49.7400       366
    49.7600       380
    49.7800       350
    49.8000       360
    49.8200       378
    49.8400       382
    49.8600       392
    49.8800       402
    49.9000       440
    49.9200       394
    49.9400       460
    49.9600       448
    49.9800       454
    50.0000       446
    50.0200       456
    50.0400       502
    50.0600       566
    50.0800       604
    50.1000       612
    50.1200       608
    50.1400       712
    50.1600       740
    50.1800       762
    50.2000       852
    50.2200       892
    50.2400       940
    50.2600       982
    50.2800      1080
    50.3000      1056
    50.3200      1162
    50.3400      1120
    50.3600      1086
    50.3800      1136
    50.4000      1154
    50.4200      1146
    50.4400      1166
    50.4600      1112
    50.4800      1130
    50.5000      1104
    50.5200      1086
    50.5400      1062
    50.5600      1110
    50.5800      1062
    50.6000      1062
    50.6200      1116
    50.6400      1104
    50.6600      1144
    50.6800      1260
    50.7000      1332
    50.7200      1342
    50.7400      1516
    50.7600      1544
    50.7800      1556
    50.8000      1690
    50.8200      1676
    50.8400      1752
    50.8600      1718
    50.8800      1710
    50.9000      1688
    50.9200      1696
    50.9400      1586
    50.9600      1534
    50.9800      1540
    51.0000      1438
    51.0200      1338
    51.0400      1240
    51.0600      1152
    51.0800      1106
    51.1000      1088
    51.1200      1028
    51.1400      1004
    51.1600       946
    51.1800       898
    51.2000       814
    51.2200       786
    51.2400       790
    51.2600       826
    51.2800       746
    51.3000       786
    51.3200       772
    51.3400       844
    51.3600       814
    51.3800       804
    51.4000       814
    51.4200       834
    51.4400       826
    51.4600       868
    51.4800       822
    51.5000       804
    51.5200       842
    51.5400       830
    51.5600       816
    51.5800       828
    51.6000       834
    51.6200       828
    51.6400       862
    51.6600       932
    51.6800       812
    51.7000       934
    51.7200       908
    51.7400       984
    51.7600      1048
    51.7800      1068
    51.8000      1162
    51.8200      1270
    51.8400      1368
    51.8600      1416
    51.8800      1518
    51.9000      1520
    51.9200      1650
    51.9400      1716
    51.9600      1700
    51.9800      1782
    52.0000      1812
    52.0200      1800
    52.0400      1702
    52.0600      1732
    52.0800      1590
    52.1000      1564
    52.1200      1460
    52.1400      1394
    52.1600      1298
    52.1800      1184
    52.2000      1150
    52.2200      1066
    52.2400       978
    52.2600       946
    52.2800       858
    52.3000       888
    52.3200       788
    52.3400       810
    52.3600       792
    52.3800       786
    52.4000       790
    52.4200       784
    52.4400       844
    52.4600       878
    52.4800       862
    52.5000       964
    52.5200       976
    52.5400      1034
    52.5600      1118
    52.5800      1170
    52.6000      1238
    52.6200      1218
    52.6400      1314
    52.6600      1302
    52.6800      1330
    52.7000      1336
    52.7200      1406
    52.7400      1344
    52.7600      1290
    52.7800      1252
    52.8000      1216
    52.8200      1198
    52.8400      1116
    52.8600      1106
    52.8800       970
    52.9000      1012
    52.9200       940
    52.9400       888
    52.9600       806
    52.9800       834
    53.0000       806
    53.0200       776
    53.0400       738
    53.0600       730
    53.0800       846
    53.1000       850
    53.1200       848
    53.1400       910
    53.1600       974
    53.1800      1026
    53.2000      1174
    53.2200      1144
    53.2400      1234
    53.2600      1406
    53.2800      1380
    53.3000      1402
    53.3200      1480
    53.3400      1530
    53.3600      1498
    53.3800      1384
    53.4000      1310
    53.4200      1264
    53.4400      1260
    53.4600      1092
    53.4800      1184
    53.5000      1136
    53.5200      1062
    53.5400       902
    53.5600       860
    53.5800       838
    53.6000       754
    53.6200       698
    53.6400       680
    53.6600       678
    53.6800       648
    53.7000       668
    53.7200       584
    53.7400       538
    53.7600       536
    53.7800       534
    53.8000       544
    53.8200       500
    53.8400       538
    53.8600       472
    53.8800       464
    53.9000       482
    53.9200       492
    53.9400       442
    53.9600       466
    53.9800       400
    54.0000       460
    54.0200       482
    54.0400       440
    54.0600       450
    54.0800       446
    54.1000       466
    54.1200       522
    54.1400       440
    54.1600       470
    54.1800       502
    54.2000       522
    54.2200       520
    54.2400       538
    54.2600       520
    54.2800       546
    54.3000       534
    54.3200       600
    54.3400       592
    54.3600       616
    54.3800       590
    54.4000       626
    54.4200       688
    54.4400       690
    54.4600       730
    54.4800       694
    54.5000       728
    54.5200       746
    54.5400       730
    54.5600       718
    54.5800       754
    54.6000       732
    54.6200       734
    54.6400       796
    54.6600       774
    54.6800       790
    54.7000       878
    54.7200       818
    54.7400       826
    54.7600       858
    54.7800       828
    54.8000       900
    54.8200       854
    54.8400       912
    54.8600       838
    54.8800       816
    54.9000       842
    54.9200       828
    54.9400       762
    54.9600       768
    54.9800       792
    55.0000       742
    55.0200       712
    55.0400       818
    55.0600       842
    55.0800       750
    55.1000       848
    55.1200       842
    55.1400       838
    55.1600       868
    55.1800       922
    55.2000       872
    55.2200       892
    55.2400       856
    55.2600       870
    55.2800       870
    55.3000       832
    55.3200       816
    55.3400       798
    55.3600       816
    55.3800       774
    55.4000       738
    55.4200       700
    55.4400       720
    55.4600       674
    55.4800       604
    55.5000       618
    55.5200       580
    55.5400       580
    55.5600       566
    55.5800       554
    55.6000       554
    55.6200       506
    55.6400       506
    55.6600       484
    55.6800       444
    55.7000       468
    55.7200       442
    55.7400       404
    55.7600       460
    55.7800       400
    55.8000       414
    55.8200       360
    55.8400       366
    55.8600       372
    55.8800       394
    55.9000       356
    55.9200       342
    55.9400       352
    55.9600       376
    55.9800       350
    56.0000       346
    56.0200       348
    56.0400       342
    56.0600       322
    56.0800       334
    56.1000       324
    56.1200       332
    56.1400       300
    56.1600       354
    56.1800       356
    56.2000       344
    56.2200       348
    56.2400       308
    56.2600       372
    56.2800       336
    56.3000       334
    56.3200       310
    56.3400       332
    56.3600       358
    56.3800       356
    56.4000       342
    56.4200       378
    56.4400       382
    56.4600       346
    56.4800       388
    56.5000       362
    56.5200       386
    56.5400       390
    56.5600       404
    56.5800       416
    56.6000       426
    56.6200       432
    56.6400       464
    56.6600       494
    56.6800       480
    56.7000       492
    56.7200       526
    56.7400       532
    56.7600       546
    56.7800       580
    56.8000       570
    56.8200       588
    56.8400       550
    56.8600       548
    56.8800       566
    56.9000       556
    56.9200       524
    56.9400       556
    56.9600       558
    56.9800       520
    57.0000       564
    57.0200       536
    57.0400       596
    57.0600       580
    57.0800       560
    57.1000       568
    57.1200       598
    57.1400       650
    57.1600       576
    57.1800       634
    57.2000       720
    57.2200       696
    57.2400       774
    57.2600       776
    57.2800       898
    57.3000      1006
    57.3200      1056
    57.3400      1114
    57.3600      1194
    57.3800      1228
    57.4000      1344
    57.4200      1444
    57.4400      1472
    57.4600      1492
    57.4800      1366
    57.5000      1414
    57.5200      1390
    57.5400      1382
    57.5600      1352
    57.5800      1378
    57.6000      1304
    57.6200      1364
    57.6400      1340
    57.6600      1282
    57.6800      1342
    57.7000      1316
    57.7200      1334
    57.7400      1486
    57.7600      1386
    57.7800      1480
    57.8000      1400
    57.8200      1490
    57.8400      1432
    57.8600      1406
    57.8800      1326
    57.9000      1280
    57.9200      1238
    57.9400      1246
    57.9600      1162
    57.9800      1108
    58.0000      1064
    58.0200       990
    58.0400       904
    58.0600       900
    58.0800       916
    58.1000       822
    58.1200       826
    58.1400       822
    58.1600       780
    58.1800       786
    58.2000       910
    58.2200       764
    58.2400       874
    58.2600       904
    58.2800       882
    58.3000       898
    58.3200       968
    58.3400      1046
    58.3600      1124
    58.3800      1162
    58.4000      1194
    58.4200      1300
    58.4400      1416
    58.4600      1390
    58.4800      1476
    58.5000      1602
    58.5200      1732
    58.5400      1858
    58.5600      1800
    58.5800      1962
    58.6000      2050
    58.6200      2130
    58.6400      2254
    58.6600      2220
    58.6800      2382
    58.7000      2602
    58.7200      2516
    58.7400      2676
    58.7600      2754
    58.7800      2722
    58.8000      2694
    58.8200      2626
    58.8400      2558
    58.8600      2490
    58.8800      2484
    58.9000      2362
    58.9200      2288
    58.9400      2146
    58.9600      1970
    58.9800      1910
    59.0000      1712
    59.0200      1566
    59.0400      1574
    59.0600      1426
    59.0800      1334
    59.1000      1220
    59.1200      1192
    59.1400      1116
    59.1600      1174
    59.1800      1074
    59.2000      1070
    59.2200      1024
    59.2400      1066
    59.2600      1028
    59.2800      1062
    59.3000      1098
    59.3200      1112
    59.3400      1112
    59.3600      1150
    59.3800      1308
    59.4000      1284
    59.4200      1358
    59.4400      1378
    59.4600      1428
    59.4800      1390
    59.5000      1356
    59.5200      1340
    59.5400      1322
    59.5600      1292
    59.5800      1184
    59.6000      1226
    59.6200      1172
    59.6400      1194
    59.6600      1176
    59.6800      1098
    59.7000      1036
    59.7200      1034
    59.7400       986
    59.7600       952
    59.7800       920
    59.8000       936
    59.8200       890
    59.8400       836
    59.8600       834
    59.8800       836
    59.9000       774
    59.9200       784
    59.9400       672
    59.9600       702
    59.9800       672
    60.0000       632
    60.0200       668
    60.0400       608
    60.0600       566
    60.0800       588
    60.1000       534
    60.1200       510
    60.1400       482
    60.1600       478
    60.1800       486
    60.2000       458
    60.2200       464
    60.2400       446
    60.2600       398
    60.2800       440
    60.3000       380
    60.3200       430
    60.3400       414
    60.3600       410
    60.3800       392
    60.4000       366
    60.4200       404
    60.4400       420
    60.4600       406
    60.4800       412
    60.5000       362
    60.5200       396
    60.5400       394
    60.5600       410
    60.5800       400
    60.6000       400
    60.6200       446
    60.6400       392
    60.6600       384
    60.6800       424
    60.7000       398
    60.7200       412
    60.7400       454
    60.7600       410
    60.7800       444
    60.8000       440
    60.8200       414
    60.8400       490
    60.8600       448
    60.8800       452
    60.9000       412
    60.9200       488
    60.9400       492
    60.9600       506
    60.9800       514
    61.0000       522
    61.0200       594
    61.0400       584
    61.0600       592
    61.0800       622
    61.1000       612
    61.1200       672
    61.1400       666
    61.1600       666
    61.1800       734
    61.2000       736
    61.2200       790
    61.2400       800
    61.2600       706
    61.2800       790
    61.3000       842
    61.3200       806
    61.3400       828
    61.3600       858
    61.3800       864
    61.4000       880
    61.4200       936
    61.4400       940
    61.4600       964
    61.4800       978
    61.5000      1032
    61.5200      1066
    61.5400      1052
    61.5600      1154
    61.5800      1174
    61.6000      1188
    61.6200      1218
    61.6400      1172
    61.6600      1146
    61.6800      1106
    61.7000      1044
    61.7200      1066
    61.7400      1064
    61.7600       934
    61.7800       912
    61.8000       896
    61.8200       858
    61.8400       836
    61.8600       774
    61.8800       762
    61.9000       748
    61.9200       688
    61.9400       722
    61.9600       678
    61.9800       636
    62.0000       616
    62.0200       602
    62.0400       610
    62.0600       616
    62.0800       586
    62.1000       638
    62.1200       610
    62.1400       636
    62.1600       586
    62.1800       542
    62.2000       576
    62.2200       564
    62.2400       544
    62.2600       538
    62.2800       516
    62.3000       532
    62.3200       486
    62.3400       490
    62.3600       556
    62.3800       530
    62.4000       488
    62.4200       494
    62.4400       462
    62.4600       486
    62.4800       426
    62.5000       452
    62.5200       412
    62.5400       452
    62.5600       410
    62.5800       456
    62.6000       372
    62.6200       408
    62.6400       414
    62.6600       380
    62.6800       420
    62.7000       408
    62.7200       402
    62.7400       420
    62.7600       420
    62.7800       366
    62.8000       364
    62.8200       354
    62.8400       392
    62.8600       346
    62.8800       366
    62.9000       358
    62.9200       334
    62.9400       330
    62.9600       328
    62.9800       342
    63.0000       332
    63.0200       348
    63.0400       290
    63.0600       314
    63.0800       292
    63.1000       280
    63.1200       282
    63.1400       282
    63.1600       296
    63.1800       278
    63.2000       294
    63.2200       268
    63.2400       298
    63.2600       288
    63.2800       276
    63.3000       256
    63.3200       292
    63.3400       260
    63.3600       296
    63.3800       290
    63.4000       256
    63.4200       266
    63.4400       292
    63.4600       290
    63.4800       334
    63.5000       312
    63.5200       306
    63.5400       324
    63.5600       378
    63.5800       350
    63.6000       344
    63.6200       378
    63.6400       400
    63.6600       372
    63.6800       412
    63.7000       442
    63.7200       436
    63.7400       480
    63.7600       480
    63.7800       538
    63.8000       540
    63.8200       608
    63.8400       600
    63.8600       656
    63.8800       668
    63.9000       708
    63.9200       750
    63.9400       732
    63.9600       676
    63.9800       688
    64.0000       686
    64.0200       650
    64.0400       640
    64.0600       648
    64.0800       634
    64.1000       606
    64.1200       546
    64.1400       528
    64.1600       516
    64.1800       534
    64.2000       432
    64.2200       458
    64.2400       452
    64.2600       412
    64.2800       376
    64.3000       402
    64.3200       338
    64.3400       344
    64.3600       300
    64.3800       340
    64.4000       334
    64.4200       322
    64.4400       286
    64.4600       278
    64.4800       268
    64.5000       302
    64.5200       346
    64.5400       280
    64.5600       300
    64.5800       304
    64.6000       304
    64.6200       282
    64.6400       244
    64.6600       284
    64.6800       284
    64.7000       262
    64.7200       288
    64.7400       302
    64.7600       278
    64.7800       304
    64.8000       284
    64.8200       310
    64.8400       290
    64.8600       310
    64.8800       302
    64.9000       308
    64.9200       276
    64.9400       342
    64.9600       326
    64.9800       348
    65.0000       358
    65.0200       366
    65.0400       378
    65.0600       370
    65.0800       388
    65.1000       374
    65.1200       418
    65.1400       424
    65.1600       402
    65.1800       420
    65.2000       426
    65.2200       424
    65.2400       460
    65.2600       422
    65.2800       474
    65.3000       502
    65.3200       440
    65.3400       512
    65.3600       436
    65.3800       476
    65.4000       456
    65.4200       470
    65.4400       448
    65.4600       490
    65.4800       426
    65.5000       468
    65.5200       434
    65.5400       434
    65.5600       418
    65.5800       392
    65.6000       402
    65.6200       412
    65.6400       400
    65.6600       390
    65.6800       402
    65.7000       388
    65.7200       354
    65.7400       320
    65.7600       348
    65.7800       344
    65.8000       336
    65.8200       330
    65.8400       312
    65.8600       308
    65.8800       344
    65.9000       302
    65.9200       308
    65.9400       292
    65.9600       280
    65.9800       284
    66.0000       300
    66.0200       280
    66.0400       268
    66.0600       276
    66.0800       306
    66.1000       286
    66.1200       306
    66.1400       264
    66.1600       266
    66.1800       274
    66.2000       300
    66.2200       288
    66.2400       286
    66.2600       282
    66.2800       296
    66.3000       300
    66.3200       304
    66.3400       334
    66.3600       334
    66.3800       296
    66.4000       318
    66.4200       334
    66.4400       334
    66.4600       372
    66.4800       324
    66.5000       384
    66.5200       352
    66.5400       418
    66.5600       396
    66.5800       376
    66.6000       398
    66.6200       456
    66.6400       478
    66.6600       502
    66.6800       490
    66.7000       502
    66.7200       538
    66.7400       524
    66.7600       622
    66.7800       632
    66.8000       630
    66.8200       652
    66.8400       634
    66.8600       714
    66.8800       704
    66.9000       744
    66.9200       754
    66.9400       776
    66.9600       794
    66.9800       796
    67.0000       742
    67.0200       732
    67.0400       774
    67.0600       758
    67.0800       726
    67.1000       710
    67.1200       668
    67.1400       648
    67.1600       652
    67.1800       642
    67.2000       648
    67.2200       546
    67.2400       544
    67.2600       556
    67.2800       496
    67.3000       510
    67.3200       476
    67.3400       426
    67.3600       436
    67.3800       404
    67.4000       418
    67.4200       364
    67.4400       394
    67.4600       348
    67.4800       364
    67.5000       380
    67.5200       338
    67.5400       366
    67.5600       326
    67.5800       356
    67.6000       336
    67.6200       396
    67.6400       348
    67.6600       368
    67.6800       356
    67.7000       348
    67.7200       346
    67.7400       384
    67.7600       350
    67.7800       354
    67.8000       380
    67.8200       400
    67.8400       376
    67.8600       384
    67.8800       410
    67.9000       436
    67.9200       468
    67.9400       450
    67.9600       476
    67.9800       546
    68.0000       568
    68.0200       578
    68.0400       662
    68.0600       686
    68.0800       748
    68.1000       794
    68.1200       808
    68.1400       852
    68.1600       894
    68.1800       912
    68.2000       976
    68.2200       984
    68.2400      1048
    68.2600      1036
    68.2800      1084
    68.3000      1062
    68.3200      1032
    68.3400       978
    68.3600      1012
    68.3800       872
    68.4000       862
    68.4200       876
    68.4400       840
    68.4600       886
    68.4800       806
    68.5000       796
    68.5200       730
    68.5400       738
    68.5600       684
    68.5800       708
    68.6000       606
    68.6200       562
    68.6400       576
    68.6600       542
    68.6800       512
    68.7000       510
    68.7200       478
    68.7400       444
    68.7600       448
    68.7800       418
    68.8000       402
    68.8200       412
    68.8400       374
    68.8600       398
    68.8800       384
    68.9000       382
    68.9200       386
    68.9400       394
    68.9600       356
    68.9800       354
    69.0000       368
    69.0200       368
    69.0400       378
    69.0600       348
    69.0800       354
    69.1000       390
    69.1200       384
    69.1400       402
    69.1600       372
    69.1800       404
    69.2000       380
    69.2200       376
    69.2400       428
    69.2600       428
    69.2800       430
    69.3000       386
    69.3200       420
    69.3400       468
    69.3600       442
    69.3800       464
    69.4000       494
    69.4200       544
    69.4400       480
    69.4600       514
    69.4800       544
    69.5000       526
    69.5200       512
    69.5400       510
    69.5600       480
    69.5800       496
    69.6000       438
    69.6200       480
    69.6400       486
    69.6600       482
    69.6800       466
    69.7000       460
    69.7200       442
    69.7400       438
    69.7600       436
    69.7800       416
    69.8000       386
    69.8200       424
    69.8400       418
    69.8600       402
    69.8800       378
    69.9000       406
    69.9200       430
    69.9400       398
    69.9600       384
    69.9800       372
    70.0000       316
    70.0200       366
    70.0400       344
    70.0600       316
    70.0800       358
    70.1000       302
    70.1200       326
    70.1400       322
    70.1600       348
    70.1800       292
    70.2000       326
    70.2200       288
    70.2400       296
    70.2600       264
    70.2800       286
    70.3000       266
    70.3200       258
    70.3400       278
    70.3600       254
    70.3800       248
    70.4000       238
    70.4200       246
    70.4400       250
    70.4600       278
    70.4800       226
    70.5000       234
    70.5200       258
    70.5400       240
    70.5600       240
    70.5800       250
    70.6000       254
    70.6200       246
    70.6400       266
    70.6600       250
    70.6800       260
    70.7000       288
    70.7200       268
    70.7400       260
    70.7600       252
    70.7800       280
    70.8000       258
    70.8200       228
    70.8400       264
    70.8600       232
    70.8800       248
    70.9000       238
    70.9200       248
    70.9400       270
    70.9600       232
    70.9800       260
    71.0000       246
    71.0200       242
    71.0400       246
    71.0600       240
    71.0800       250
    71.1000       244
    71.1200       256
    71.1400       256
    71.1600       266
    71.1800       244
    71.2000       262
    71.2200       260
    71.2400       294
    71.2600       288
    71.2800       308
    71.3000       306
    71.3200       334
    71.3400       342
    71.3600       372
    71.3800       398
    71.4000       374
    71.4200       396
    71.4400       416
    71.4600       506
    71.4800       466
    71.5000       498
    71.5200       490
    71.5400       536
    71.5600       502
    71.5800       508
    71.6000       562
    71.6200       588
    71.6400       528
    71.6600       558
    71.6800       570
    71.7000       526
    71.7200       566
    71.7400       542
    71.7600       528
    71.7800       584
    71.8000       534
    71.8200       524
    71.8400       506
    71.8600       504
    71.8800       446
    71.9000       480
    71.9200       492
    71.9400       454
    71.9600       464
    71.9800       468
    72.0000       440
    72.0200       428
    72.0400       436
    72.0600       440
    72.0800       482
    72.1000       448
    72.1200       436
    72.1400       444
    72.1600       460
    72.1800       406
    72.2000       422
    72.2200       458
    72.2400       474
    72.2600       460
    72.2800       454
    72.3000       452
    72.3200       488
    72.3400       470
    72.3600       498
    72.3800       498
    72.4000       538
    72.4200       504
    72.4400       526
    72.4600       518
    72.4800       504
    72.5000       524
    72.5200       538
    72.5400       544
    72.5600       514
    72.5800       512
    72.6000       542
    72.6200       508
    72.6400       508
    72.6600       518
    72.6800       572
    72.7000       546
    72.7200       496
    72.7400       542
    72.7600       544
    72.7800       518
    72.8000       504
    72.8200       512
    72.8400       534
    72.8600       490
    72.8800       482
    72.9000       496
    72.9200       472
    72.9400       466
    72.9600       448
    72.9800       486
    73.0000       476
    73.0200       486
    73.0400       460
    73.0600       444
    73.0800       432
    73.1000       410
    73.1200       402
    73.1400       406
    73.1600       368
    73.1800       338
    73.2000       326
    73.2200       322
    73.2400       352
    73.2600       310
    73.2800       306
    73.3000       254
    73.3200       294
    73.3400       276
    73.3600       258
    73.3800       250
    73.4000       282
    73.4200       242
    73.4400       298
    73.4600       260
    73.4800       260
    73.5000       268
    73.5200       256
    73.5400       254
    73.5600       254
    73.5800       264
    73.6000       244
    73.6200       244
    73.6400       244
    73.6600       256
    73.6800       246
    73.7000       262
    73.7200       254
    73.7400       274
    73.7600       258
    73.7800       264
    73.8000       256
    73.8200       284
    73.8400       250
    73.8600       278
    73.8800       236
    73.9000       268
    73.9200       274
    73.9400       282
    73.9600       284
    73.9800       284
    74.0000       278
    74.0200       274
    74.0400       318
    74.0600       264
    74.0800       314
    74.1000       312
    74.1200       316
    74.1400       324
    74.1600       284
    74.1800       280
    74.2000       286
    74.2200       310
    74.2400       320
    74.2600       290
    74.2800       296
    74.3000       286
    74.3200       292
    74.3400       268
    74.3600       280
    74.3800       250
    74.4000       268
    74.4200       258
    74.4400       282
    74.4600       250
    74.4800       270
    74.5000       238
    74.5200       222
    74.5400       238
    74.5600       212
    74.5800       202
    74.6000       218
    74.6200       238
    74.6400       214
    74.6600       240
    74.6800       216
    74.7000       234
    74.7200       206
    74.7400       218
    74.7600       188
    74.7800       202
    74.8000       214
    74.8200       202
    74.8400       218
    74.8600       182
    74.8800       192
    74.9000       190
    74.9200       230
    74.9400       174
    74.9600       204
    74.9800       200
    75.0000       210
    75.0200       214
    75.0400       222
    75.0600       206
    75.0800       206
    75.1000       216
    75.1200       208
    75.1400       208
    75.1600       232
    75.1800       206
    75.2000       232
    75.2200       216
    75.2400       226
    75.2600       222
    75.2800       232
    75.3000       234
    75.3200       252
    75.3400       262
    75.3600       248
    75.3800       226
    75.4000       230
    75.4200       228
    75.4400       248
    75.4600       208
    75.4800       246
    75.5000       236
    75.5200       246
    75.5400       260
    75.5600       244
    75.5800       238
    75.6000       264
    75.6200       248
    75.6400       268
    75.6600       244
    75.6800       256
    75.7000       250
    75.7200       272
    75.7400       244
    75.7600       246
    75.7800       276
    75.8000       282
    75.8200       276
    75.8400       246
    75.8600       250
    75.8800       278
    75.9000       274
    75.9200       240
    75.9400       264
    75.9600       254
    75.9800       278
    76.0000       280
    76.0200       220
    76.0400       258
    76.0600       260
    76.0800       254
    76.1000       264
    76.1200       278
    76.1400       262
    76.1600       274
    76.1800       272
    76.2000       280
    76.2200       298
    76.2400       270
    76.2600       284
    76.2800       302
    76.3000       266
    76.3200       288
    76.3400       312
    76.3600       282
    76.3800       350
    76.4000       328
    76.4200       322
    76.4400       366
    76.4600       358
    76.4800       350
    76.5000       338
    76.5200       376
    76.5400       372
    76.5600       374
    76.5800       386
    76.6000       368
    76.6200       390
    76.6400       394
    76.6600       364
    76.6800       396
    76.7000       374
    76.7200       400
    76.7400       400
    76.7600       398
    76.7800       420
    76.8000       378
    76.8200       408
    76.8400       400
    76.8600       398
    76.8800       366
    76.9000       382
    76.9200       374
    76.9400       386
    76.9600       344
    76.9800       350
    77.0000       378
    77.0200       370
    77.0400       372
    77.0600       348
    77.0800       356
    77.1000       332
    77.1200       314
    77.1400       342
    77.1600       334
    77.1800       362
    77.2000       366
    77.2200       350
    77.2400       376
    77.2600       348
    77.2800       352
    77.3000       418
    77.3200       404
    77.3400       392
    77.3600       378
    77.3800       392
    77.4000       406
    77.4200       458
    77.4400       466
    77.4600       450
    77.4800       488
    77.5000       462
    77.5200       510
    77.5400       574
    77.5600       560
    77.5800       586
    77.6000       626
    77.6200       664
    77.6400       726
    77.6600       680
    77.6800       696
    77.7000       734
    77.7200       692
    77.7400       744
    77.7600       742
    77.7800       720
    77.8000       730
    77.8200       660
    77.8400       652
    77.8600       656
    77.8800       672
    77.9000       658
    77.9200       660
    77.9400       630
    77.9600       612
    77.9800       646
    78.0000       550
    78.0200       572
    78.0400       550
    78.0600       474
    78.0800       504
    78.1000       450
    78.1200       448
    78.1400       452
    78.1600       424
    78.1800       406
    78.2000       406
    78.2200       380
    78.2400       394
    78.2600       408
    78.2800       402
    78.3000       376
    78.3200       374
    78.3400       362
    78.3600       372
    78.3800       382
    78.4000       354
    78.4200       412
    78.4400       368
    78.4600       380
    78.4800       406
    78.5000       386
    78.5200       366
    78.5400       394
    78.5600       398
    78.5800       388
    78.6000       388
    78.6200       400
    78.6400       432
    78.6600       418
    78.6800       406
    78.7000       428
    78.7200       434
    78.7400       406
    78.7600       398
    78.7800       418
    78.8000       456
    78.8200       424
    78.8400       388
    78.8600       400
    78.8800       366
    78.9000       358
    78.9200       364
    78.9400       354
    78.9600       356
    78.9800       348
    79.0000       356
    79.0200       348
    79.0400       354
    79.0600       342
    79.0800       320
    79.1000       302
    79.1200       286
    79.1400       318
    79.1600       300
    79.1800       280
    79.2000       284
    79.2200       308
    79.2400       290
    79.2600       302
    79.2800       304
    79.3000       250
    79.3200       280
    79.3400       264
    79.3600       282
    79.3800       280
    79.4000       254
    79.4200       232
    79.4400       272
    79.4600       276
    79.4800       264
    79.5000       248
    79.5200       284
    79.5400       278
    79.5600       248
    79.5800       258
    79.6000       238
    79.6200       276
    79.6400       254
    79.6600       250
    79.6800       270
    79.7000       250
    79.7200       270
    79.7400       246
    79.7600       276
    79.7800       278
    79.8000       266
    79.8200       258
    79.8400       272
    79.8600       278
    79.8800       258
    79.9000       268
    79.9200       264
    79.9400       268
    79.9600       242
    79.9800       264
    80.0000       268
    80.0200       246
    80.0400       264
    80.0600       282
    80.0800       246
    80.1000       250
    80.1200       260
    80.1400       240
    80.1600       268
    80.1800       248
    80.2000       260
    80.2200       252
    80.2400       272
    80.2600       270
    80.2800       264
    80.3000       268
    80.3200       306
    80.3400       290
    80.3600       236
    80.3800       286
    80.4000       242
    80.4200       288
    80.4400       282
    80.4600       292
    80.4800       280
    80.5000       260
    80.5200       276
    80.5400       304
    80.5600       278
    80.5800       272
    80.6000       312
    80.6200       264
    80.6400       248
    80.6600       244
    80.6800       260
    80.7000       234
    80.7200       254
    80.7400       256
    80.7600       244
    80.7800       262
    80.8000       258
    80.8200       264
    80.8400       266
    80.8600       250
    80.8800       228
    80.9000       248
    80.9200       242
    80.9400       234
    80.9600       196
    80.9800       216
    81.0000       246
    81.0200       204
    81.0400       236
    81.0600       212
    81.0800       212
    81.1000       230
    81.1200       204
    81.1400       236
    81.1600       232
    81.1800       238
    81.2000       228
    81.2200       228
    81.2400       212
    81.2600       238
    81.2800       230
    81.3000       266
    81.3200       240
    81.3400       234
    81.3600       248
    81.3800       234
    81.4000       242
    81.4200       266
    81.4400       288
    81.4600       268
    81.4800       280
    81.5000       240
    81.5200       266
    81.5400       296
    81.5600       252
    81.5800       254
    81.6000       274
    81.6200       272
    81.6400       268
    81.6600       260
    81.6800       288
    81.7000       292
    81.7200       294
    81.7400       296
    81.7600       308
    81.7800       282
    81.8000       276
    81.8200       290
    81.8400       288
    81.8600       306
    81.8800       292
    81.9000       276
    81.9200       300
    81.9400       308
    81.9600       308
    81.9800       340
    82.0000       300
    82.0200       308
    82.0400       330
    82.0600       356
    82.0800       328
    82.1000       320
    82.1200       320
    82.1400       358
    82.1600       352
    82.1800       360
    82.2000       356
    82.2200       368
    82.2400       348
    82.2600       370
    82.2800       386
    82.3000       388
    82.3200       372
    82.3400       368
    82.3600       380
    82.3800       364
    82.4000       410
    82.4200       396
    82.4400       398
    82.4600       378
    82.4800       398
    82.5000       420
    82.5200       406
    82.5400       412
    82.5600       412
    82.5800       456
    82.6000       484
    82.6200       426
    82.6400       508
    82.6600       486
    82.6800       500
    82.7000       534
    82.7200       502
    82.7400       512
    82.7600       554
    82.7800       604
    82.8000       578
    82.8200       602
    82.8400       636
    82.8600       628
    82.8800       662
    82.9000       672
    82.9200       678
    82.9400       622
    82.9600       638
    82.9800       668
    83.0000       652
    83.0200       588
    83.0400       618
    83.0600       588
    83.0800       592
    83.1000       584
    83.1200       574
    83.1400       576
    83.1600       548
    83.1800       514
    83.2000       564
    83.2200       520
    83.2400       460
    83.2600       504
    83.2800       456
    83.3000       478
    83.3200       474
    83.3400       452
    83.3600       448
    83.3800       470
    83.4000       438
    83.4200       406
    83.4400       410
    83.4600       400
    83.4800       386
    83.5000       394
    83.5200       354
    83.5400       382
    83.5600       390
    83.5800       354
    83.6000       384
    83.6200       364
    83.6400       382
    83.6600       352
    83.6800       302
    83.7000       306
    83.7200       312
    83.7400       358
    83.7600       340
    83.7800       336
    83.8000       356
    83.8200       324
    83.8400       338
    83.8600       344
    83.8800       310
    83.9000       312
    83.9200       272
    83.9400       304
    83.9600       312
    83.9800       306
    84.0000       316
    84.0200       324
    84.0400       312
    84.0600       298
    84.0800       302
    84.1000       356
    84.1200       340
    84.1400       334
    84.1600       342
    84.1800       340
    84.2000       302
    84.2200       312
    84.2400       316
    84.2600       324
    84.2800       332
    84.3000       312
    84.3200       314
    84.3400       312
    84.3600       332
    84.3800       286
    84.4000       284
    84.4200       316
    84.4400       312
    84.4600       326
    84.4800       304
    84.5000       298
    84.5200       300
    84.5400       302
    84.5600       272
    84.5800       314
    84.6000       294
    84.6200       332
    84.6400       320
    84.6600       280
    84.6800       288
    84.7000       290
    84.7200       300
    84.7400       314
    84.7600       274
    84.7800       288
    84.8000       296
    84.8200       268
    84.8400       282
    84.8600       286
    84.8800       270
    84.9000       284
    84.9200       266
    84.9400       270
    84.9600       276
    84.9800       274
    85.0000       262
    85.0200       292
    85.0400       236
    85.0600       260
    85.0800       268
    85.1000       248
    85.1200       278
    85.1400       250
    85.1600       286
    85.1800       238
    85.2000       280
    85.2200       262
    85.2400       272
    85.2600       264
    85.2800       242
    85.3000       262
    85.3200       240
    85.3400       242
    85.3600       262
    85.3800       242
    85.4000       220
    85.4200       286
    85.4400       274
    85.4600       258
    85.4800       254
    85.5000       284
    85.5200       256
    85.5400       244
    85.5600       308
    85.5800       286
    85.6000       276
    85.6200       264
    85.6400       308
    85.6600       316
    85.6800       322
    85.7000       324
    85.7200       314
    85.7400       298
    85.7600       286
    85.7800       310
    85.8000       272
    85.8200       286
    85.8400       252
    85.8600       300
    85.8800       258
    85.9000       268
    85.9200       280
    85.9400       264
    85.9600       268
    85.9800       270
    86.0000       256
    86.0200       272
    86.0400       272
    86.0600       252
    86.0800       246
    86.1000       234
    86.1200       224
    86.1400       246
    86.1600       232
    86.1800       226
    86.2000       262
    86.2200       226
    86.2400       246
    86.2600       256
    86.2800       214
    86.3000       262
    86.3200       244
    86.3400       228
    86.3600       264
    86.3800       238
    86.4000       250
    86.4200       256
    86.4400       232
    86.4600       240
    86.4800       226
    86.5000       238
    86.5200       256
    86.5400       256
    86.5600       270
    86.5800       248
    86.6000       242
    86.6200       258
    86.6400       280
    86.6600       266
    86.6800       244
    86.7000       272
    86.7200       306
    86.7400       252
    86.7600       294
    86.7800       278
    86.8000       298
    86.8200       336
    86.8400       348
    86.8600       318
    86.8800       300
    86.9000       370
    86.9200       342
    86.9400       326
    86.9600       380
    86.9800       352
    87.0000       328
    87.0200       338
    87.0400       354
    87.0600       364
    87.0800       346
    87.1000       348
    87.1200       360
    87.1400       310
    87.1600       372
    87.1800       368
    87.2000       312
    87.2200       366
    87.2400       362
    87.2600       340
    87.2800       334
    87.3000       342
    87.3200       318
    87.3400       314
    87.3600       338
    87.3800       334
    87.4000       324
    87.4200       294
    87.4400       312
    87.4600       308
    87.4800       356
    87.5000       290
    87.5200       326
    87.5400       338
    87.5600       298
    87.5800       312
    87.6000       340
    87.6200       310
    87.6400       326
    87.6600       352
    87.6800       346
    87.7000       380
    87.7200       388
    87.7400       362
    87.7600       368
    87.7800       382
    87.8000       374
    87.8200       406
    87.8400       382
    87.8600       400
    87.8800       376
    87.9000       394
    87.9200       388
    87.9400       406
    87.9600       406
    87.9800       398
    88.0000       382
    88.0200       378
    88.0400       398
    88.0600       392
    88.0800       432
    88.1000       356
    88.1200       400
    88.1400       380
    88.1600       396
    88.1800       394
    88.2000       394
    88.2200       414
    88.2400       386
    88.2600       384
    88.2800       346
    88.3000       402
    88.3200       380
    88.3400       360
    88.3600       400
    88.3800       384
    88.4000       378
    88.4200       392
    88.4400       394
    88.4600       368
    88.4800       332
    88.5000       344
    88.5200       348
    88.5400       344
    88.5600       324
    88.5800       354
    88.6000       356
    88.6200       328
    88.6400       320
    88.6600       320
    88.6800       364
    88.7000       328
    88.7200       336
    88.7400       296
    88.7600       342
    88.7800       288
    88.8000       328
    88.8200       316
    88.8400       286
    88.8600       284
    88.8800       280
    88.9000       318
    88.9200       270
    88.9400       290
    88.9600       270
    88.9800       270
    89.0000       270
    89.0200       258
    89.0400       258
    89.0600       268
    89.0800       234
    89.1000       270
    89.1200       266
    89.1400       230
    89.1600       274
    89.1800       242
    89.2000       232
    89.2200       236
    89.2400       236
    89.2600       240
    89.2800       258
    89.3000       280
    89.3200       266
    89.3400       240
    89.3600       234
    89.3800       264
    89.4000       238
    89.4200       280
    89.4400       248
    89.4600       272
    89.4800       266
    89.5000       228
    89.5200       250
    89.5400       248
    89.5600       246
    89.5800       274
    89.6000       290
    89.6200       294
    89.6400       276
    89.6600       266
    89.6800       272
    89.7000       292
    89.7200       272
    89.7400       276
    89.7600       278
    89.7800       292
    89.8000       274
    89.8200       306
    89.8400       284
    89.8600       272
    89.8800       302
    89.9000       284
    89.9200       276
    89.9400       276
    89.9600       278
    89.9800       328
    90.0000       280
