    10.0000       380
    10.0200       366
    10.0400       388
    10.0600       368
    10.0800       360
    10.1000       390
    10.1200       354
    10.1400       370
    10.1600       368
    10.1800       382
    10.2000       352
    10.2200       406
    10.2400       344
    10.2600       364
    10.2800       370
    10.3000       334
    10.3200       322
    10.3400       350
    10.3600       370
    10.3800       370
    10.4000       368
    10.4200       368
    10.4400       354
    10.4600       382
    10.4800       330
    10.5000       320
    10.5200       362
    10.5400       306
    10.5600       362
    10.5800       392
    10.6000       356
    10.6200       348
    10.6400       356
    10.6600       342
    10.6800       342
    10.7000       366
    10.7200       342
    10.7400       332
    10.7600       340
    10.7800       336
    10.8000       348
    10.8200       330
    10.8400       382
    10.8600       322
    10.8800       348
    10.9000       316
    10.9200       330
    10.9400       316
    10.9600       368
    10.9800       336
    11.0000       328
    11.0200       322
    11.0400       330
    11.0600       328
    11.0800       340
    11.1000       340
    11.1200       320
    11.1400       370
    11.1600       376
    11.1800       338
    11.2000       338
    11.2200       306
    11.2400       322
    11.2600       314
    11.2800       342
    11.3000       308
    11.3200       322
    11.3400       342
    11.3600       308
    11.3800       334
    11.4000       350
    11.4200       344
    11.4400       330
    11.4600       334
    11.4800       322
    11.5000       312
    11.5200       348
    11.5400       354
    11.5600       340
    11.5800       362
    11.6000       350
    11.6200       338
    11.6400       334
    11.6600       360
    11.6800       350
    11.7000       336
    11.7200       370
    11.7400       358
    11.7600       348
    11.7800       356
    11.8000       328
    11.8200       334
    11.8400       350
    11.8600       382
    11.8800       358
    11.9000       400
    11.9200       372
    11.9400       438
    11.9600       412
    11.9800       390
    12.0000       398
    12.0200       450
    12.0400       432
    12.0600       450
    12.0800       514
    12.1000       514
    12.1200       528
    12.1400       588
    12.1600       620
    12.1800       634
    12.2000       656
    12.2200       588
    12.2400       630
    12.2600       506
    12.2800       442
    12.3000       410
    12.3200       396
    12.3400       334
    12.3600       342
    12.3800       326
    12.4000       350
    12.4200       350
    12.4400       322
    12.4600       346
    12.4800       302
    12.5000       300
    12.5200       316
    12.5400       326
    12.5600       316
    12.5800       324
    12.6000       300
    12.6200       300
    12.6400       346
    12.6600       296
    12.6800       316
    12.7000       292
    12.7200       300
    12.7400       294
    12.7600       302
    12.7800       272
    12.8000       276
    12.8200       278
    12.8400       314
    12.8600       300
    12.8800       306
    12.9000       302
    12.9200       320
    12.9400       306
    12.9600       264
    12.9800       270
    13.0000       308
    13.0200       286
    13.0400       290
    13.0600       280
    13.0800       278
    13.1000       274
    13.1200       298
    13.1400       290
    13.1600       268
    13.1800       302
    13.2000       320
    13.2200       294
    13.2400       266
    13.2600       310
    13.2800       264
    13.3000       260
    13.3200       304
    13.3400       264
    13.3600       280
    13.3800       270
    13.4000       296
    13.4200       314
    13.4400       280
    13.4600       296
    13.4800       292
    13.5000       300
    13.5200       270
    13.5400       280
    13.5600       296
    13.5800       284
    13.6000       290
    13.6200       308
    13.6400       324
    13.6600       284
    13.6800       264
    13.7000       280
    13.7200       290
    13.7400       272
    13.7600       278
    13.7800       270
    13.8000       266
    13.8200       260
    13.8400       280
    13.8600       272
    13.8800       260
    13.9000       276
    13.9200       294
    13.9400       272
    13.9600       248
    13.9800       272
    14.0000       270
    14.0200       288
    14.0400       250
    14.0600       256
    14.0800       296
    14.1000       258
    14.1200       266
    14.1400       274
    14.1600       256
    14.1800       290
    14.2000       262
    14.2200       258
    14.2400       254
    14.2600       294
    14.2800       302
    14.3000       288
    14.3200       284
    14.3400       272
    14.3600       276
    14.3800       278
    14.4000       296
    14.4200       278
    14.4400       260
    14.4600       290
    14.4800       256
    14.5000       272
    14.5200       276
    14.5400       266
    14.5600       332
    14.5800       298
    14.6000       298
    14.6200       316
    14.6400       322
    14.6600       286
    14.6800       328
    14.7000       318
    14.7200       382
    14.7400       320
    14.7600       332
    14.7800       382
    14.8000       402
    14.8200       436
    14.8400       456
    14.8600       430
    14.8800       466
    14.9000       546
    14.9200       580
    14.9400       598
    14.9600       632
    14.9800       694
    15.0000       778
    15.0200       890
    15.0400       922
    15.0600       992
    15.0800      1144
    15.1000      1188
    15.1200      1402
    15.1400      1530
    15.1600      1596
    15.1800      1660
    15.2000      1740
    15.2200      1578
    15.2400      1478
    15.2600      1234
    15.2800       970
    15.3000       806
    15.3200       634
    15.3400       506
    15.3600       492
    15.3800       438
    15.4000       392
    15.4200       400
    15.4400       356
    15.4600       336
    15.4800       304
    15.5000       314
    15.5200       312
    15.5400       320
    15.5600       312
    15.5800       262
    15.6000       282
    15.6200       298
    15.6400       292
    15.6600       260
    15.6800       268
    15.7000       256
    15.7200       302
    15.7400       280
    15.7600       256
    15.7800       292
    15.8000       234
    15.8200       252
    15.8400       260
    15.8600       246
    15.8800       278
    15.9000       262
    15.9200       288
    15.9400       256
    15.9600       258
    15.9800       270
    16.0000       272
    16.0200       258
    16.0400       272
    16.0600       258
    16.0800       286
    16.1000       258
    16.1200       280
    16.1400       286
    16.1600       302
    16.1800       272
    16.2000       338
    16.2200       312
    16.2400       356
    16.2600       324
    16.2800       382
    16.3000       328
    16.3200       326
    16.3400       340
    16.3600       314
    16.3800       332
    16.4000       332
    16.4200       318
    16.4400       304
    16.4600       336
    16.4800       370
    16.5000       342
    16.5200       350
    16.5400       346
    16.5600       326
    16.5800       344
    16.6000       362
    16.6200       420
    16.6400       422
    16.6600       432
    16.6800       458
    16.7000       498
    16.7200       566
    16.7400       564
    16.7600       670
    16.7800       632
    16.8000       698
    16.8200       868
    16.8400       878
    16.8600       988
    16.8800      1142
    16.9000      1276
    16.9200      1398
    16.9400      1678
    16.9600      1920
    16.9800      2278
    17.0000      2542
    17.0200      2840
    17.0400      2884
    17.0600      2972
    17.0800      2778
    17.1000      2370
    17.1200      1940
    17.1400      1528
    17.1600      1290
    17.1800      1086
    17.2000      1036
    17.2200       862
    17.2400       874
    17.2600       726
    17.2800       782
    17.3000       712
    17.3200       668
    17.3400       620
    17.3600       542
    17.3800       564
    17.4000       508
    17.4200       498
    17.4400       488
    17.4600       484
    17.4800       478
    17.5000       440
    17.5200       486
    17.5400       432
    17.5600       466
    17.5800       496
    17.6000       460
    17.6200       480
    17.6400       548
    17.6600       550
    17.6800       610
    17.7000       670
    17.7200       736
    17.7400       738
    17.7600       816
    17.7800       868
    17.8000       922
    17.8200      1010
    17.8400       896
    17.8600       828
    17.8800       726
    17.9000       612
    17.9200       534
    17.9400       450
    17.9600       426
    17.9800       362
    18.0000       348
    18.0200       314
    18.0400       334
    18.0600       282
    18.0800       336
    18.1000       254
    18.1200       260
    18.1400       274
    18.1600       242
    18.1800       246
    18.2000       246
    18.2200       240
    18.2400       230
    18.2600       244
    18.2800       224
    18.3000       238
    18.3200       208
    18.3400       238
    18.3600       246
    18.3800       238
    18.4000       262
    18.4200       238
    18.4400       250
    18.4600       254
    18.4800       250
    18.5000       240
    18.5200       250
    18.5400       256
    18.5600       260
    18.5800       242
    18.6000       268
    18.6200       214
    18.6400       224
    18.6600       240
    18.6800       230
    18.7000       240
    18.7200       236
    18.7400       270
    18.7600       244
    18.7800       236
    18.8000       254
    18.8200       258
    18.8400       258
    18.8600       298
    18.8800       230
    18.9000       288
    18.9200       274
    18.9400       270
    18.9600       268
    18.9800       282
    19.0000       314
    19.0200       298
    19.0400       304
    19.0600       300
    19.0800       310
    19.1000       344
    19.1200       328
    19.1400       348
    19.1600       352
    19.1800       432
    19.2000       398
    19.2200       452
    19.2400       460
    19.2600       520
    19.2800       518
    19.3000       576
    19.3200       626
    19.3400       740
    19.3600       738
    19.3800       842
    19.4000       982
    19.4200      1094
    19.4400      1250
    19.4600      1502
    19.4800      1650
    19.5000      1954
    19.5200      2206
    19.5400      2276
    19.5600      2342
    19.5800      2376
    19.6000      2162
    19.6200      1930
    19.6400      1618
    19.6600      1340
    19.6800      1112
    19.7000       974
    19.7200       836
    19.7400       826
    19.7600       786
    19.7800       790
    19.8000       888
    19.8200       912
    19.8400       994
    19.8600      1074
    19.8800      1124
    19.9000      1330
    19.9200      1402
    19.9400      1674
    19.9600      1828
    19.9800      1844
    20.0000      1862
    20.0200      1810
    20.0400      1772
    20.0600      1438
    20.0800      1224
    20.1000      1014
    20.1200       856
    20.1400       688
    20.1600       574
    20.1800       450
    20.2000       472
    20.2200       422
    20.2400       394
    20.2600       396
    20.2800       360
    20.3000       326
    20.3200       314
    20.3400       340
    20.3600       272
    20.3800       292
    20.4000       282
    20.4200       278
    20.4400       264
    20.4600       282
    20.4800       248
    20.5000       232
    20.5200       246
    20.5400       260
    20.5600       252
    20.5800       264
    20.6000       290
    20.6200       272
    20.6400       256
    20.6600       266
    20.6800       274
    20.7000       272
    20.7200       266
    20.7400       290
    20.7600       254
    20.7800       338
    20.8000       304
    20.8200       302
    20.8400       328
    20.8600       354
    20.8800       364
    20.9000       396
    20.9200       428
    20.9400       450
    20.9600       488
    20.9800       534
    21.0000       588
    21.0200       646
    21.0400       704
    21.0600       782
    21.0800       920
    21.1000      1062
    21.1200      1292
    21.1400      1382
    21.1600      1540
    21.1800      1594
    21.2000      1688
    21.2200      1670
    21.2400      1592
    21.2600      1526
    21.2800      1324
    21.3000      1150
    21.3200       914
    21.3400       724
    21.3600       620
    21.3800       574
    21.4000       468
    21.4200       432
    21.4400       386
    21.4600       338
    21.4800       300
    21.5000       278
    21.5200       288
    21.5400       286
    21.5600       272
    21.5800       260
    21.6000       234
    21.6200       260
    21.6400       252
    21.6600       228
    21.6800       252
    21.7000       246
    21.7200       222
    21.7400       226
    21.7600       224
    21.7800       234
    21.8000       224
    21.8200       246
    21.8400       206
    21.8600       240
    21.8800       246
    21.9000       214
    21.9200       224
    21.9400       212
    21.9600       224
    21.9800       210
    22.0000       244
    22.0200       214
    22.0400       210
    22.0600       216
    22.0800       208
    22.1000       226
    22.1200       248
    22.1400       246
    22.1600       252
    22.1800       220
    22.2000       212
    22.2200       240
    22.2400       234
    22.2600       270
    22.2800       230
    22.3000       230
    22.3200       274
    22.3400       266
    22.3600       268
    22.3800       326
    22.4000       258
    22.4200       332
    22.4400       304
    22.4600       324
    22.4800       368
    22.5000       416
    22.5200       396
    22.5400       470
    22.5600       508
    22.5800       522
    22.6000       596
    22.6200       630
    22.6400       782
    22.6600       848
    22.6800       972
    22.7000      1178
    22.7200      1178
    22.7400      1430
    22.7600      1642
    22.7800      1898
    22.8000      2242
    22.8200      2490
    22.8400      2770
    22.8600      2968
    22.8800      3028
    22.9000      2932
    22.9200      2780
    22.9400      2252
    22.9600      2032
    22.9800      1672
    23.0000      1324
    23.0200      1036
    23.0400       806
    23.0600       714
    23.0800       622
    23.1000       536
    23.1200       476
    23.1400       390
    23.1600       412
    23.1800       388
    23.2000       410
    23.2200       360
    23.2400       354
    23.2600       362
    23.2800       304
    23.3000       290
    23.3200       256
    23.3400       250
    23.3600       292
    23.3800       260
    23.4000       264
    23.4200       266
    23.4400       236
    23.4600       262
    23.4800       240
    23.5000       222
    23.5200       256
    23.5400       244
    23.5600       228
    23.5800       248
    23.6000       246
    23.6200       250
    23.6400       202
    23.6600       242
    23.6800       264
    23.7000       240
    23.7200       216
    23.7400       252
    23.7600       224
    23.7800       236
    23.8000       222
    23.8200       252
    23.8400       226
    23.8600       244
    23.8800       224
    23.9000       220
    23.9200       234
    23.9400       232
    23.9600       214
    23.9800       212
    24.0000       242
    24.0200       226
    24.0400       260
    24.0600       240
    24.0800       256
    24.1000       258
    24.1200       270
    24.1400       272
    24.1600       246
    24.1800       262
    24.2000       266
    24.2200       300
    24.2400       362
    24.2600       336
    24.2800       372
    24.3000       404
    24.3200       460
    24.3400       456
    24.3600       548
    24.3800       556
    24.4000       600
    24.4200       666
    24.4400       722
    24.4600       884
    24.4800       912
    24.5000      1016
    24.5200      1122
    24.5400      1078
    24.5600      1104
    24.5800      1074
    24.6000       964
    24.6200       898
    24.6400       864
    24.6600       800
    24.6800       762
    24.7000       746
    24.7200       738
    24.7400       762
    24.7600       736
    24.7800       708
    24.8000       702
    24.8200       674
    24.8400       530
    24.8600       614
    24.8800       558
    24.9000       550
    24.9200       504
    24.9400       478
    24.9600       502
    24.9800       466
    25.0000       482
    25.0200       500
    25.0400       562
    25.0600       540
    25.0800       572
    25.1000       616
    25.1200       630
    25.1400       760
    25.1600       800
    25.1800       850
    25.2000       960
    25.2200      1072
    25.2400      1164
    25.2600      1298
    25.2800      1412
    25.3000      1424
    25.3200      1486
    25.3400      1458
    25.3600      1316
    25.3800      1172
    25.4000      1026
    25.4200       976
    25.4400       862
    25.4600       756
    25.4800       726
    25.5000       752
    25.5200       732
    25.5400       804
    25.5600       774
    25.5800       896
    25.6000       834
    25.6200       844
    25.6400       828
    25.6600       802
    25.6800       716
    25.7000       688
    25.7200       612
    25.7400       572
    25.7600       458
    25.7800       390
    25.8000       416
    25.8200       398
    25.8400       378
    25.8600       360
    25.8800       316
    25.9000       314
    25.9200       334
    25.9400       326
    25.9600       312
    25.9800       270
    26.0000       286
    26.0200       268
    26.0400       244
    26.0600       260
    26.0800       240
    26.1000       266
    26.1200       244
    26.1400       276
    26.1600       256
    26.1800       220
    26.2000       224
    26.2200       258
    26.2400       244
    26.2600       278
    26.2800       236
    26.3000       252
    26.3200       250
    26.3400       246
    26.3600       246
    26.3800       292
    26.4000       274
    26.4200       240
    26.4400       276
    26.4600       254
    26.4800       262
    26.5000       248
    26.5200       250
    26.5400       278
    26.5600       304
    26.5800       270
    26.6000       288
    26.6200       280
    26.6400       270
    26.6600       254
    26.6800       270
    26.7000       326
    26.7200       264
    26.7400       288
    26.7600       256
    26.7800       242
    26.8000       286
    26.8200       248
    26.8400       254
    26.8600       254
    26.8800       252
    26.9000       240
    26.9200       268
    26.9400       262
    26.9600       260
    26.9800       260
    27.0000       288
    27.0200       266
    27.0400       264
    27.0600       290
    27.0800       284
    27.1000       288
    27.1200       310
    27.1400       322
    27.1600       320
    27.1800       336
    27.2000       352
    27.2200       376
    27.2400       376
    27.2600       444
    27.2800       462
    27.3000       514
    27.3200       618
    27.3400       636
    27.3600       656
    27.3800       822
    27.4000       832
    27.4200       946
    27.4400      1012
    27.4600      1124
    27.4800      1136
    27.5000      1158
    27.5200      1114
    27.5400      1008
    27.5600       942
    27.5800       832
    27.6000       830
    27.6200       678
    27.6400       600
    27.6600       478
    27.6800       450
    27.7000       424
    27.7200       418
    27.7400       366
    27.7600       362
    27.7800       356
    27.8000       310
    27.8200       334
    27.8400       340
    27.8600       318
    27.8800       308
    27.9000       312
    27.9200       302
    27.9400       308
    27.9600       304
    27.9800       342
    28.0000       336
    28.0200       322
    28.0400       318
    28.0600       328
    28.0800       320
    28.1000       350
    28.1200       376
    28.1400       340
    28.1600       392
    28.1800       398
    28.2000       446
    28.2200       442
    28.2400       426
    28.2600       474
    28.2800       486
    28.3000       498
    28.3200       486
    28.3400       476
    28.3600       478
    28.3800       410
    28.4000       400
    28.4200       382
    28.4400       380
    28.4600       344
    28.4800       344
    28.5000       398
    28.5200       366
    28.5400       348
    28.5600       350
    28.5800       414
    28.6000       388
    28.6200       378
    28.6400       434
    28.6600       424
    28.6800       458
    28.7000       456
    28.7200       462
    28.7400       484
    28.7600       484
    28.7800       456
    28.8000       410
    28.8200       394
    28.8400       376
    28.8600       352
    28.8800       352
    28.9000       298
    28.9200       318
    28.9400       292
    28.9600       320
    28.9800       320
    29.0000       294
    29.0200       312
    29.0400       278
    29.0600       312
    29.0800       324
    29.1000       310
    29.1200       296
    29.1400       322
    29.1600       330
    29.1800       340
    29.2000       366
    29.2200       378
    29.2400       366
    29.2600       398
    29.2800       358
    29.3000       432
    29.3200       434
    29.3400       446
    29.3600       512
    29.3800       480
    29.4000       550
    29.4200       604
    29.4400       620
    29.4600       660
    29.4800       748
    29.5000       766
    29.5200       902
    29.5400       940
    29.5600      1026
    29.5800      1028
    29.6000      1168
    29.6200      1244
    29.6400      1318
    29.6600      1414
    29.6800      1374
    29.7000      1348
    29.7200      1238
    29.7400      1156
    29.7600      1084
    29.7800      1000
    29.8000       914
    29.8200       792
    29.8400       762
    29.8600       760
    29.8800       736
    29.9000       724
    29.9200       746
    29.9400       722
    29.9600       738
    29.9800       772
    30.0000       942
    30.0200       974
    30.0400      1136
    30.0600      1254
    30.0800      1344
    30.1000      1528
    30.1200      1624
    30.1400      1820
    30.1600      1932
    30.1800      1992
    30.2000      1988
    30.2200      2006
    30.2400      1908
    30.2600      1960
    30.2800      1852
    30.3000      1872
    30.3200      1802
    30.3400      1786
    30.3600      1844
    30.3800      1786
    30.4000      1892
    30.4200      2108
    30.4400      2292
    30.4600      2418
    30.4800      2682
    30.5000      3072
    30.5200      3408
    30.5400      3894
    30.5600      4518
    30.5800      5138
    30.6000      5664
    30.6200      6464
    30.6400      7150
    30.6600      7786
    30.6800      7962
    30.7000      7900
    30.7200      7464
    30.7400      6866
    30.7600      6148
    30.7800      5274
    30.8000      4522
    30.8200      3876
    30.8400      3084
    30.8600      2516
    30.8800      2172
    30.9000      1850
    30.9200      1650
    30.9400      1458
    30.9600      1332
    30.9800      1264
    31.0000      1148
    31.0200      1054
    31.0400      1008
    31.0600      1002
    31.0800       884
    31.1000       796
    31.1200       804
    31.1400       748
    31.1600       734
    31.1800       650
    31.2000       662
    31.2200       638
    31.2400       644
    31.2600       540
    31.2800       506
    31.3000       534
    31.3200       472
    31.3400       516
    31.3600       464
    31.3800       486
    31.4000       466
    31.4200       432
    31.4400       428
    31.4600       440
    31.4800       426
    31.5000       410
    31.5200       402
    31.5400       376
    31.5600       386
    31.5800       454
    31.6000       434
    31.6200       442
    31.6400       434
    31.6600       494
    31.6800       476
    31.7000       518
    31.7200       448
    31.7400       544
    31.7600       534
    31.7800       606
    31.8000       610
    31.8200       678
    31.8400       728
    31.8600       762
    31.8800       892
    31.9000       972
    31.9200      1094
    31.9400      1198
    31.9600      1344
    31.9800      1472
    32.0000      1662
    32.0200      1764
    32.0400      1684
    32.0600      1632
    32.0800      1630
    32.1000      1544
    32.1200      1334
    32.1400      1286
    32.1600      1212
    32.1800      1106
    32.2000      1068
    32.2200      1114
    32.2400      1062
    32.2600      1044
    32.2800      1148
    32.3000      1170
    32.3200      1280
    32.3400      1452
    32.3600      1654
    32.3800      1800
    32.4000      2054
    32.4200      2228
    32.4400      2590
    32.4600      3032
    32.4800      3578
    32.5000      3972
    32.5200      4296
    32.5400      4784
    32.5600      5134
    32.5800      5292
    32.6000      5216
    32.6200      5106
    32.6400      4802
    32.6600      4428
    32.6800      4056
    32.7000      3540
    32.7200      3074
    32.7400      2660
    32.7600      2248
    32.7800      1886
    32.8000      1714
    32.8200      1430
    32.8400      1344
    32.8600      1214
    32.8800      1158
    32.9000      1070
    32.9200      1024
    32.9400       984
    32.9600      1020
    32.9800       984
    33.0000      1074
    33.0200      1064
    33.0400      1128
    33.0600      1138
    33.0800      1240
    33.1000      1256
    33.1200      1194
    33.1400      1148
    33.1600      1086
    33.1800      1010
    33.2000       934
    33.2200       846
    33.2400       786
    33.2600       656
    33.2800       530
    33.3000       512
    33.3200       480
    33.3400       476
    33.3600       462
    33.3800       404
    33.4000       374
    33.4200       408
    33.4400       354
    33.4600       322
    33.4800       332
    33.5000       340
    33.5200       290
    33.5400       298
    33.5600       310
    33.5800       308
    33.6000       272
    33.6200       290
    33.6400       292
    33.6600       300
    33.6800       266
    33.7000       286
    33.7200       282
    33.7400       246
    33.7600       246
    33.7800       242
    33.8000       272
    33.8200       272
    33.8400       276
    33.8600       278
    33.8800       266
    33.9000       272
    33.9200       264
    33.9400       240
    33.9600       256
    33.9800       302
    34.0000       296
    34.0200       254
    34.0400       302
    34.0600       276
    34.0800       256
    34.1000       310
    34.1200       294
    34.1400       304
    34.1600       336
    34.1800       286
    34.2000       300
    34.2200       332
    34.2400       322
    34.2600       320
    34.2800       332
    34.3000       378
    34.3200       390
    34.3400       452
    34.3600       444
    34.3800       522
    34.4000       508
    34.4200       598
    34.4400       668
    34.4600       744
    34.4800       748
    34.5000       794
    34.5200       764
    34.5400       752
    34.5600       692
    34.5800       642
    34.6000       634
    34.6200       606
    34.6400       530
    34.6600       450
    34.6800       458
    34.7000       422
    34.7200       384
    34.7400       386
    34.7600       374
    34.7800       320
    34.8000       328
    34.8200       338
    34.8400       320
    34.8600       332
    34.8800       362
    34.9000       300
    34.9200       314
    34.9400       316
    34.9600       346
    34.9800       308
    35.0000       302
    35.0200       318
    35.0400       286
    35.0600       292
    35.0800       298
    35.1000       290
    35.1200       310
    35.1400       300
    35.1600       290
    35.1800       270
    35.2000       278
    35.2200       282
    35.2400       310
    35.2600       292
    35.2800       264
    35.3000       326
    35.3200       294
    35.3400       284
    35.3600       290
    35.3800       300
    35.4000       296
    35.4200       262
    35.4400       292
    35.4600       300
    35.4800       306
    35.5000       298
    35.5200       312
    35.5400       308
    35.5600       306
    35.5800       332
    35.6000       290
    35.6200       320
    35.6400       348
    35.6600       308
    35.6800       348
    35.7000       328
    35.7200       352
    35.7400       352
    35.7600       410
    35.7800       420
    35.8000       398
    35.8200       396
    35.8400       418
    35.8600       452
    35.8800       504
    35.9000       530
    35.9200       516
    35.9400       588
    35.9600       586
    35.9800       664
    36.0000       714
    36.0200       750
    36.0400       824
    36.0600       856
    36.0800       894
    36.1000      1022
    36.1200      1070
    36.1400      1098
    36.1600      1020
    36.1800       994
    36.2000       908
    36.2200       920
    36.2400       846
    36.2600       788
    36.2800       722
    36.3000       692
    36.3200       624
    36.3400       568
    36.3600       524
    36.3800       498
    36.4000       452
    36.4200       456
    36.4400       404
    36.4600       408
    36.4800       450
    36.5000       482
    36.5200       412
    36.5400       434
    36.5600       456
    36.5800       490
    36.6000       458
    36.6200       516
    36.6400       498
    36.6600       546
    36.6800       598
    36.7000       660
    36.7200       668
    36.7400       786
    36.7600       792
    36.7800       916
    36.8000       994
    36.8200       950
    36.8400      1212
    36.8600      1344
    36.8800      1384
    36.9000      1570
    36.9200      1556
    36.9400      1552
    36.9600      1526
    36.9800      1310
    37.0000      1314
    37.0200      1218
    37.0400      1180
    37.0600      1186
    37.0800      1058
    37.1000      1008
    37.1200       966
    37.1400       930
    37.1600       868
    37.1800       910
    37.2000       918
    37.2200       856
    37.2400       800
    37.2600       808
    37.2800       780
    37.3000       686
    37.3200       688
    37.3400       646
    37.3600       588
    37.3800       544
    37.4000       540
    37.4200       538
    37.4400       506
    37.4600       530
    37.4800       526
    37.5000       492
    37.5200       496
    37.5400       494
    37.5600       544
    37.5800       498
    37.6000       514
    37.6200       488
    37.6400       550
    37.6600       548
    37.6800       556
    37.7000       562
    37.7200       572
    37.7400       608
    37.7600       594
    37.7800       664
    37.8000       652
    37.8200       754
    37.8400       768
    37.8600       776
    37.8800       846
    37.9000       982
    37.9200      1030
    37.9400      1088
    37.9600      1200
    37.9800      1286
    38.0000      1476
    38.0200      1584
    38.0400      1632
    38.0600      1688
    38.0800      1662
    38.1000      1654
    38.1200      1578
    38.1400      1508
    38.1600      1606
    38.1800      1472
    38.2000      1408
    38.2200      1462
    38.2400      1416
    38.2600      1498
    38.2800      1560
    38.3000      1552
    38.3200      1782
    38.3400      2032
    38.3600      2010
    38.3800      2320
    38.4000      2618
    38.4200      2848
    38.4400      3140
    38.4600      3598
    38.4800      3872
    38.5000      4370
    38.5200      4652
    38.5400      4974
    38.5600      5324
    38.5800      5716
    38.6000      5870
    38.6200      6052
    38.6400      6290
    38.6600      6070
    38.6800      5952
    38.7000      5644
    38.7200      5512
    38.7400      5222
    38.7600      4822
    38.7800      4558
    38.8000      4134
    38.8200      3710
    38.8400      3352
    38.8600      2968
    38.8800      2610
    38.9000      2272
    38.9200      2020
    38.9400      1930
    38.9600      1720
    38.9800      1594
    39.0000      1486
    39.0200      1456
    39.0400      1486
    39.0600      1402
    39.0800      1334
    39.1000      1284
    39.1200      1332
    39.1400      1326
    39.1600      1312
    39.1800      1246
    39.2000      1350
    39.2200      1246
    39.2400      1336
    39.2600      1346
    39.2800      1334
    39.3000      1322
    39.3200      1294
    39.3400      1324
    39.3600      1380
    39.3800      1406
    39.4000      1352
    39.4200      1340
    39.4400      1272
    39.4600      1278
    39.4800      1232
    39.5000      1192
    39.5200      1202
    39.5400      1228
    39.5600      1260
    39.5800      1240
    39.6000      1378
    39.6200      1400
    39.6400      1448
    39.6600      1546
    39.6800      1616
    39.7000      1744
    39.7200      1846
    39.7400      1846
    39.7600      1792
    39.7800      1776
    39.8000      1720
    39.8200      1556
    39.8400      1458
    39.8600      1368
    39.8800      1258
    39.9000      1146
    39.9200      1036
    39.9400       932
    39.9600       886
    39.9800       888
    40.0000       806
    40.0200       836
    40.0400       802
    40.0600       838
    40.0800       926
    40.1000       850
    40.1200       954
    40.1400       950
    40.1600       928
    40.1800      1000
    40.2000      1030
    40.2200      1048
    40.2400       998
    40.2600      1008
    40.2800      1064
    40.3000       938
    40.3200      1028
    40.3400       990
    40.3600       982
    40.3800      1066
    40.4000      1118
    40.4200      1234
    40.4400      1242
    40.4600      1324
    40.4800      1384
    40.5000      1416
    40.5200      1584
    40.5400      1670
    40.5600      1820
    40.5800      1774
    40.6000      1750
    40.6200      1840
    40.6400      1738
    40.6600      1578
    40.6800      1530
    40.7000      1470
    40.7200      1400
    40.7400      1220
    40.7600      1188
    40.7800      1088
    40.8000       984
    40.8200       892
    40.8400       908
    40.8600       774
    40.8800       836
    40.9000       710
    40.9200       740
    40.9400       690
    40.9600       702
    40.9800       696
    41.0000       758
    41.0200       774
    41.0400       766
    41.0600       780
    41.0800       846
    41.1000       852
    41.1200       972
    41.1400      1076
    41.1600      1086
    41.1800      1220
    41.2000      1244
    41.2200      1376
    41.2400      1582
    41.2600      1608
    41.2800      1654
    41.3000      1698
    41.3200      1776
    41.3400      1818
    41.3600      1758
    41.3800      1914
    41.4000      1914
    41.4200      1820
    41.4400      2026
    41.4600      1952
    41.4800      2046
    41.5000      2006
    41.5200      1988
    41.5400      1958
    41.5600      1916
    41.5800      1796
    41.6000      1654
    41.6200      1588
    41.6400      1456
    41.6600      1396
    41.6800      1284
    41.7000      1234
    41.7200      1210
    41.7400      1164
    41.7600      1134
    41.7800      1132
    41.8000      1134
    41.8200      1218
    41.8400      1292
    41.8600      1354
    41.8800      1310
    41.9000      1366
    41.9200      1420
    41.9400      1438
    41.9600      1358
    41.9800      1370
    42.0000      1342
    42.0200      1206
    42.0400      1158
    42.0600      1076
    42.0800      1004
    42.1000       946
    42.1200       836
    42.1400       742
    42.1600       698
    42.1800       716
    42.2000       638
    42.2200       568
    42.2400       518
    42.2600       474
    42.2800       478
    42.3000       512
    42.3200       512
    42.3400       432
    42.3600       442
    42.3800       426
    42.4000       446
    42.4200       438
    42.4400       444
    42.4600       408
    42.4800       394
    42.5000       452
    42.5200       404
    42.5400       404
    42.5600       414
    42.5800       396
    42.6000       402
    42.6200       396
    42.6400       438
    42.6600       394
    42.6800       414
    42.7000       428
    42.7200       382
    42.7400       386
    42.7600       396
    42.7800       422
    42.8000       426
    42.8200       450
    42.8400       432
    42.8600       466
    42.8800       452
    42.9000       456
    42.9200       512
    42.9400       526
    42.9600       530
    42.9800       552
    43.0000       622
    43.0200       678
    43.0400       690
    43.0600       752
    43.0800       796
    43.1000       872
    43.1200      1008
    43.1400      1032
    43.1600      1130
    43.1800      1154
    43.2000      1262
    43.2200      1330
    43.2400      1336
    43.2600      1306
    43.2800      1326
    43.3000      1290
    43.3200      1278
    43.3400      1222
    43.3600      1102
    43.3800      1010
    43.4000       920
    43.4200       842
    43.4400       776
    43.4600       690
    43.4800       652
    43.5000       650
    43.5200       578
    43.5400       502
    43.5600       506
    43.5800       500
    43.6000       518
    43.6200       478
    43.6400       488
    43.6600       494
    43.6800       544
    43.7000       488
    43.7200       484
    43.7400       554
    43.7600       588
    43.7800       578
    43.8000       606
    43.8200       598
    43.8400       634
    43.8600       608
    43.8800       606
    43.9000       644
    43.9200       626
    43.9400       626
    43.9600       596
    43.9800       608
    44.0000       544
    44.0200       526
    44.0400       524
    44.0600       506
    44.0800       480
    44.1000       506
    44.1200       430
    44.1400       452
    44.1600       460
    44.1800       456
    44.2000       502
    44.2200       480
    44.2400       524
    44.2600       488
    44.2800       544
    44.3000       508
    44.3200       580
    44.3400       520
    44.3600       530
    44.3800       510
    44.4000       512
    44.4200       544
    44.4400       522
    44.4600       490
    44.4800       500
    44.5000       498
    44.5200       548
    44.5400       524
    44.5600       498
    44.5800       584
    44.6000       546
    44.6200       614
    44.6400       596
    44.6600       644
    44.6800       632
    44.7000       654
    44.7200       686
    44.7400       722
    44.7600       728
    44.7800       816
    44.8000       764
    44.8200       848
    44.8400       858
    44.8600       954
    44.8800       992
    44.9000      1114
    44.9200      1176
    44.9400      1274
    44.9600      1346
    44.9800      1428
    45.0000      1548
    45.0200      1618
    45.0400      1800
    45.0600      1904
    45.0800      1956
    45.1000      2018
    45.1200      2056
    45.1400      2202
    45.1600      2212
    45.1800      2384
    45.2000      2350
    45.2200      2332
    45.2400      2392
    45.2600      2362
    45.2800      2276
    45.3000      2216
    45.3200      2146
    45.3400      1998
    45.3600      1932
    45.3800      1944
    45.4000      1892
    45.4200      1840
    45.4400      1808
    45.4600      1722
    45.4800      1584
    45.5000      1602
    45.5200      1492
    45.5400      1422
    45.5600      1390
    45.5800      1260
    45.6000      1248
    45.6200      1116
    45.6400      1046
    45.6600      1018
    45.6800       944
    45.7000       876
    45.7200       880
    45.7400       848
    45.7600       806
    45.7800       730
    45.8000       782
    45.8200       812
    45.8400       716
    45.8600       718
    45.8800       710
    45.9000       738
    45.9200       740
    45.9400       706
    45.9600       724
    45.9800       704
    46.0000       700
    46.0200       692
    46.0400       706
    46.0600       696
    46.0800       678
    46.1000       676
    46.1200       706
    46.1400       772
    46.1600       744
    46.1800       744
    46.2000       832
    46.2200       820
    46.2400       854
    46.2600       896
    46.2800       910
    46.3000       930
    46.3200      1022
    46.3400      1006
    46.3600      1122
    46.3800      1232
    46.4000      1300
    46.4200      1496
    46.4400      1524
    46.4600      1644
    46.4800      1786
    46.5000      2046
    46.5200      2166
    46.5400      2538
    46.5600      2686
    46.5800      2930
    46.6000      3168
    46.6200      3620
    46.6400      4042
    46.6600      4428
    46.6800      4732
    46.7000      5000
    46.7200      5246
    46.7400      5652
    46.7600      5428
    46.7800      5476
    46.8000      5372
    46.8200      5092
    46.8400      4832
    46.8600      4366
    46.8800      4114
    46.9000      3680
    46.9200      3352
    46.9400      2986
    46.9600      2658
    46.9800      2330
    47.0000      2096
    47.0200      1782
    47.0400      1624
    47.0600      1476
    47.0800      1366
    47.1000      1184
    47.1200      1128
    47.1400      1032
    47.1600       940
    47.1800       880
    47.2000       866
    47.2200       762
    47.2400       744
    47.2600       728
    47.2800       672
    47.3000       656
    47.3200       650
    47.3400       588
    47.3600       598
    47.3800       560
    47.4000       546
    47.4200       542
    47.4400       524
    47.4600       536
    47.4800       488
    47.5000       498
    47.5200       478
    47.5400       446
    47.5600       490
    47.5800       460
    47.6000       468
    47.6200       514
    47.6400       498
    47.6600       466
    47.6800       478
    47.7000       476
    47.7200       496
    47.7400       560
    47.7600       504
    47.7800       524
    47.8000       568
    47.8200       590
    47.8400       616
    47.8600       596
    47.8800       670
    47.9000       680
    47.9200       672
    47.9400       692
    47.9600       670
    47.9800       622
    48.0000       674
    48.0200       608
    48.0400       590
    48.0600       644
    48.0800       646
    48.1000       636
    48.1200       674
    48.1400       616
    48.1600       634
    48.1800       642
    48.2000       720
    48.2200       748
    48.2400       740
    48.2600       722
    48.2800       792
    48.3000       766
    48.3200       758
    48.3400       754
    48.3600       778
    48.3800       810
    48.4000       792
    48.4200       814
    48.4400       864
    48.4600       844
    48.4800       906
    48.5000       858
    48.5200       918
    48.5400       960
    48.5600      1006
    48.5800      1074
    48.6000      1102
    48.6200      1052
    48.6400      1072
    48.6600      1048
    48.6800       986
    48.7000      1012
    48.7200       942
    48.7400       910
    48.7600       834
    48.7800       838
    48.8000       754
    48.8200       700
    48.8400       690
    48.8600       688
    48.8800       582
    48.9000       556
    48.9200       572
    48.9400       482
    48.9600       442
    48.9800       474
    49.0000       460
    49.0200       418
    49.0400       398
    49.0600       406
    49.0800       424
    49.1000       360
    49.1200       362
    49.1400       370
    49.1600       352
    49.1800       394
    49.2000       318
    49.2200       360
    49.2400       368
    49.2600       336
    49.2800       352
    49.3000       314
    49.3200       324
    49.3400       312
    49.3600       308
    49.3800       308
    49.4000       316
    49.4200       346
    49.4400       358
    49.4600       328
    49.4800       352
    49.5000       312
    49.5200       334
    49.5400       338
    49.5600       328
    49.5800       342
    49.6000       384
    49.6200       340
    49.6400       358
    49.6600       370
    49.6800       336
    49.7000       318
    49.7200       358
    49.7400       358
    49.7600       342
    49.7800       366
    49.8000       392
    49.8200       344
    49.8400       376
    49.8600       414
    49.8800       424
    49.9000       414
    49.9200       450
    49.9400       452
    49.9600       432
    49.9800       456
    50.0000       512
    50.0200       516
    50.0400       484
    50.0600       598
    50.0800       602
    50.1000       644
    50.1200       686
    50.1400       710
    50.1600       824
    50.1800       822
    50.2000       870
    50.2200      1026
    50.2400      1048
    50.2600      1028
    50.2800      1034
    50.3000      1212
    50.3200      1234
    50.3400      1224
    50.3600      1180
    50.3800      1182
    50.4000      1246
    50.4200      1232
    50.4400      1218
    50.4600      1228
    50.4800      1208
    50.5000      1166
    50.5200      1204
    50.5400      1214
    50.5600      1240
    50.5800      1314
    50.6000      1332
    50.6200      1360
    50.6400      1446
    50.6600      1412
    50.6800      1612
    50.7000      1722
    50.7200      1872
    50.7400      1932
    50.7600      2060
    50.7800      2266
    50.8000      2318
    50.8200      2306
    50.8400      2282
    50.8600      2324
    50.8800      2224
    50.9000      2124
    50.9200      2034
    50.9400      1968
    50.9600      1838
    50.9800      1750
    51.0000      1622
    51.0200      1502
    51.0400      1442
    51.0600      1330
    51.0800      1262
    51.1000      1158
    51.1200      1064
    51.1400      1056
    51.1600       990
    51.1800       974
    51.2000       888
    51.2200       888
    51.2400       896
    51.2600       844
    51.2800       814
    51.3000       814
    51.3200       862
    51.3400       774
    51.3600       838
    51.3800       824
    51.4000       836
    51.4200       812
    51.4400       872
    51.4600       842
    51.4800       872
    51.5000       812
    51.5200       792
    51.5400       826
    51.5600       860
    51.5800       890
    51.6000       908
    51.6200       862
    51.6400       850
    51.6600       900
    51.6800      1012
    51.7000      1046
    51.7200      1060
    51.7400      1094
    51.7600      1166
    51.7800      1262
    51.8000      1278
    51.8200      1452
    51.8400      1562
    51.8600      1516
    51.8800      1738
    51.9000      1926
    51.9200      2010
    51.9400      2114
    51.9600      2160
    51.9800      2318
    52.0000      2306
    52.0200      2352
    52.0400      2220
    52.0600      2142
    52.0800      1980
    52.1000      1920
    52.1200      1720
    52.1400      1742
    52.1600      1668
    52.1800      1428
    52.2000      1344
    52.2200      1248
    52.2400      1210
    52.2600      1026
    52.2800       886
    52.3000       898
    52.3200       846
    52.3400       870
    52.3600       840
    52.3800       786
    52.4000       814
    52.4200       844
    52.4400       816
    52.4600       878
    52.4800       836
    52.5000       868
    52.5200       960
    52.5400       946
    52.5600      1046
    52.5800      1062
    52.6000      1090
    52.6200      1168
    52.6400      1216
    52.6600      1198
    52.6800      1226
    52.7000      1278
    52.7200      1298
    52.7400      1270
    52.7600      1304
    52.7800      1318
    52.8000      1280
    52.8200      1160
    52.8400      1160
    52.8600      1048
    52.8800       978
    52.9000       998
    52.9200       912
    52.9400       986
    52.9600       906
    52.9800       814
    53.0000       800
    53.0200       804
    53.0400       778
    53.0600       790
    53.0800       778
    53.1000       784
    53.1200       836
    53.1400       856
    53.1600       818
    53.1800       898
    53.2000       978
    53.2200      1096
    53.2400      1074
    53.2600      1180
    53.2800      1228
    53.3000      1110
    53.3200      1224
    53.3400      1322
    53.3600      1194
    53.3800      1188
    53.4000      1212
    53.4200      1166
    53.4400      1076
    53.4600       982
    53.4800      1016
    53.5000       980
    53.5200       880
    53.5400       866
    53.5600       792
    53.5800       716
    53.6000       698
    53.6200       738
    53.6400       682
    53.6600       610
    53.6800       672
    53.7000       650
    53.7200       690
    53.7400       572
    53.7600       584
    53.7800       572
    53.8000       558
    53.8200       562
    53.8400       574
    53.8600       516
    53.8800       536
    53.9000       520
    53.9200       510
    53.9400       488
    53.9600       462
    53.9800       538
    54.0000       550
    54.0200       530
    54.0400       504
    54.0600       540
    54.0800       550
    54.1000       530
    54.1200       574
    54.1400       576
    54.1600       562
    54.1800       582
    54.2000       602
    54.2200       620
    54.2400       654
    54.2600       676
    54.2800       712
    54.3000       694
    54.3200       700
    54.3400       742
    54.3600       750
    54.3800       812
    54.4000       772
    54.4200       798
    54.4400       826
    54.4600       834
    54.4800       868
    54.5000       868
    54.5200       894
    54.5400       916
    54.5600       824
    54.5800       850
    54.6000       812
    54.6200       884
    54.6400       848
    54.6600       844
    54.6800       854
    54.7000       834
    54.7200       856
    54.7400       862
    54.7600       806
    54.7800       812
    54.8000       832
    54.8200       812
    54.8400       800
    54.8600       788
    54.8800       812
    54.9000       768
    54.9200       774
    54.9400       786
    54.9600       840
    54.9800       810
    55.0000       846
    55.0200       874
    55.0400       868
    55.0600       870
    55.0800       880
    55.1000       918
    55.1200       900
    55.1400      1022
    55.1600       958
    55.1800       946
    55.2000      1022
    55.2200      1006
    55.2400       936
    55.2600       904
    55.2800       882
    55.3000       952
    55.3200       830
    55.3400       834
    55.3600       840
    55.3800       842
    55.4000       788
    55.4200       812
    55.4400       774
    55.4600       698
    55.4800       676
    55.5000       656
    55.5200       612
    55.5400       610
    55.5600       578
    55.5800       584
    55.6000       534
    55.6200       522
    55.6400       460
    55.6600       462
    55.6800       444
    55.7000       462
    55.7200       448
    55.7400       440
    55.7600       448
    55.7800       372
    55.8000       394
    55.8200       390
    55.8400       366
    55.8600       442
    55.8800       406
    55.9000       356
    55.9200       364
    55.9400       364
    55.9600       360
    55.9800       342
    56.0000       322
    56.0200       338
    56.0400       368
    56.0600       366
    56.0800       352
    56.1000       354
    56.1200       336
    56.1400       378
    56.1600       390
    56.1800       360
    56.2000       342
    56.2200       350
    56.2400       368
    56.2600       348
    56.2800       356
    56.3000       370
    56.3200       380
    56.3400       370
    56.3600       366
    56.3800       388
    56.4000       392
    56.4200       406
    56.4400       414
    56.4600       412
    56.4800       426
    56.5000       406
    56.5200       442
    56.5400       480
    56.5600       484
    56.5800       474
    56.6000       464
    56.6200       556
    56.6400       526
    56.6600       560
    56.6800       610
    56.7000       614
    56.7200       644
    56.7400       676
    56.7600       662
    56.7800       732
    56.8000       732
    56.8200       718
    56.8400       704
    56.8600       618
    56.8800       684
    56.9000       732
    56.9200       638
    56.9400       680
    56.9600       606
    56.9800       662
    57.0000       602
    57.0200       602
    57.0400       576
    57.0600       544
    57.0800       570
    57.1000       550
    57.1200       572
    57.1400       580
    57.1600       600
    57.1800       588
    57.2000       666
    57.2200       668
    57.2400       690
    57.2600       694
    57.2800       804
    57.3000       840
    57.3200       856
    57.3400       892
    57.3600      1032
    57.3800      1054
    57.4000      1100
    57.4200      1072
    57.4400      1080
    57.4600      1162
    57.4800      1142
    57.5000      1156
    57.5200      1086
    57.5400      1140
    57.5600      1100
    57.5800      1098
    57.6000      1070
    57.6200      1108
    57.6400      1100
    57.6600      1026
    57.6800      1142
    57.7000      1014
    57.7200      1070
    57.7400      1126
    57.7600      1232
    57.7800      1138
    57.8000      1134
    57.8200      1176
    57.8400      1130
    57.8600      1096
    57.8800      1120
    57.9000      1026
    57.9200      1064
    57.9400      1012
    57.9600      1024
    57.9800       928
    58.0000       938
    58.0200       852
    58.0400       748
    58.0600       806
    58.0800       760
    58.1000       736
    58.1200       688
    58.1400       676
    58.1600       696
    58.1800       724
    58.2000       704
    58.2200       740
    58.2400       794
    58.2600       694
    58.2800       778
    58.3000       808
    58.3200       820
    58.3400       870
    58.3600       916
    58.3800       940
    58.4000      1042
    58.4200      1152
    58.4400      1162
    58.4600      1212
    58.4800      1298
    58.5000      1346
    58.5200      1474
    58.5400      1484
    58.5600      1658
    58.5800      1624
    58.6000      1656
    58.6200      1862
    58.6400      1852
    58.6600      1994
    58.6800      1996
    58.7000      2032
    58.7200      2188
    58.7400      2218
    58.7600      2238
    58.7800      2268
    58.8000      2258
    58.8200      2208
    58.8400      2128
    58.8600      2056
    58.8800      2008
    58.9000      2018
    58.9200      1914
    58.9400      1804
    58.9600      1768
    58.9800      1572
    59.0000      1504
    59.0200      1434
    59.0400      1378
    59.0600      1340
    59.0800      1254
    59.1000      1260
    59.1200      1166
    59.1400      1172
    59.1600      1126
    59.1800      1234
    59.2000      1090
    59.2200      1218
    59.2400      1178
    59.2600      1206
    59.2800      1292
    59.3000      1338
    59.3200      1456
    59.3400      1538
    59.3600      1596
    59.3800      1686
    59.4000      1726
    59.4200      1852
    59.4400      1886
    59.4600      1984
    59.4800      1830
    59.5000      1840
    59.5200      1848
    59.5400      1672
    59.5600      1670
    59.5800      1664
    59.6000      1562
    59.6200      1548
    59.6400      1514
    59.6600      1372
    59.6800      1310
    59.7000      1292
    59.7200      1238
    59.7400      1168
    59.7600      1140
    59.7800      1164
    59.8000      1040
    59.8200      1070
    59.8400       944
    59.8600       932
    59.8800       948
    59.9000       818
    59.9200       810
    59.9400       778
    59.9600       796
    59.9800       734
    60.0000       710
    60.0200       662
    60.0400       616
    60.0600       604
    60.0800       622
    60.1000       578
    60.1200       588
    60.1400       514
    60.1600       510
    60.1800       502
    60.2000       514
    60.2200       442
    60.2400       480
    60.2600       474
    60.2800       448
    60.3000       432
    60.3200       428
    60.3400       452
    60.3600       418
    60.3800       432
    60.4000       406
    60.4200       432
    60.4400       442
    60.4600       420
    60.4800       396
    60.5000       392
    60.5200       398
    60.5400       352
    60.5600       402
    60.5800       394
    60.6000       394
    60.6200       410
    60.6400       414
    60.6600       382
    60.6800       428
    60.7000       416
    60.7200       378
    60.7400       422
    60.7600       410
    60.7800       436
    60.8000       428
    60.8200       408
    60.8400       440
    60.8600       414
    60.8800       480
    60.9000       504
    60.9200       484
    60.9400       514
    60.9600       526
    60.9800       534
    61.0000       592
    61.0200       556
    61.0400       590
    61.0600       596
    61.0800       654
    61.1000       658
    61.1200       706
    61.1400       672
    61.1600       712
    61.1800       802
    61.2000       760
    61.2200       816
    61.2400       880
    61.2600       882
    61.2800       894
    61.3000       880
    61.3200       976
    61.3400       934
    61.3600       996
    61.3800       986
    61.4000      1098
    61.4200      1184
    61.4400      1212
    61.4600      1228
    61.4800      1214
    61.5000      1366
    61.5200      1410
    61.5400      1390
    61.5600      1428
    61.5800      1562
    61.6000      1584
    61.6200      1592
    61.6400      1516
    61.6600      1414
    61.6800      1462
    61.7000      1438
    61.7200      1338
    61.7400      1304
    61.7600      1280
    61.7800      1204
    61.8000      1142
    61.8200      1098
    61.8400      1030
    61.8600       964
    61.8800       874
    61.9000       858
    61.9200       832
    61.9400       738
    61.9600       698
    61.9800       672
    62.0000       686
    62.0200       634
    62.0400       616
    62.0600       640
    62.0800       558
    62.1000       590
    62.1200       566
    62.1400       556
    62.1600       570
    62.1800       590
    62.2000       518
    62.2200       564
    62.2400       536
    62.2600       524
    62.2800       520
    62.3000       492
    62.3200       526
    62.3400       522
    62.3600       476
    62.3800       502
    62.4000       472
    62.4200       454
    62.4400       448
    62.4600       422
    62.4800       438
    62.5000       450
    62.5200       440
    62.5400       446
    62.5600       406
    62.5800       452
    62.6000       454
    62.6200       424
    62.6400       432
    62.6600       366
    62.6800       416
    62.7000       394
    62.7200       418
    62.7400       416
    62.7600       368
    62.7800       404
    62.8000       386
    62.8200       376
    62.8400       380
    62.8600       360
    62.8800       380
    62.9000       374
    62.9200       362
    62.9400       366
    62.9600       334
    62.9800       350
    63.0000       320
    63.0200       342
    63.0400       310
    63.0600       314
    63.0800       276
    63.1000       276
    63.1200       300
    63.1400       292
    63.1600       302
    63.1800       306
    63.2000       284
    63.2200       292
    63.2400       282
    63.2600       298
    63.2800       310
    63.3000       286
    63.3200       310
    63.3400       346
    63.3600       316
    63.3800       310
    63.4000       296
    63.4200       312
    63.4400       322
    63.4600       310
    63.4800       360
    63.5000       308
    63.5200       376
    63.5400       362
    63.5600       346
    63.5800       374
    63.6000       402
    63.6200       430
    63.6400       414
    63.6600       496
    63.6800       482
    63.7000       498
    63.7200       524
    63.7400       552
    63.7600       590
    63.7800       668
    63.8000       630
    63.8200       724
    63.8400       774
    63.8600       758
    63.8800       802
    63.9000       868
    63.9200       892
    63.9400       854
    63.9600       814
    63.9800       838
    64.0000       748
    64.0200       770
    64.0400       758
    64.0600       708
    64.0800       694
    64.1000       690
    64.1200       650
    64.1400       646
    64.1600       596
    64.1800       562
    64.2000       556
    64.2200       528
    64.2400       490
    64.2600       440
    64.2800       408
    64.3000       396
    64.3200       400
    64.3400       402
    64.3600       370
    64.3800       350
    64.4000       370
    64.4200       336
    64.4400       324
    64.4600       326
    64.4800       342
    64.5000       332
    64.5200       318
    64.5400       340
    64.5600       312
    64.5800       284
    64.6000       278
    64.6200       302
    64.6400       284
    64.6600       288
    64.6800       312
    64.7000       330
    64.7200       302
    64.7400       308
    64.7600       316
    64.7800       294
    64.8000       318
    64.8200       290
    64.8400       298
    64.8600       312
    64.8800       290
    64.9000       318
    64.9200       302
    64.9400       354
    64.9600       372
    64.9800       360
    65.0000       320
    65.0200       366
    65.0400       370
    65.0600       390
    65.0800       396
    65.1000       390
    65.1200       394
    65.1400       398
    65.1600       432
    65.1800       416
    65.2000       416
    65.2200       402
    65.2400       406
    65.2600       446
    65.2800       428
    65.3000       438
    65.3200       426
    65.3400       430
    65.3600       470
    65.3800       484
    65.4000       478
    65.4200       438
    65.4400       464
    65.4600       418
    65.4800       444
    65.5000       424
    65.5200       446
    65.5400       450
    65.5600       468
    65.5800       414
    65.6000       406
    65.6200       436
    65.6400       424
    65.6600       418
    65.6800       454
    65.7000       408
    65.7200       386
    65.7400       404
    65.7600       372
    65.7800       392
    65.8000       358
    65.8200       336
    65.8400       358
    65.8600       376
    65.8800       328
    65.9000       314
    65.9200       292
    65.9400       296
    65.9600       310
    65.9800       330
    66.0000       294
    66.0200       336
    66.0400       302
    66.0600       310
    66.0800       352
    66.1000       288
    66.1200       310
    66.1400       314
    66.1600       320
    66.1800       294
    66.2000       262
    66.2200       306
    66.2400       332
    66.2600       320
    66.2800       290
    66.3000       350
    66.3200       308
    66.3400       332
    66.3600       340
    66.3800       364
    66.4000       334
    66.4200       348
    66.4400       362
    66.4600       374
    66.4800       366
    66.5000       430
    66.5200       412
    66.5400       410
    66.5600       406
    66.5800       438
    66.6000       420
    66.6200       460
    66.6400       464
    66.6600       440
    66.6800       478
    66.7000       538
    66.7200       532
    66.7400       502
    66.7600       554
    66.7800       556
    66.8000       628
    66.8200       646
    66.8400       632
    66.8600       732
    66.8800       726
    66.9000       768
    66.9200       772
    66.9400       798
    66.9600       802
    66.9800       784
    67.0000       830
    67.0200       828
    67.0400       752
    67.0600       788
    67.0800       790
    67.1000       728
    67.1200       718
    67.1400       682
    67.1600       720
    67.1800       708
    67.2000       684
    67.2200       630
    67.2400       598
    67.2600       548
    67.2800       580
    67.3000       530
    67.3200       486
    67.3400       484
    67.3600       434
    67.3800       448
    67.4000       440
    67.4200       426
    67.4400       394
    67.4600       394
    67.4800       376
    67.5000       372
    67.5200       380
    67.5400       378
    67.5600       342
    67.5800       394
    67.6000       348
    67.6200       366
    67.6400       350
    67.6600       332
    67.6800       388
    67.7000       362
    67.7200       348
    67.7400       394
    67.7600       384
    67.7800       330
    67.8000       370
    67.8200       386
    67.8400       406
    67.8600       444
    67.8800       400
    67.9000       436
    67.9200       432
    67.9400       454
    67.9600       454
    67.9800       524
    68.0000       510
    68.0200       536
    68.0400       586
    68.0600       600
    68.0800       620
    68.1000       724
    68.1200       718
    68.1400       744
    68.1600       826
    68.1800       812
    68.2000       788
    68.2200       834
    68.2400       844
    68.2600       804
    68.2800       944
    68.3000       844
    68.3200       844
    68.3400       870
    68.3600       816
    68.3800       852
    68.4000       820
    68.4200       780
    68.4400       840
    68.4600       766
    68.4800       720
    68.5000       674
    68.5200       704
    68.5400       694
    68.5600       618
    68.5800       630
    68.6000       552
    68.6200       554
    68.6400       564
    68.6600       536
    68.6800       500
    68.7000       518
    68.7200       468
    68.7400       448
    68.7600       428
    68.7800       438
    68.8000       466
    68.8200       374
    68.8400       434
    68.8600       376
    68.8800       402
    68.9000       396
    68.9200       394
    68.9400       370
    68.9600       386
    68.9800       362
    69.0000       376
    69.0200       404
    69.0400       412
    69.0600       376
    69.0800       380
    69.1000       424
    69.1200       358
    69.1400       426
    69.1600       414
    69.1800       424
    69.2000       450
    69.2200       386
    69.2400       454
    69.2600       412
    69.2800       444
    69.3000       402
    69.3200       460
    69.3400       416
    69.3600       442
    69.3800       466
    69.4000       442
    69.4200       468
    69.4400       446
    69.4600       504
    69.4800       474
    69.5000       488
    69.5200       472
    69.5400       502
    69.5600       466
    69.5800       474
    69.6000       472
    69.6200       474
    69.6400       472
    69.6600       460
    69.6800       436
    69.7000       412
    69.7200       454
    69.7400       472
    69.7600       442
    69.7800       498
    69.8000       432
    69.8200       426
    69.8400       458
    69.8600       444
    69.8800       440
    69.9000       420
    69.9200       442
    69.9400       454
    69.9600       444
    69.9800       442
    70.0000       468
    70.0200       408
    70.0400       378
    70.0600       442
    70.0800       384
    70.1000       414
    70.1200       374
    70.1400       352
    70.1600       398
    70.1800       338
    70.2000       316
    70.2200       320
    70.2400       308
    70.2600       314
    70.2800       290
    70.3000       264
    70.3200       270
    70.3400       294
    70.3600       288
    70.3800       264
    70.4000       282
    70.4200       266
    70.4400       276
    70.4600       276
    70.4800       268
    70.5000       256
    70.5200       246
    70.5400       230
    70.5600       278
    70.5800       284
    70.6000       242
    70.6200       246
    70.6400       258
    70.6600       236
    70.6800       258
    70.7000       306
    70.7200       256
    70.7400       244
    70.7600       246
    70.7800       242
    70.8000       242
    70.8200       250
    70.8400       236
    70.8600       234
    70.8800       226
    70.9000       210
    70.9200       228
    70.9400       242
    70.9600       270
    70.9800       236
    71.0000       236
    71.0200       250
    71.0400       222
    71.0600       242
    71.0800       252
    71.1000       238
    71.1200       244
    71.1400       236
    71.1600       260
    71.1800       250
    71.2000       268
    71.2200       256
    71.2400       272
    71.2600       284
    71.2800       282
    71.3000       332
    71.3200       286
    71.3400       344
    71.3600       340
    71.3800       310
    71.4000       346
    71.4200       388
    71.4400       350
    71.4600       420
    71.4800       422
    71.5000       426
    71.5200       436
    71.5400       438
    71.5600       490
    71.5800       446
    71.6000       472
    71.6200       500
    71.6400       474
    71.6600       512
    71.6800       488
    71.7000       494
    71.7200       466
    71.7400       462
    71.7600       512
    71.7800       492
    71.8000       472
    71.8200       448
    71.8400       454
    71.8600       420
    71.8800       456
    71.9000       472
    71.9200       472
    71.9400       406
    71.9600       430
    71.9800       386
    72.0000       436
    72.0200       394
    72.0400       418
    72.0600       418
    72.0800       422
    72.1000       392
    72.1200       402
    72.1400       396
    72.1600       418
    72.1800       392
    72.2000       418
    72.2200       412
    72.2400       404
    72.2600       390
    72.2800       432
    72.3000       440
    72.3200       462
    72.3400       484
    72.3600       454
    72.3800       536
    72.4000       484
    72.4200       486
    72.4400       510
    72.4600       572
    72.4800       502
    72.5000       532
    72.5200       522
    72.5400       540
    72.5600       556
    72.5800       584
    72.6000       550
    72.6200       588
    72.6400       580
    72.6600       556
    72.6800       612
    72.7000       626
    72.7200       666
    72.7400       598
    72.7600       652
    72.7800       594
    72.8000       650
    72.8200       586
    72.8400       628
    72.8600       536
    72.8800       602
    72.9000       588
    72.9200       560
    72.9400       578
    72.9600       552
    72.9800       528
    73.0000       546
    73.0200       574
    73.0400       530
    73.0600       524
    73.0800       506
    73.1000       446
    73.1200       460
    73.1400       434
    73.1600       394
    73.1800       402
    73.2000       392
    73.2200       382
    73.2400       342
    73.2600       334
    73.2800       364
    73.3000       322
    73.3200       326
    73.3400       290
    73.3600       314
    73.3800       294
    73.4000       280
    73.4200       292
    73.4400       294
    73.4600       274
    73.4800       270
    73.5000       280
    73.5200       258
    73.5400       270
    73.5600       276
    73.5800       280
    73.6000       270
    73.6200       286
    73.6400       264
    73.6600       298
    73.6800       250
    73.7000       214
    73.7200       254
    73.7400       278
    73.7600       252
    73.7800       272
    73.8000       262
    73.8200       280
    73.8400       248
    73.8600       278
    73.8800       282
    73.9000       250
    73.9200       270
    73.9400       290
    73.9600       260
    73.9800       284
    74.0000       260
    74.0200       288
    74.0400       270
    74.0600       284
    74.0800       312
    74.1000       290
    74.1200       312
    74.1400       250
    74.1600       284
    74.1800       302
    74.2000       298
    74.2200       280
    74.2400       282
    74.2600       272
    74.2800       272
    74.3000       260
    74.3200       260
    74.3400       264
    74.3600       256
    74.3800       242
    74.4000       270
    74.4200       218
    74.4400       262
    74.4600       244
    74.4800       218
    74.5000       228
    74.5200       214
    74.5400       226
    74.5600       204
    74.5800       212
    74.6000       250
    74.6200       236
    74.6400       236
    74.6600       226
    74.6800       200
    74.7000       216
    74.7200       228
    74.7400       216
    74.7600       180
    74.7800       214
    74.8000       202
    74.8200       186
    74.8400       212
    74.8600       190
    74.8800       188
    74.9000       210
    74.9200       204
    74.9400       198
    74.9600       224
    74.9800       216
    75.0000       226
    75.0200       204
    75.0400       216
    75.0600       252
    75.0800       210
    75.1000       220
    75.1200       220
    75.1400       208
    75.1600       238
    75.1800       226
    75.2000       222
    75.2200       244
    75.2400       264
    75.2600       240
    75.2800       254
    75.3000       266
    75.3200       230
    75.3400       228
    75.3600       256
    75.3800       216
    75.4000       242
    75.4200       256
    75.4400       258
    75.4600       268
    75.4800       260
    75.5000       282
    75.5200       272
    75.5400       286
    75.5600       288
    75.5800       288
    75.6000       302
    75.6200       274
    75.6400       280
    75.6600       278
    75.6800       304
    75.7000       284
    75.7200       322
    75.7400       288
    75.7600       290
    75.7800       292
    75.8000       298
    75.8200       316
    75.8400       280
    75.8600       324
    75.8800       300
    75.9000       296
    75.9200       284
    75.9400       306
    75.9600       246
    75.9800       280
    76.0000       278
    76.0200       248
    76.0400       272
    76.0600       296
    76.0800       308
    76.1000       264
    76.1200       274
    76.1400       292
    76.1600       270
    76.1800       310
    76.2000       272
    76.2200       300
    76.2400       302
    76.2600       312
    76.2800       268
    76.3000       274
    76.3200       298
    76.3400       310
    76.3600       318
    76.3800       314
    76.4000       346
    76.4200       334
    76.4400       312
    76.4600       336
    76.4800       380
    76.5000       370
    76.5200       358
    76.5400       390
    76.5600       408
    76.5800       404
    76.6000       402
    76.6200       396
    76.6400       404
    76.6600       418
    76.6800       396
    76.7000       416
    76.7200       412
    76.7400       424
    76.7600       402
    76.7800       386
    76.8000       388
    76.8200       404
    76.8400       420
    76.8600       390
    76.8800       358
    76.9000       396
    76.9200       368
    76.9400       368
    76.9600       352
    76.9800       352
    77.0000       382
    77.0200       376
    77.0400       346
    77.0600       322
    77.0800       376
    77.1000       364
    77.1200       368
    77.1400       364
    77.1600       358
    77.1800       338
    77.2000       368
    77.2200       392
    77.2400       378
    77.2600       358
    77.2800       358
    77.3000       396
    77.3200       408
    77.3400       376
    77.3600       378
    77.3800       404
    77.4000       382
    77.4200       404
    77.4400       434
    77.4600       466
    77.4800       420
    77.5000       452
    77.5200       444
    77.5400       524
    77.5600       490
    77.5800       504
    77.6000       498
    77.6200       502
    77.6400       582
    77.6600       572
    77.6800       614
    77.7000       602
    77.7200       642
    77.7400       620
    77.7600       606
    77.7800       618
    77.8000       624
    77.8200       594
    77.8400       586
    77.8600       602
    77.8800       566
    77.9000       574
    77.9200       576
    77.9400       576
    77.9600       556
    77.9800       520
    78.0000       536
    78.0200       520
    78.0400       490
    78.0600       504
    78.0800       480
    78.1000       470
    78.1200       418
    78.1400       416
    78.1600       410
    78.1800       374
    78.2000       406
    78.2200       370
    78.2400       386
    78.2600       358
    78.2800       338
    78.3000       380
    78.3200       396
    78.3400       384
    78.3600       376
    78.3800       336
    78.4000       336
    78.4200       362
    78.4400       346
    78.4600       356
    78.4800       394
    78.5000       378
    78.5200       386
    78.5400       388
    78.5600       362
    78.5800       390
    78.6000       366
    78.6200       400
    78.6400       420
    78.6600       408
    78.6800       382
    78.7000       400
    78.7200       450
    78.7400       432
    78.7600       414
    78.7800       424
    78.8000       410
    78.8200       384
    78.8400       434
    78.8600       392
    78.8800       396
    78.9000       394
    78.9200       422
    78.9400       352
    78.9600       374
    78.9800       352
    79.0000       330
    79.0200       348
    79.0400       312
    79.0600       324
    79.0800       366
    79.1000       304
    79.1200       336
    79.1400       344
    79.1600       288
    79.1800       284
    79.2000       286
    79.2200       324
    79.2400       294
    79.2600       288
    79.2800       274
    79.3000       298
    79.3200       298
    79.3400       294
    79.3600       266
    79.3800       236
    79.4000       286
    79.4200       254
    79.4400       260
    79.4600       250
    79.4800       242
    79.5000       246
    79.5200       266
    79.5400       290
    79.5600       248
    79.5800       250
    79.6000       262
    79.6200       254
    79.6400       306
    79.6600       266
    79.6800       224
    79.7000       254
    79.7200       268
    79.7400       262
    79.7600       240
    79.7800       246
    79.8000       240
    79.8200       258
    79.8400       252
    79.8600       288
    79.8800       230
    79.9000       236
    79.9200       252
    79.9400       256
    79.9600       256
    79.9800       278
    80.0000       236
    80.0200       230
    80.0400       248
    80.0600       256
    80.0800       252
    80.1000       256
    80.1200       262
    80.1400       272
    80.1600       248
    80.1800       252
    80.2000       280
    80.2200       248
    80.2400       254
    80.2600       270
    80.2800       228
    80.3000       266
    80.3200       246
    80.3400       300
    80.3600       256
    80.3800       268
    80.4000       256
    80.4200       286
    80.4400       276
    80.4600       270
    80.4800       276
    80.5000       282
    80.5200       286
    80.5400       278
    80.5600       270
    80.5800       294
    80.6000       250
    80.6200       294
    80.6400       274
    80.6600       252
    80.6800       258
    80.7000       260
    80.7200       240
    80.7400       292
    80.7600       260
    80.7800       262
    80.8000       232
    80.8200       230
    80.8400       268
    80.8600       226
    80.8800       208
    80.9000       238
    80.9200       244
    80.9400       252
    80.9600       238
    80.9800       254
    81.0000       226
    81.0200       202
    81.0400       232
    81.0600       222
    81.0800       228
    81.1000       234
    81.1200       224
    81.1400       218
    81.1600       224
    81.1800       224
    81.2000       228
    81.2200       234
    81.2400       232
    81.2600       230
    81.2800       234
    81.3000       240
    81.3200       238
    81.3400       258
    81.3600       260
    81.3800       244
    81.4000       256
    81.4200       268
    81.4400       244
    81.4600       260
    81.4800       228
    81.5000       286
    81.5200       258
    81.5400       270
    81.5600       244
    81.5800       248
    81.6000       254
    81.6200       300
    81.6400       288
    81.6600       314
    81.6800       286
    81.7000       270
    81.7200       288
    81.7400       270
    81.7600       300
    81.7800       320
    81.8000       290
    81.8200       284
    81.8400       290
    81.8600       282
    81.8800       318
    81.9000       310
    81.9200       312
    81.9400       320
    81.9600       344
    81.9800       352
    82.0000       366
    82.0200       322
    82.0400       340
    82.0600       336
    82.0800       354
    82.1000       368
    82.1200       332
    82.1400       358
    82.1600       328
    82.1800       346
    82.2000       362
    82.2200       382
    82.2400       402
    82.2600       364
    82.2800       378
    82.3000       406
    82.3200       340
    82.3400       412
    82.3600       366
    82.3800       440
    82.4000       406
    82.4200       418
    82.4400       414
    82.4600       452
    82.4800       466
    82.5000       438
    82.5200       464
    82.5400       472
    82.5600       506
    82.5800       530
    82.6000       500
    82.6200       548
    82.6400       530
    82.6600       534
    82.6800       592
    82.7000       590
    82.7200       614
    82.7400       616
    82.7600       586
    82.7800       668
    82.8000       700
    82.8200       748
    82.8400       744
    82.8600       760
    82.8800       786
    82.9000       770
    82.9200       778
    82.9400       768
    82.9600       820
    82.9800       720
    83.0000       768
    83.0200       736
    83.0400       732
    83.0600       730
    83.0800       684
    83.1000       742
    83.1200       708
    83.1400       698
    83.1600       606
    83.1800       626
    83.2000       566
    83.2200       594
    83.2400       626
    83.2600       574
    83.2800       528
    83.3000       572
    83.3200       556
    83.3400       516
    83.3600       492
    83.3800       498
    83.4000       472
    83.4200       448
    83.4400       470
    83.4600       416
    83.4800       390
    83.5000       374
    83.5200       366
    83.5400       380
    83.5600       358
    83.5800       380
    83.6000       362
    83.6200       376
    83.6400       384
    83.6600       354
    83.6800       316
    83.7000       344
    83.7200       330
    83.7400       324
    83.7600       312
    83.7800       336
    83.8000       304
    83.8200       338
    83.8400       324
    83.8600       304
    83.8800       310
    83.9000       328
    83.9200       358
    83.9400       310
    83.9600       284
    83.9800       326
    84.0000       338
    84.0200       306
    84.0400       312
    84.0600       318
    84.0800       324
    84.1000       320
    84.1200       346
    84.1400       316
    84.1600       322
    84.1800       314
    84.2000       342
    84.2200       302
    84.2400       330
    84.2600       326
    84.2800       320
    84.3000       348
    84.3200       336
    84.3400       336
    84.3600       342
    84.3800       346
    84.4000       336
    84.4200       334
    84.4400       308
    84.4600       322
    84.4800       300
    84.5000       324
    84.5200       306
    84.5400       308
    84.5600       316
    84.5800       316
    84.6000       306
    84.6200       312
    84.6400       318
    84.6600       348
    84.6800       290
    84.7000       302
    84.7200       320
    84.7400       308
    84.7600       350
    84.7800       334
    84.8000       366
    84.8200       294
    84.8400       324
    84.8600       296
    84.8800       278
    84.9000       312
    84.9200       258
    84.9400       290
    84.9600       304
    84.9800       288
    85.0000       300
    85.0200       296
    85.0400       256
    85.0600       296
    85.0800       282
    85.1000       280
    85.1200       288
    85.1400       272
    85.1600       280
    85.1800       262
    85.2000       258
    85.2200       294
    85.2400       234
    85.2600       250
    85.2800       280
    85.3000       270
    85.3200       276
    85.3400       290
    85.3600       278
    85.3800       286
    85.4000       270
    85.4200       242
    85.4400       250
    85.4600       282
    85.4800       246
    85.5000       274
    85.5200       262
    85.5400       260
    85.5600       306
    85.5800       308
    85.6000       296
    85.6200       278
    85.6400       276
    85.6600       294
    85.6800       304
    85.7000       300
    85.7200       278
    85.7400       252
    85.7600       278
    85.7800       294
    85.8000       284
    85.8200       258
    85.8400       246
    85.8600       290
    85.8800       312
    85.9000       312
    85.9200       284
    85.9400       290
    85.9600       258
    85.9800       268
    86.0000       242
    86.0200       280
    86.0400       298
    86.0600       282
    86.0800       278
    86.1000       290
    86.1200       208
    86.1400       226
    86.1600       270
    86.1800       260
    86.2000       256
    86.2200       242
    86.2400       232
    86.2600       232
    86.2800       268
    86.3000       268
    86.3200       256
    86.3400       244
    86.3600       252
    86.3800       278
    86.4000       268
    86.4200       250
    86.4400       252
    86.4600       246
    86.4800       268
    86.5000       254
    86.5200       284
    86.5400       264
    86.5600       280
    86.5800       266
    86.6000       274
    86.6200       276
    86.6400       304
    86.6600       322
    86.6800       298
    86.7000       312
    86.7200       290
    86.7400       316
    86.7600       306
    86.7800       346
    86.8000       326
    86.8200       348
    86.8400       378
    86.8600       352
    86.8800       342
    86.9000       390
    86.9200       388
    86.9400       362
    86.9600       358
    86.9800       430
    87.0000       378
    87.0200       384
    87.0400       352
    87.0600       406
    87.0800       362
    87.1000       368
    87.1200       418
    87.1400       394
    87.1600       346
    87.1800       362
    87.2000       400
    87.2200       394
    87.2400       368
    87.2600       346
    87.2800       366
    87.3000       328
    87.3200       372
    87.3400       320
    87.3600       406
    87.3800       346
    87.4000       352
    87.4200       330
    87.4400       366
    87.4600       330
    87.4800       322
    87.5000       344
    87.5200       352
    87.5400       320
    87.5600       362
    87.5800       380
    87.6000       382
    87.6200       382
    87.6400       374
    87.6600       358
    87.6800       392
    87.7000       414
    87.7200       332
    87.7400       406
    87.7600       398
    87.7800       424
    87.8000       408
    87.8200       406
    87.8400       438
    87.8600       362
    87.8800       426
    87.9000       368
    87.9200       428
    87.9400       432
    87.9600       420
    87.9800       406
    88.0000       432
    88.0200       388
    88.0400       408
    88.0600       396
    88.0800       424
    88.1000       408
    88.1200       410
    88.1400       420
    88.1600       406
    88.1800       368
    88.2000       414
    88.2200       404
    88.2400       388
    88.2600       384
    88.2800       430
    88.3000       400
    88.3200       432
    88.3400       362
    88.3600       370
    88.3800       396
    88.4000       336
    88.4200       360
    88.4400       372
    88.4600       358
    88.4800       372
    88.5000       348
    88.5200       324
    88.5400       372
    88.5600       354
    88.5800       362
    88.6000       370
    88.6200       338
    88.6400       350
    88.6600       302
    88.6800       352
    88.7000       314
    88.7200       322
    88.7400       360
    88.7600       338
    88.7800       278
    88.8000       338
    88.8200       288
    88.8400       292
    88.8600       278
    88.8800       274
    88.9000       284
    88.9200       306
    88.9400       286
    88.9600       292
    88.9800       308
    89.0000       302
    89.0200       278
    89.0400       268
    89.0600       262
    89.0800       256
    89.1000       284
    89.1200       254
    89.1400       274
    89.1600       256
    89.1800       280
    89.2000       230
    89.2200       264
    89.2400       250
    89.2600       236
    89.2800       258
    89.3000       240
    89.3200       218
    89.3400       244
    89.3600       256
    89.3800       262
    89.4000       246
    89.4200       280
    89.4400       262
    89.4600       258
    89.4800       236
    89.5000       264
    89.5200       254
    89.5400       252
    89.5600       278
    89.5800       268
    89.6000       270
    89.6200       294
    89.6400       252
    89.6600       274
    89.6800       282
    89.7000       284
    89.7200       280
    89.7400       296
    89.7600       302
    89.7800       306
    89.8000       304
    89.8200       296
    89.8400       288
    89.8600       290
    89.8800       272
    89.9000       266
    89.9200       316
    89.9400       294
    89.9600       304
    89.9800       322
    90.0000       304
