    10.0000       356
    10.0200       376
    10.0400       386
    10.0600       366
    10.0800       388
    10.1000       372
    10.1200       350
    10.1400       356
    10.1600       314
    10.1800       354
    10.2000       380
    10.2200       374
    10.2400       386
    10.2600       390
    10.2800       374
    10.3000       336
    10.3200       362
    10.3400       362
    10.3600       312
    10.3800       366
    10.4000       366
    10.4200       350
    10.4400       356
    10.4600       380
    10.4800       350
    10.5000       350
    10.5200       358
    10.5400       384
    10.5600       376
    10.5800       330
    10.6000       358
    10.6200       358
    10.6400       364
    10.6600       338
    10.6800       316
    10.7000       334
    10.7200       362
    10.7400       342
    10.7600       328
    10.7800       350
    10.8000       368
    10.8200       336
    10.8400       374
    10.8600       362
    10.8800       348
    10.9000       350
    10.9200       314
    10.9400       366
    10.9600       332
    10.9800       326
    11.0000       358
    11.0200       380
    11.0400       316
    11.0600       322
    11.0800       310
    11.1000       334
    11.1200       338
    11.1400       344
    11.1600       338
    11.1800       368
    11.2000       328
    11.2200       346
    11.2400       336
    11.2600       346
    11.2800       326
    11.3000       342
    11.3200       320
    11.3400       322
    11.3600       346
    11.3800       360
    11.4000       324
    11.4200       322
    11.4400       328
    11.4600       298
    11.4800       324
    11.5000       356
    11.5200       304
    11.5400       300
    11.5600       346
    11.5800       356
    11.6000       344
    11.6200       332
    11.6400       332
    11.6600       298
    11.6800       336
    11.7000       320
    11.7200       330
    11.7400       420
    11.7600       332
    11.7800       352
    11.8000       368
    11.8200       372
    11.8400       348
    11.8600       334
    11.8800       338
    11.9000       384
    11.9200       388
    11.9400       414
    11.9600       390
    11.9800       404
    12.0000       442
    12.0200       414
    12.0400       470
    12.0600       470
    12.0800       492
    12.1000       526
    12.1200       550
    12.1400       624
    12.1600       616
    12.1800       654
    12.2000       658
    12.2200       612
    12.2400       572
    12.2600       508
    12.2800       416
    12.3000       426
    12.3200       352
    12.3400       336
    12.3600       368
    12.3800       344
    12.4000       286
    12.4200       358
    12.4400       320
    12.4600       328
    12.4800       290
    12.5000       346
    12.5200       314
    12.5400       302
    12.5600       310
    12.5800       304
    12.6000       292
    12.6200       290
    12.6400       286
    12.6600       324
    12.6800       288
    12.7000       328
    12.7200       280
    12.7400       304
    12.7600       270
    12.7800       274
    12.8000       340
    12.8200       304
    12.8400       292
    12.8600       270
    12.8800       306
    12.9000       310
    12.9200       298
    12.9400       288
    12.9600       300
    12.9800       268
    13.0000       292
    13.0200       304
    13.0400       260
    13.0600       306
    13.0800       266
    13.1000       306
    13.1200       302
    13.1400       294
    13.1600       310
    13.1800       260
    13.2000       248
    13.2200       270
    13.2400       316
    13.2600       282
    13.2800       300
    13.3000       258
    13.3200       260
    13.3400       304
    13.3600       270
    13.3800       252
    13.4000       268
    13.4200       258
    13.4400       264
    13.4600       276
    13.4800       304
    13.5000       300
    13.5200       280
    13.5400       258
    13.5600       302
    13.5800       292
    13.6000       222
    13.6200       298
    13.6400       288
    13.6600       274
    13.6800       260
    13.7000       298
    13.7200       258
    13.7400       290
    13.7600       284
    13.7800       272
    13.8000       294
    13.8200       310
    13.8400       284
    13.8600       276
    13.8800       276
    13.9000       276
    13.9200       254
    13.9400       282
    13.9600       256
    13.9800       268
    14.0000       264
    14.0200       268
    14.0400       278
    14.0600       280
    14.0800       266
    14.1000       254
    14.1200       268
    14.1400       292
    14.1600       264
    14.1800       272
    14.2000       292
    14.2200       294
    14.2400       254
    14.2600       272
    14.2800       268
    14.3000       288
    14.3200       270
    14.3400       234
    14.3600       282
    14.3800       274
    14.4000       292
    14.4200       272
    14.4400       302
    14.4600       294
    14.4800       290
    14.5000       300
    14.5200       276
    14.5400       300
    14.5600       278
    14.5800       316
    14.6000       310
    14.6200       300
    14.6400       354
    14.6600       342
    14.6800       318
    14.7000       396
    14.7200       340
    14.7400       410
    14.7600       380
    14.7800       366
    14.8000       378
    14.8200       416
    14.8400       456
    14.8600       474
    14.8800       530
    14.9000       584
    14.9200       600
    14.9400       636
    14.9600       674
    14.9800       776
    15.0000       780
    15.0200       910
    15.0400       960
    15.0600      1060
    15.0800      1174
    15.1000      1298
    15.1200      1480
    15.1400      1644
    15.1600      1706
    15.1800      1790
    15.2000      1818
    15.2200      1676
    15.2400      1508
    15.2600      1208
    15.2800       880
    15.3000       704
    15.3200       630
    15.3400       478
    15.3600       438
    15.3800       404
    15.4000       384
    15.4200       362
    15.4400       360
    15.4600       352
    15.4800       312
    15.5000       300
    15.5200       336
    15.5400       316
    15.5600       322
    15.5800       306
    15.6000       288
    15.6200       278
    15.6400       246
    15.6600       290
    15.6800       250
    15.7000       300
    15.7200       280
    15.7400       270
    15.7600       284
    15.7800       260
    15.8000       270
    15.8200       278
    15.8400       284
    15.8600       272
    15.8800       264
    15.9000       262
    15.9200       288
    15.9400       298
    15.9600       270
    15.9800       306
    16.0000       286
    16.0200       276
    16.0400       306
    16.0600       282
    16.0800       296
    16.1000       302
    16.1200       316
    16.1400       290
    16.1600       350
    16.1800       332
    16.2000       314
    16.2200       356
    16.2400       360
    16.2600       358
    16.2800       338
    16.3000       384
    16.3200       370
    16.3400       360
    16.3600       326
    16.3800       332
    16.4000       362
    16.4200       362
    16.4400       324
    16.4600       332
    16.4800       308
    16.5000       342
    16.5200       338
    16.5400       344
    16.5600       382
    16.5800       364
    16.6000       390
    16.6200       428
    16.6400       456
    16.6600       460
    16.6800       486
    16.7000       526
    16.7200       582
    16.7400       602
    16.7600       650
    16.7800       730
    16.8000       786
    16.8200       846
    16.8400       990
    16.8600      1012
    16.8800      1172
    16.9000      1354
    16.9200      1592
    16.9400      1760
    16.9600      2088
    16.9800      2394
    17.0000      2720
    17.0200      3022
    17.0400      3204
    17.0600      3048
    17.0800      2706
    17.1000      2340
    17.1200      1922
    17.1400      1480
    17.1600      1228
    17.1800       980
    17.2000       914
    17.2200       898
    17.2400       846
    17.2600       806
    17.2800       740
    17.3000       736
    17.3200       660
    17.3400       608
    17.3600       544
    17.3800       532
    17.4000       502
    17.4200       492
    17.4400       480
    17.4600       490
    17.4800       464
    17.5000       496
    17.5200       462
    17.5400       474
    17.5600       436
    17.5800       454
    17.6000       484
    17.6200       512
    17.6400       574
    17.6600       598
    17.6800       648
    17.7000       674
    17.7200       728
    17.7400       806
    17.7600       892
    17.7800       928
    17.8000       936
    17.8200       950
    17.8400       938
    17.8600       788
    17.8800       692
    17.9000       606
    17.9200       558
    17.9400       440
    17.9600       414
    17.9800       348
    18.0000       350
    18.0200       328
    18.0400       304
    18.0600       304
    18.0800       300
    18.1000       246
    18.1200       258
    18.1400       278
    18.1600       246
    18.1800       254
    18.2000       240
    18.2200       264
    18.2400       240
    18.2600       244
    18.2800       254
    18.3000       220
    18.3200       258
    18.3400       264
    18.3600       230
    18.3800       262
    18.4000       222
    18.4200       254
    18.4400       238
    18.4600       236
    18.4800       242
    18.5000       226
    18.5200       224
    18.5400       228
    18.5600       218
    18.5800       242
    18.6000       228
    18.6200       254
    18.6400       240
    18.6600       258
    18.6800       266
    18.7000       264
    18.7200       264
    18.7400       220
    18.7600       262
    18.7800       228
    18.8000       260
    18.8200       266
    18.8400       266
    18.8600       258
    18.8800       274
    18.9000       276
    18.9200       276
    18.9400       276
    18.9600       316
    18.9800       284
    19.0000       282
    19.0200       318
    19.0400       288
    19.0600       306
    19.0800       324
    19.1000       342
    19.1200       350
    19.1400       404
    19.1600       364
    19.1800       394
    19.2000       412
    19.2200       410
    19.2400       514
    19.2600       518
    19.2800       570
    19.3000       542
    19.3200       600
    19.3400       680
    19.3600       756
    19.3800       930
    19.4000       994
    19.4200      1096
    19.4400      1244
    19.4600      1454
    19.4800      1644
    19.5000      1764
    19.5200      2068
    19.5400      2272
    19.5600      2264
    19.5800      2128
    19.6000      2038
    19.6200      1700
    19.6400      1328
    19.6600      1134
    19.6800       982
    19.7000       860
    19.7200       786
    19.7400       796
    19.7600       774
    19.7800       844
    19.8000       866
    19.8200       876
    19.8400       982
    19.8600       982
    19.8800      1154
    19.9000      1286
    19.9200      1444
    19.9400      1506
    19.9600      1738
    19.9800      1744
    20.0000      1724
    20.0200      1624
    20.0400      1466
    20.0600      1294
    20.0800      1062
    20.1000       892
    20.1200       690
    20.1400       602
    20.1600       460
    20.1800       482
    20.2000       410
    20.2200       378
    20.2400       320
    20.2600       362
    20.2800       348
    20.3000       310
    20.3200       262
    20.3400       306
    20.3600       268
    20.3800       284
    20.4000       270
    20.4200       270
    20.4400       250
    20.4600       280
    20.4800       268
    20.5000       240
    20.5200       278
    20.5400       284
    20.5600       250
    20.5800       258
    20.6000       274
    20.6200       256
    20.6400       272
    20.6600       258
    20.6800       286
    20.7000       264
    20.7200       278
    20.7400       274
    20.7600       286
    20.7800       300
    20.8000       300
    20.8200       334
    20.8400       318
    20.8600       374
    20.8800       378
    20.9000       394
    20.9200       454
    20.9400       480
    20.9600       478
    20.9800       582
    21.0000       618
    21.0200       656
    21.0400       784
    21.0600       806
    21.0800       978
    21.1000      1144
    21.1200      1290
    21.1400      1426
    21.1600      1562
    21.1800      1748
    21.2000      1742
    21.2200      1694
    21.2400      1564
    21.2600      1380
    21.2800      1260
    21.3000       976
    21.3200       852
    21.3400       720
    21.3600       612
    21.3800       524
    21.4000       390
    21.4200       388
    21.4400       360
    21.4600       348
    21.4800       320
    21.5000       284
    21.5200       288
    21.5400       278
    21.5600       232
    21.5800       244
    21.6000       252
    21.6200       248
    21.6400       266
    21.6600       234
    21.6800       234
    21.7000       212
    21.7200       246
    21.7400       250
    21.7600       224
    21.7800       220
    21.8000       256
    21.8200       226
    21.8400       250
    21.8600       232
    21.8800       224
    21.9000       258
    21.9200       222
    21.9400       226
    21.9600       252
    21.9800       246
    22.0000       218
    22.0200       224
    22.0400       208
    22.0600       216
    22.0800       214
    22.1000       208
    22.1200       222
    22.1400       244
    22.1600       220
    22.1800       240
    22.2000       216
    22.2200       256
    22.2400       278
    22.2600       238
    22.2800       244
    22.3000       260
    22.3200       258
    22.3400       314
    22.3600       324
    22.3800       264
    22.4000       294
    22.4200       314
    22.4400       310
    22.4600       342
    22.4800       346
    22.5000       386
    22.5200       430
    22.5400       444
    22.5600       476
    22.5800       572
    22.6000       624
    22.6200       648
    22.6400       738
    22.6600       828
    22.6800       942
    22.7000      1024
    22.7200      1240
    22.7400      1408
    22.7600      1666
    22.7800      1900
    22.8000      2206
    22.8200      2402
    22.8400      2604
    22.8600      2798
    22.8800      2750
    22.9000      2586
    22.9200      2310
    22.9400      2004
    22.9600      1730
    22.9800      1342
    23.0000      1090
    23.0200       884
    23.0400       742
    23.0600       582
    23.0800       564
    23.1000       446
    23.1200       434
    23.1400       408
    23.1600       376
    23.1800       350
    23.2000       338
    23.2200       324
    23.2400       320
    23.2600       292
    23.2800       260
    23.3000       286
    23.3200       280
    23.3400       244
    23.3600       276
    23.3800       230
    23.4000       276
    23.4200       244
    23.4400       238
    23.4600       240
    23.4800       244
    23.5000       254
    23.5200       226
    23.5400       240
    23.5600       238
    23.5800       254
    23.6000       242
    23.6200       236
    23.6400       222
    23.6600       228
    23.6800       220
    23.7000       254
    23.7200       250
    23.7400       240
    23.7600       270
    23.7800       232
    23.8000       226
    23.8200       238
    23.8400       244
    23.8600       238
    23.8800       246
    23.9000       224
    23.9200       242
    23.9400       238
    23.9600       280
    23.9800       230
    24.0000       244
    24.0200       250
    24.0400       252
    24.0600       268
    24.0800       234
    24.1000       264
    24.1200       296
    24.1400       304
    24.1600       282
    24.1800       300
    24.2000       322
    24.2200       326
    24.2400       338
    24.2600       388
    24.2800       404
    24.3000       426
    24.3200       466
    24.3400       456
    24.3600       508
    24.3800       588
    24.4000       616
    24.4200       728
    24.4400       778
    24.4600       936
    24.4800       990
    24.5000      1038
    24.5200      1138
    24.5400      1160
    24.5600      1116
    24.5800      1048
    24.6000      1048
    24.6200       942
    24.6400       902
    24.6600       752
    24.6800       834
    24.7000       816
    24.7200       776
    24.7400       708
    24.7600       716
    24.7800       702
    24.8000       690
    24.8200       680
    24.8400       640
    24.8600       582
    24.8800       568
    24.9000       482
    24.9200       522
    24.9400       510
    24.9600       512
    24.9800       500
    25.0000       570
    25.0200       518
    25.0400       548
    25.0600       606
    25.0800       672
    25.1000       648
    25.1200       704
    25.1400       792
    25.1600       878
    25.1800       964
    25.2000      1032
    25.2200      1174
    25.2400      1260
    25.2600      1380
    25.2800      1366
    25.3000      1526
    25.3200      1584
    25.3400      1490
    25.3600      1342
    25.3800      1202
    25.4000      1088
    25.4200       986
    25.4400       874
    25.4600       844
    25.4800       790
    25.5000       824
    25.5200       764
    25.5400       822
    25.5600       862
    25.5800       872
    25.6000       888
    25.6200       826
    25.6400       790
    25.6600       762
    25.6800       702
    25.7000       588
    25.7200       552
    25.7400       512
    25.7600       486
    25.7800       430
    25.8000       460
    25.8200       410
    25.8400       414
    25.8600       360
    25.8800       388
    25.9000       352
    25.9200       324
    25.9400       342
    25.9600       346
    25.9800       320
    26.0000       324
    26.0200       282
    26.0400       288
    26.0600       306
    26.0800       298
    26.1000       254
    26.1200       266
    26.1400       270
    26.1600       262
    26.1800       256
    26.2000       246
    26.2200       286
    26.2400       246
    26.2600       252
    26.2800       240
    26.3000       248
    26.3200       238
    26.3400       270
    26.3600       266
    26.3800       288
    26.4000       258
    26.4200       266
    26.4400       260
    26.4600       262
    26.4800       272
    26.5000       292
    26.5200       246
    26.5400       248
    26.5600       294
    26.5800       268
    26.6000       282
    26.6200       266
    26.6400       272
    26.6600       300
    26.6800       282
    26.7000       262
    26.7200       258
    26.7400       284
    26.7600       292
    26.7800       292
    26.8000       266
    26.8200       264
    26.8400       238
    26.8600       272
    26.8800       226
    26.9000       254
    26.9200       256
    26.9400       256
    26.9600       254
    26.9800       278
    27.0000       278
    27.0200       298
    27.0400       278
    27.0600       292
    27.0800       290
    27.1000       280
    27.1200       310
    27.1400       296
    27.1600       306
    27.1800       362
    27.2000       410
    27.2200       370
    27.2400       420
    27.2600       462
    27.2800       490
    27.3000       564
    27.3200       590
    27.3400       662
    27.3600       688
    27.3800       800
    27.4000       918
    27.4200      1028
    27.4400      1136
    27.4600      1120
    27.4800      1142
    27.5000      1146
    27.5200      1090
    27.5400      1008
    27.5600       900
    27.5800       798
    27.6000       748
    27.6200       606
    27.6400       568
    27.6600       504
    27.6800       482
    27.7000       456
    27.7200       374
    27.7400       366
    27.7600       332
    27.7800       358
    27.8000       326
    27.8200       304
    27.8400       314
    27.8600       326
    27.8800       320
    27.9000       280
    27.9200       276
    27.9400       320
    27.9600       318
    27.9800       324
    28.0000       294
    28.0200       298
    28.0400       316
    28.0600       334
    28.0800       336
    28.1000       372
    28.1200       324
    28.1400       348
    28.1600       378
    28.1800       374
    28.2000       398
    28.2200       416
    28.2400       416
    28.2600       474
    28.2800       470
    28.3000       472
    28.3200       446
    28.3400       488
    28.3600       424
    28.3800       408
    28.4000       422
    28.4200       392
    28.4400       352
    28.4600       364
    28.4800       416
    28.5000       358
    28.5200       374
    28.5400       366
    28.5600       376
    28.5800       400
    28.6000       388
    28.6200       418
    28.6400       440
    28.6600       492
    28.6800       514
    28.7000       574
    28.7200       520
    28.7400       512
    28.7600       510
    28.7800       450
    28.8000       428
    28.8200       416
    28.8400       374
    28.8600       336
    28.8800       324
    28.9000       312
    28.9200       358
    28.9400       316
    28.9600       302
    28.9800       310
    29.0000       326
    29.0200       350
    29.0400       290
    29.0600       306
    29.0800       322
    29.1000       282
    29.1200       370
    29.1400       328
    29.1600       310
    29.1800       342
    29.2000       354
    29.2200       324
    29.2400       396
    29.2600       404
    29.2800       394
    29.3000       422
    29.3200       422
    29.3400       484
    29.3600       502
    29.3800       564
    29.4000       532
    29.4200       616
    29.4400       690
    29.4600       664
    29.4800       760
    29.5000       806
    29.5200       936
    29.5400      1058
    29.5600      1136
    29.5800      1138
    29.6000      1322
    29.6200      1350
    29.6400      1486
    29.6600      1468
    29.6800      1526
    29.7000      1424
    29.7200      1290
    29.7400      1150
    29.7600      1036
    29.7800      1016
    29.8000       866
    29.8200       796
    29.8400       774
    29.8600       744
    29.8800       746
    29.9000       722
    29.9200       796
    29.9400       750
    29.9600       868
    29.9800       864
    30.0000       978
    30.0200      1080
    30.0400      1162
    30.0600      1316
    30.0800      1400
    30.1000      1592
    30.1200      1706
    30.1400      1882
    30.1600      2066
    30.1800      2102
    30.2000      2020
    30.2200      2006
    30.2400      1990
    30.2600      1922
    30.2800      1836
    30.3000      1708
    30.3200      1760
    30.3400      1820
    30.3600      1806
    30.3800      1926
    30.4000      2040
    30.4200      2244
    30.4400      2354
    30.4600      2632
    30.4800      3044
    30.5000      3292
    30.5200      3636
    30.5400      4210
    30.5600      4908
    30.5800      5664
    30.6000      6298
    30.6200      6972
    30.6400      7560
    30.6600      8240
    30.6800      8310
    30.7000      8342
    30.7200      7684
    30.7400      6908
    30.7600      6122
    30.7800      5098
    30.8000      4464
    30.8200      3812
    30.8400      3102
    30.8600      2480
    30.8800      2120
    30.9000      1852
    30.9200      1648
    30.9400      1490
    30.9600      1266
    30.9800      1212
    31.0000      1084
    31.0200      1016
    31.0400       986
    31.0600       928
    31.0800       842
    31.1000       806
    31.1200       794
    31.1400       724
    31.1600       724
    31.1800       682
    31.2000       638
    31.2200       630
    31.2400       596
    31.2600       584
    31.2800       558
    31.3000       492
    31.3200       466
    31.3400       510
    31.3600       496
    31.3800       482
    31.4000       440
    31.4200       422
    31.4400       400
    31.4600       380
    31.4800       440
    31.5000       402
    31.5200       378
    31.5400       434
    31.5600       406
    31.5800       420
    31.6000       410
    31.6200       404
    31.6400       414
    31.6600       450
    31.6800       456
    31.7000       468
    31.7200       502
    31.7400       524
    31.7600       542
    31.7800       564
    31.8000       614
    31.8200       698
    31.8400       656
    31.8600       768
    31.8800       868
    31.9000       998
    31.9200      1082
    31.9400      1182
    31.9600      1316
    31.9800      1478
    32.0000      1544
    32.0200      1552
    32.0400      1592
    32.0600      1518
    32.0800      1456
    32.1000      1376
    32.1200      1250
    32.1400      1146
    32.1600      1090
    32.1800      1036
    32.2000       990
    32.2200      1004
    32.2400       968
    32.2600      1044
    32.2800      1034
    32.3000      1158
    32.3200      1288
    32.3400      1402
    32.3600      1606
    32.3800      1728
    32.4000      2064
    32.4200      2372
    32.4400      2600
    32.4600      3056
    32.4800      3518
    32.5000      3846
    32.5200      4332
    32.5400      4686
    32.5600      4932
    32.5800      4974
    32.6000      4956
    32.6200      4604
    32.6400      4402
    32.6600      3956
    32.6800      3416
    32.7000      3044
    32.7200      2606
    32.7400      2242
    32.7600      1942
    32.7800      1688
    32.8000      1498
    32.8200      1306
    32.8400      1188
    32.8600      1150
    32.8800       976
    32.9000       980
    32.9200       922
    32.9400       992
    32.9600       894
    32.9800       930
    33.0000       980
    33.0200      1032
    33.0400      1098
    33.0600      1142
    33.0800      1140
    33.1000      1208
    33.1200      1160
    33.1400      1086
    33.1600      1042
    33.1800       940
    33.2000       842
    33.2200       778
    33.2400       678
    33.2600       542
    33.2800       570
    33.3000       524
    33.3200       460
    33.3400       406
    33.3600       394
    33.3800       358
    33.4000       316
    33.4200       354
    33.4400       368
    33.4600       322
    33.4800       326
    33.5000       324
    33.5200       340
    33.5400       296
    33.5600       330
    33.5800       288
    33.6000       292
    33.6200       300
    33.6400       284
    33.6600       270
    33.6800       280
    33.7000       276
    33.7200       258
    33.7400       258
    33.7600       258
    33.7800       246
    33.8000       278
    33.8200       288
    33.8400       268
    33.8600       246
    33.8800       252
    33.9000       268
    33.9200       260
    33.9400       292
    33.9600       252
    33.9800       278
    34.0000       266
    34.0200       300
    34.0400       292
    34.0600       298
    34.0800       266
    34.1000       272
    34.1200       296
    34.1400       320
    34.1600       310
    34.1800       312
    34.2000       318
    34.2200       320
    34.2400       326
    34.2600       356
    34.2800       364
    34.3000       368
    34.3200       402
    34.3400       442
    34.3600       472
    34.3800       498
    34.4000       586
    34.4200       652
    34.4400       678
    34.4600       780
    34.4800       786
    34.5000       830
    34.5200       806
    34.5400       772
    34.5600       740
    34.5800       704
    34.6000       610
    34.6200       608
    34.6400       544
    34.6600       458
    34.6800       466
    34.7000       432
    34.7200       404
    34.7400       398
    34.7600       372
    34.7800       370
    34.8000       376
    34.8200       328
    34.8400       362
    34.8600       370
    34.8800       348
    34.9000       336
    34.9200       366
    34.9400       340
    34.9600       332
    34.9800       362
    35.0000       378
    35.0200       344
    35.0400       336
    35.0600       356
    35.0800       304
    35.1000       362
    35.1200       306
    35.1400       342
    35.1600       298
    35.1800       286
    35.2000       308
    35.2200       282
    35.2400       286
    35.2600       282
    35.2800       290
    35.3000       278
    35.3200       328
    35.3400       274
    35.3600       292
    35.3800       290
    35.4000       298
    35.4200       290
    35.4400       284
    35.4600       274
    35.4800       292
    35.5000       288
    35.5200       316
    35.5400       286
    35.5600       314
    35.5800       336
    35.6000       284
    35.6200       322
    35.6400       320
    35.6600       330
    35.6800       330
    35.7000       338
    35.7200       354
    35.7400       326
    35.7600       352
    35.7800       394
    35.8000       394
    35.8200       398
    35.8400       424
    35.8600       460
    35.8800       508
    35.9000       488
    35.9200       542
    35.9400       558
    35.9600       634
    35.9800       688
    36.0000       706
    36.0200       814
    36.0400       930
    36.0600       902
    36.0800       968
    36.1000      1016
    36.1200      1034
    36.1400      1052
    36.1600      1018
    36.1800       998
    36.2000       942
    36.2200       900
    36.2400       838
    36.2600       748
    36.2800       694
    36.3000       636
    36.3200       586
    36.3400       502
    36.3600       528
    36.3800       486
    36.4000       458
    36.4200       432
    36.4400       416
    36.4600       448
    36.4800       414
    36.5000       428
    36.5200       426
    36.5400       400
    36.5600       436
    36.5800       484
    36.6000       470
    36.6200       492
    36.6400       468
    36.6600       528
    36.6800       608
    36.7000       636
    36.7200       720
    36.7400       756
    36.7600       830
    36.7800       840
    36.8000      1006
    36.8200      1044
    36.8400      1126
    36.8600      1282
    36.8800      1384
    36.9000      1418
    36.9200      1410
    36.9400      1412
    36.9600      1366
    36.9800      1234
    37.0000      1234
    37.0200      1158
    37.0400      1074
    37.0600      1042
    37.0800       924
    37.1000       988
    37.1200       860
    37.1400       924
    37.1600       866
    37.1800       928
    37.2000       862
    37.2200       832
    37.2400       770
    37.2600       774
    37.2800       738
    37.3000       680
    37.3200       614
    37.3400       624
    37.3600       530
    37.3800       552
    37.4000       548
    37.4200       522
    37.4400       478
    37.4600       474
    37.4800       502
    37.5000       530
    37.5200       472
    37.5400       456
    37.5600       502
    37.5800       520
    37.6000       492
    37.6200       514
    37.6400       530
    37.6600       552
    37.6800       550
    37.7000       574
    37.7200       578
    37.7400       666
    37.7600       598
    37.7800       634
    37.8000       736
    37.8200       716
    37.8400       726
    37.8600       794
    37.8800       856
    37.9000       896
    37.9200       984
    37.9400      1128
    37.9600      1246
    37.9800      1290
    38.0000      1404
    38.0200      1514
    38.0400      1498
    38.0600      1632
    38.0800      1638
    38.1000      1606
    38.1200      1526
    38.1400      1508
    38.1600      1458
    38.1800      1390
    38.2000      1370
    38.2200      1416
    38.2400      1330
    38.2600      1482
    38.2800      1544
    38.3000      1640
    38.3200      1760
    38.3400      2034
    38.3600      2236
    38.3800      2386
    38.4000      2656
    38.4200      2934
    38.4400      3352
    38.4600      3610
    38.4800      3956
    38.5000      4360
    38.5200      4794
    38.5400      5098
    38.5600      5304
    38.5800      5522
    38.6000      5738
    38.6200      6078
    38.6400      6174
    38.6600      6018
    38.6800      5854
    38.7000      5586
    38.7200      5266
    38.7400      5192
    38.7600      4600
    38.7800      4318
    38.8000      4006
    38.8200      3424
    38.8400      3126
    38.8600      2730
    38.8800      2456
    38.9000      2168
    38.9200      2032
    38.9400      1810
    38.9600      1610
    38.9800      1612
    39.0000      1418
    39.0200      1416
    39.0400      1420
    39.0600      1364
    39.0800      1320
    39.1000      1342
    39.1200      1346
    39.1400      1290
    39.1600      1356
    39.1800      1322
    39.2000      1346
    39.2200      1306
    39.2400      1334
    39.2600      1342
    39.2800      1378
    39.3000      1360
    39.3200      1340
    39.3400      1394
    39.3600      1440
    39.3800      1368
    39.4000      1396
    39.4200      1390
    39.4400      1258
    39.4600      1268
    39.4800      1208
    39.5000      1196
    39.5200      1148
    39.5400      1214
    39.5600      1186
    39.5800      1248
    39.6000      1286
    39.6200      1314
    39.6400      1452
    39.6600      1544
    39.6800      1652
    39.7000      1670
    39.7200      1720
    39.7400      1740
    39.7600      1736
    39.7800      1684
    39.8000      1590
    39.8200      1476
    39.8400      1322
    39.8600      1224
    39.8800      1092
    39.9000       988
    39.9200       988
    39.9400       936
    39.9600       922
    39.9800       880
    40.0000       796
    40.0200       784
    40.0400       854
    40.0600       788
    40.0800       856
    40.1000       886
    40.1200       898
    40.1400      1024
    40.1600       996
    40.1800      1026
    40.2000       984
    40.2200       966
    40.2400      1076
    40.2600      1036
    40.2800      1024
    40.3000      1008
    40.3200      1032
    40.3400      1046
    40.3600      1006
    40.3800      1040
    40.4000      1162
    40.4200      1204
    40.4400      1314
    40.4600      1354
    40.4800      1442
    40.5000      1588
    40.5200      1668
    40.5400      1756
    40.5600      1768
    40.5800      1808
    40.6000      1768
    40.6200      1686
    40.6400      1650
    40.6600      1618
    40.6800      1490
    40.7000      1380
    40.7200      1322
    40.7400      1186
    40.7600      1048
    40.7800       996
    40.8000       906
    40.8200       890
    40.8400       786
    40.8600       754
    40.8800       744
    40.9000       722
    40.9200       664
    40.9400       686
    40.9600       708
    40.9800       734
    41.0000       688
    41.0200       732
    41.0400       780
    41.0600       782
    41.0800       842
    41.1000       942
    41.1200       994
    41.1400      1068
    41.1600      1202
    41.1800      1192
    41.2000      1346
    41.2200      1410
    41.2400      1586
    41.2600      1622
    41.2800      1742
    41.3000      1740
    41.3200      1796
    41.3400      1778
    41.3600      1794
    41.3800      1942
    41.4000      1896
    41.4200      2030
    41.4400      2020
    41.4600      2028
    41.4800      2100
    41.5000      2044
    41.5200      2104
    41.5400      2090
    41.5600      1860
    41.5800      1868
    41.6000      1626
    41.6200      1600
    41.6400      1526
    41.6600      1454
    41.6800      1234
    41.7000      1214
    41.7200      1168
    41.7400      1098
    41.7600      1068
    41.7800      1112
    41.8000      1084
    41.8200      1140
    41.8400      1160
    41.8600      1262
    41.8800      1294
    41.9000      1374
    41.9200      1374
    41.9400      1292
    41.9600      1276
    41.9800      1258
    42.0000      1092
    42.0200      1088
    42.0400       988
    42.0600      1004
    42.0800       920
    42.1000       768
    42.1200       748
    42.1400       706
    42.1600       674
    42.1800       558
    42.2000       560
    42.2200       552
    42.2400       544
    42.2600       486
    42.2800       468
    42.3000       444
    42.3200       464
    42.3400       448
    42.3600       424
    42.3800       444
    42.4000       434
    42.4200       430
    42.4400       458
    42.4600       422
    42.4800       418
    42.5000       434
    42.5200       414
    42.5400       422
    42.5600       430
    42.5800       438
    42.6000       422
    42.6200       412
    42.6400       414
    42.6600       414
    42.6800       392
    42.7000       384
    42.7200       368
    42.7400       404
    42.7600       442
    42.7800       422
    42.8000       444
    42.8200       436
    42.8400       448
    42.8600       458
    42.8800       464
    42.9000       450
    42.9200       544
    42.9400       530
    42.9600       572
    42.9800       608
    43.0000       596
    43.0200       628
    43.0400       656
    43.0600       766
    43.0800       808
    43.1000       898
    43.1200      1004
    43.1400      1070
    43.1600      1086
    43.1800      1202
    43.2000      1276
    43.2200      1304
    43.2400      1366
    43.2600      1286
    43.2800      1268
    43.3000      1260
    43.3200      1160
    43.3400      1162
    43.3600      1070
    43.3800       992
    43.4000       842
    43.4200       852
    43.4400       732
    43.4600       668
    43.4800       598
    43.5000       556
    43.5200       552
    43.5400       536
    43.5600       524
    43.5800       502
    43.6000       492
    43.6200       492
    43.6400       456
    43.6600       490
    43.6800       566
    43.7000       504
    43.7200       542
    43.7400       564
    43.7600       510
    43.7800       558
    43.8000       582
    43.8200       580
    43.8400       618
    43.8600       590
    43.8800       580
    43.9000       596
    43.9200       578
    43.9400       572
    43.9600       530
    43.9800       538
    44.0000       514
    44.0200       504
    44.0400       494
    44.0600       504
    44.0800       522
    44.1000       516
    44.1200       490
    44.1400       468
    44.1600       460
    44.1800       470
    44.2000       502
    44.2200       504
    44.2400       524
    44.2600       526
    44.2800       512
    44.3000       516
    44.3200       552
    44.3400       504
    44.3600       526
    44.3800       538
    44.4000       514
    44.4200       494
    44.4400       516
    44.4600       528
    44.4800       502
    44.5000       526
    44.5200       490
    44.5400       534
    44.5600       550
    44.5800       530
    44.6000       566
    44.6200       574
    44.6400       630
    44.6600       644
    44.6800       618
    44.7000       690
    44.7200       704
    44.7400       630
    44.7600       736
    44.7800       762
    44.8000       782
    44.8200       860
    44.8400       864
    44.8600       964
    44.8800      1072
    44.9000      1106
    44.9200      1234
    44.9400      1270
    44.9600      1396
    44.9800      1560
    45.0000      1690
    45.0200      1686
    45.0400      1798
    45.0600      1988
    45.0800      2018
    45.1000      2086
    45.1200      2196
    45.1400      2288
    45.1600      2288
    45.1800      2342
    45.2000      2508
    45.2200      2484
    45.2400      2494
    45.2600      2442
    45.2800      2348
    45.3000      2238
    45.3200      2130
    45.3400      2082
    45.3600      2066
    45.3800      1996
    45.4000      1954
    45.4200      1900
    45.4400      1716
    45.4600      1696
    45.4800      1674
    45.5000      1618
    45.5200      1468
    45.5400      1404
    45.5600      1294
    45.5800      1306
    45.6000      1242
    45.6200      1114
    45.6400      1058
    45.6600       984
    45.6800       978
    45.7000       890
    45.7200       818
    45.7400       802
    45.7600       786
    45.7800       776
    45.8000       826
    45.8200       792
    45.8400       738
    45.8600       736
    45.8800       738
    45.9000       766
    45.9200       716
    45.9400       736
    45.9600       696
    45.9800       670
    46.0000       690
    46.0200       738
    46.0400       774
    46.0600       720
    46.0800       726
    46.1000       756
    46.1200       756
    46.1400       722
    46.1600       744
    46.1800       772
    46.2000       808
    46.2200       858
    46.2400       856
    46.2600       926
    46.2800       884
    46.3000       912
    46.3200      1028
    46.3400      1078
    46.3600      1170
    46.3800      1206
    46.4000      1294
    46.4200      1460
    46.4400      1574
    46.4600      1630
    46.4800      1826
    46.5000      2042
    46.5200      2244
    46.5400      2478
    46.5600      2686
    46.5800      2956
    46.6000      3178
    46.6200      3622
    46.6400      3814
    46.6600      4242
    46.6800      4632
    46.7000      4854
    46.7200      4996
    46.7400      5252
    46.7600      5152
    46.7800      5170
    46.8000      4822
    46.8200      4510
    46.8400      4364
    46.8600      3964
    46.8800      3572
    46.9000      3274
    46.9200      2874
    46.9400      2636
    46.9600      2372
    46.9800      2026
    47.0000      1712
    47.0200      1638
    47.0400      1460
    47.0600      1294
    47.0800      1254
    47.1000      1088
    47.1200       962
    47.1400       932
    47.1600       860
    47.1800       824
    47.2000       776
    47.2200       714
    47.2400       678
    47.2600       644
    47.2800       594
    47.3000       586
    47.3200       562
    47.3400       546
    47.3600       594
    47.3800       544
    47.4000       548
    47.4200       492
    47.4400       536
    47.4600       500
    47.4800       450
    47.5000       494
    47.5200       458
    47.5400       468
    47.5600       456
    47.5800       486
    47.6000       396
    47.6200       470
    47.6400       452
    47.6600       454
    47.6800       464
    47.7000       476
    47.7200       502
    47.7400       460
    47.7600       526
    47.7800       576
    47.8000       584
    47.8200       582
    47.8400       576
    47.8600       644
    47.8800       648
    47.9000       660
    47.9200       642
    47.9400       648
    47.9600       576
    47.9800       592
    48.0000       596
    48.0200       564
    48.0400       584
    48.0600       574
    48.0800       606
    48.1000       612
    48.1200       600
    48.1400       636
    48.1600       644
    48.1800       652
    48.2000       714
    48.2200       664
    48.2400       766
    48.2600       722
    48.2800       710
    48.3000       748
    48.3200       748
    48.3400       772
    48.3600       746
    48.3800       788
    48.4000       792
    48.4200       822
    48.4400       846
    48.4600       934
    48.4800       948
    48.5000       882
    48.5200       966
    48.5400      1016
    48.5600      1080
    48.5800      1038
    48.6000      1110
    48.6200      1112
    48.6400      1018
    48.6600      1084
    48.6800      1044
    48.7000       910
    48.7200       912
    48.7400       910
    48.7600       846
    48.7800       768
    48.8000       718
    48.8200       676
    48.8400       690
    48.8600       622
    48.8800       548
    48.9000       512
    48.9200       532
    48.9400       502
    48.9600       446
    48.9800       432
    49.0000       446
    49.0200       438
    49.0400       404
    49.0600       408
    49.0800       370
    49.1000       350
    49.1200       386
    49.1400       362
    49.1600       336
    49.1800       332
    49.2000       340
    49.2200       358
    49.2400       334
    49.2600       350
    49.2800       344
    49.3000       318
    49.3200       348
    49.3400       310
    49.3600       322
    49.3800       310
    49.4000       328
    49.4200       282
    49.4400       336
    49.4600       320
    49.4800       352
    49.5000       354
    49.5200       304
    49.5400       340
    49.5600       318
    49.5800       312
    49.6000       358
    49.6200       348
    49.6400       356
    49.6600       348
    49.6800       350
    49.7000       406
    49.7200       342
    49.7400       336
    49.7600       362
    49.7800       422
    49.8000       362
    49.8200       368
    49.8400       388
    49.8600       424
    49.8800       454
    49.9000       466
    49.9200       472
    49.9400       426
    49.9600       472
    49.9800       458
    50.0000       494
    50.0200       504
    50.0400       536
    50.0600       576
    50.0800       624
    50.1000       652
    50.1200       704
    50.1400       772
    50.1600       752
    50.1800       852
    50.2000       972
    50.2200       966
    50.2400      1046
    50.2600      1116
    50.2800      1286
    50.3000      1196
    50.3200      1256
    50.3400      1250
    50.3600      1256
    50.3800      1294
    50.4000      1260
    50.4200      1254
    50.4400      1198
    50.4600      1150
    50.4800      1222
    50.5000      1192
    50.5200      1216
    50.5400      1202
    50.5600      1214
    50.5800      1308
    50.6000      1286
    50.6200      1354
    50.6400      1416
    50.6600      1606
    50.6800      1730
    50.7000      1854
    50.7200      1904
    50.7400      2080
    50.7600      2252
    50.7800      2356
    50.8000      2476
    50.8200      2564
    50.8400      2408
    50.8600      2424
    50.8800      2152
    50.9000      2190
    50.9200      1976
    50.9400      2050
    50.9600      1942
    50.9800      1782
    51.0000      1600
    51.0200      1546
    51.0400      1456
    51.0600      1290
    51.0800      1246
    51.1000      1162
    51.1200       990
    51.1400       990
    51.1600       986
    51.1800       936
    51.2000       890
    51.2200       876
    51.2400       870
    51.2600       830
    51.2800       816
    51.3000       778
    51.3200       816
    51.3400       808
    51.3600       860
    51.3800       800
    51.4000       778
    51.4200       812
    51.4400       818
    51.4600       808
    51.4800       872
    51.5000       868
    51.5200       804
    51.5400       826
    51.5600       820
    51.5800       858
    51.6000       838
    51.6200       884
    51.6400       870
    51.6600       922
    51.6800      1024
    51.7000      1002
    51.7200      1102
    51.7400      1104
    51.7600      1188
    51.7800      1246
    51.8000      1388
    51.8200      1548
    51.8400      1620
    51.8600      1614
    51.8800      1786
    51.9000      1956
    51.9200      2132
    51.9400      2180
    51.9600      2212
    51.9800      2294
    52.0000      2232
    52.0200      2314
    52.0400      2274
    52.0600      2026
    52.0800      1922
    52.1000      1928
    52.1200      1760
    52.1400      1598
    52.1600      1554
    52.1800      1394
    52.2000      1316
    52.2200      1298
    52.2400      1100
    52.2600       996
    52.2800       882
    52.3000       922
    52.3200       834
    52.3400       810
    52.3600       742
    52.3800       790
    52.4000       804
    52.4200       842
    52.4400       866
    52.4600       870
    52.4800       830
    52.5000       890
    52.5200       934
    52.5400       996
    52.5600      1030
    52.5800      1052
    52.6000      1082
    52.6200      1136
    52.6400      1170
    52.6600      1200
    52.6800      1228
    52.7000      1268
    52.7200      1298
    52.7400      1248
    52.7600      1194
    52.7800      1178
    52.8000      1140
    52.8200      1104
    52.8400      1042
    52.8600       994
    52.8800      1022
    52.9000       972
    52.9200       896
    52.9400       888
    52.9600       784
    52.9800       828
    53.0000       796
    53.0200       724
    53.0400       718
    53.0600       786
    53.0800       760
    53.1000       762
    53.1200       768
    53.1400       824
    53.1600       822
    53.1800       914
    53.2000       950
    53.2200      1002
    53.2400       996
    53.2600      1118
    53.2800      1130
    53.3000      1206
    53.3200      1188
    53.3400      1246
    53.3600      1150
    53.3800      1100
    53.4000      1084
    53.4200      1008
    53.4400       982
    53.4600       998
    53.4800       928
    53.5000       908
    53.5200       828
    53.5400       796
    53.5600       804
    53.5800       720
    53.6000       696
    53.6200       674
    53.6400       728
    53.6600       650
    53.6800       598
    53.7000       688
    53.7200       608
    53.7400       610
    53.7600       600
    53.7800       564
    53.8000       562
    53.8200       574
    53.8400       554
    53.8600       522
    53.8800       536
    53.9000       556
    53.9200       532
    53.9400       542
    53.9600       540
    53.9800       496
    54.0000       520
    54.0200       474
    54.0400       492
    54.0600       518
    54.0800       542
    54.1000       550
    54.1200       566
    54.1400       564
    54.1600       578
    54.1800       632
    54.2000       630
    54.2200       652
    54.2400       714
    54.2600       692
    54.2800       742
    54.3000       718
    54.3200       756
    54.3400       774
    54.3600       772
    54.3800       804
    54.4000       838
    54.4200       794
    54.4400       892
    54.4600       902
    54.4800       924
    54.5000       886
    54.5200       926
    54.5400       936
    54.5600       854
    54.5800       824
    54.6000       872
    54.6200       844
    54.6400       830
    54.6600       876
    54.6800       848
    54.7000       820
    54.7200       882
    54.7400       822
    54.7600       838
    54.7800       808
    54.8000       798
    54.8200       894
    54.8400       810
    54.8600       818
    54.8800       748
    54.9000       770
    54.9200       756
    54.9400       846
    54.9600       776
    54.9800       742
    55.0000       866
    55.0200       850
    55.0400       916
    55.0600       886
    55.0800       902
    55.1000       962
    55.1200       988
    55.1400       952
    55.1600      1040
    55.1800       996
    55.2000       990
    55.2200       970
    55.2400       994
    55.2600       964
    55.2800       940
    55.3000       904
    55.3200       936
    55.3400       892
    55.3600       856
    55.3800       854
    55.4000       776
    55.4200       754
    55.4400       690
    55.4600       682
    55.4800       674
    55.5000       678
    55.5200       562
    55.5400       570
    55.5600       524
    55.5800       520
    55.6000       544
    55.6200       530
    55.6400       464
    55.6600       450
    55.6800       440
    55.7000       420
    55.7200       392
    55.7400       418
    55.7600       378
    55.7800       428
    55.8000       396
    55.8200       396
    55.8400       394
    55.8600       338
    55.8800       376
    55.9000       378
    55.9200       354
    55.9400       358
    55.9600       330
    55.9800       362
    56.0000       344
    56.0200       318
    56.0400       312
    56.0600       350
    56.0800       364
    56.1000       328
    56.1200       376
    56.1400       362
    56.1600       334
    56.1800       354
    56.2000       360
    56.2200       334
    56.2400       370
    56.2600       402
    56.2800       366
    56.3000       370
    56.3200       406
    56.3400       396
    56.3600       376
    56.3800       378
    56.4000       332
    56.4200       428
    56.4400       376
    56.4600       386
    56.4800       408
    56.5000       414
    56.5200       452
    56.5400       430
    56.5600       472
    56.5800       480
    56.6000       528
    56.6200       544
    56.6400       548
    56.6600       566
    56.6800       604
    56.7000       612
    56.7200       696
    56.7400       680
    56.7600       712
    56.7800       740
    56.8000       750
    56.8200       702
    56.8400       702
    56.8600       688
    56.8800       670
    56.9000       668
    56.9200       704
    56.9400       632
    56.9600       590
    56.9800       606
    57.0000       590
    57.0200       590
    57.0400       526
    57.0600       606
    57.0800       558
    57.1000       632
    57.1200       614
    57.1400       584
    57.1600       574
    57.1800       566
    57.2000       640
    57.2200       670
    57.2400       718
    57.2600       736
    57.2800       792
    57.3000       886
    57.3200       840
    57.3400       892
    57.3600       954
    57.3800      1032
    57.4000      1014
    57.4200      1092
    57.4400      1124
    57.4600      1106
    57.4800      1104
    57.5000      1104
    57.5200      1142
    57.5400      1048
    57.5600       986
    57.5800      1002
    57.6000      1032
    57.6200      1072
    57.6400      1080
    57.6600      1050
    57.6800      1000
    57.7000      1016
    57.7200      1044
    57.7400      1126
    57.7600      1118
    57.7800      1196
    57.8000      1104
    57.8200      1120
    57.8400      1116
    57.8600      1072
    57.8800      1002
    57.9000      1036
    57.9200       936
    57.9400       918
    57.9600       882
    57.9800       880
    58.0000       792
    58.0200       752
    58.0400       788
    58.0600       722
    58.0800       722
    58.1000       728
    58.1200       678
    58.1400       690
    58.1600       688
    58.1800       678
    58.2000       692
    58.2200       664
    58.2400       728
    58.2600       784
    58.2800       784
    58.3000       854
    58.3200       868
    58.3400       872
    58.3600       914
    58.3800      1002
    58.4000      1042
    58.4200      1076
    58.4400      1156
    58.4600      1178
    58.4800      1288
    58.5000      1342
    58.5200      1374
    58.5400      1452
    58.5600      1460
    58.5800      1612
    58.6000      1656
    58.6200      1690
    58.6400      1722
    58.6600      1828
    58.6800      1892
    58.7000      2006
    58.7200      2040
    58.7400      2028
    58.7600      2058
    58.7800      2108
    58.8000      2026
    58.8200      2048
    58.8400      1962
    58.8600      1836
    58.8800      1892
    58.9000      1826
    58.9200      1752
    58.9400      1664
    58.9600      1558
    58.9800      1426
    59.0000      1416
    59.0200      1382
    59.0400      1328
    59.0600      1220
    59.0800      1216
    59.1000      1142
    59.1200      1042
    59.1400      1108
    59.1600      1106
    59.1800      1156
    59.2000      1132
    59.2200      1156
    59.2400      1202
    59.2600      1352
    59.2800      1288
    59.3000      1376
    59.3200      1514
    59.3400      1648
    59.3600      1628
    59.3800      1824
    59.4000      1896
    59.4200      1870
    59.4400      2008
    59.4600      2064
    59.4800      2060
    59.5000      1954
    59.5200      1874
    59.5400      1866
    59.5600      1738
    59.5800      1688
    59.6000      1642
    59.6200      1608
    59.6400      1488
    59.6600      1482
    59.6800      1418
    59.7000      1340
    59.7200      1178
    59.7400      1108
    59.7600      1098
    59.7800      1060
    59.8000      1022
    59.8200       978
    59.8400       928
    59.8600       912
    59.8800       890
    59.9000       866
    59.9200       814
    59.9400       792
    59.9600       812
    59.9800       772
    60.0000       728
    60.0200       630
    60.0400       628
    60.0600       646
    60.0800       560
    60.1000       538
    60.1200       542
    60.1400       530
    60.1600       484
    60.1800       500
    60.2000       498
    60.2200       458
    60.2400       434
    60.2600       438
    60.2800       468
    60.3000       440
    60.3200       456
    60.3400       380
    60.3600       420
    60.3800       372
    60.4000       404
    60.4200       424
    60.4400       378
    60.4600       436
    60.4800       380
    60.5000       412
    60.5200       402
    60.5400       370
    60.5600       436
    60.5800       400
    60.6000       368
    60.6200       386
    60.6400       418
    60.6600       382
    60.6800       392
    60.7000       382
    60.7200       394
    60.7400       408
    60.7600       416
    60.7800       420
    60.8000       470
    60.8200       434
    60.8400       438
    60.8600       446
    60.8800       456
    60.9000       496
    60.9200       462
    60.9400       536
    60.9600       506
    60.9800       542
    61.0000       564
    61.0200       616
    61.0400       612
    61.0600       640
    61.0800       642
    61.1000       640
    61.1200       686
    61.1400       680
    61.1600       766
    61.1800       760
    61.2000       806
    61.2200       860
    61.2400       806
    61.2600       828
    61.2800       936
    61.3000       896
    61.3200       878
    61.3400       980
    61.3600       992
    61.3800      1114
    61.4000      1152
    61.4200      1166
    61.4400      1218
    61.4600      1342
    61.4800      1334
    61.5000      1390
    61.5200      1540
    61.5400      1516
    61.5600      1612
    61.5800      1644
    61.6000      1646
    61.6200      1648
    61.6400      1488
    61.6600      1540
    61.6800      1472
    61.7000      1378
    61.7200      1354
    61.7400      1272
    61.7600      1234
    61.7800      1168
    61.8000      1176
    61.8200      1038
    61.8400       940
    61.8600       890
    61.8800       892
    61.9000       776
    61.9200       782
    61.9400       718
    61.9600       724
    61.9800       696
    62.0000       688
    62.0200       712
    62.0400       666
    62.0600       580
    62.0800       596
    62.1000       584
    62.1200       576
    62.1400       526
    62.1600       550
    62.1800       594
    62.2000       520
    62.2200       554
    62.2400       526
    62.2600       514
    62.2800       488
    62.3000       520
    62.3200       490
    62.3400       464
    62.3600       496
    62.3800       506
    62.4000       460
    62.4200       404
    62.4400       484
    62.4600       438
    62.4800       420
    62.5000       398
    62.5200       400
    62.5400       398
    62.5600       390
    62.5800       440
    62.6000       376
    62.6200       432
    62.6400       374
    62.6600       408
    62.6800       410
    62.7000       408
    62.7200       416
    62.7400       398
    62.7600       412
    62.7800       394
    62.8000       390
    62.8200       390
    62.8400       390
    62.8600       378
    62.8800       358
    62.9000       360
    62.9200       338
    62.9400       366
    62.9600       320
    62.9800       328
    63.0000       328
    63.0200       304
    63.0400       328
    63.0600       306
    63.0800       290
    63.1000       298
    63.1200       290
    63.1400       298
    63.1600       338
    63.1800       262
    63.2000       286
    63.2200       308
    63.2400       266
    63.2600       292
    63.2800       316
    63.3000       290
    63.3200       292
    63.3400       292
    63.3600       334
    63.3800       300
    63.4000       338
    63.4200       326
    63.4400       326
    63.4600       336
    63.4800       388
    63.5000       346
    63.5200       308
    63.5400       374
    63.5600       374
    63.5800       432
    63.6000       438
    63.6200       422
    63.6400       494
    63.6600       472
    63.6800       548
    63.7000       504
    63.7200       532
    63.7400       608
    63.7600       620
    63.7800       698
    63.8000       710
    63.8200       782
    63.8400       804
    63.8600       802
    63.8800       770
    63.9000       902
    63.9200       828
    63.9400       864
    63.9600       854
    63.9800       842
    64.0000       768
    64.0200       792
    64.0400       742
    64.0600       778
    64.0800       692
    64.1000       650
    64.1200       612
    64.1400       590
    64.1600       614
    64.1800       558
    64.2000       538
    64.2200       512
    64.2400       464
    64.2600       440
    64.2800       450
    64.3000       430
    64.3200       424
    64.3400       346
    64.3600       362
    64.3800       344
    64.4000       352
    64.4200       328
    64.4400       338
    64.4600       330
    64.4800       314
    64.5000       322
    64.5200       300
    64.5400       318
    64.5600       290
    64.5800       312
    64.6000       318
    64.6200       296
    64.6400       302
    64.6600       290
    64.6800       272
    64.7000       286
    64.7200       292
    64.7400       260
    64.7600       282
    64.7800       260
    64.8000       302
    64.8200       298
    64.8400       264
    64.8600       264
    64.8800       328
    64.9000       280
    64.9200       328
    64.9400       344
    64.9600       308
    64.9800       340
    65.0000       336
    65.0200       338
    65.0400       386
    65.0600       342
    65.0800       380
    65.1000       346
    65.1200       394
    65.1400       418
    65.1600       404
    65.1800       432
    65.2000       386
    65.2200       404
    65.2400       428
    65.2600       384
    65.2800       446
    65.3000       428
    65.3200       428
    65.3400       422
    65.3600       410
    65.3800       428
    65.4000       444
    65.4200       480
    65.4400       430
    65.4600       474
    65.4800       448
    65.5000       460
    65.5200       444
    65.5400       432
    65.5600       436
    65.5800       428
    65.6000       416
    65.6200       402
    65.6400       400
    65.6600       442
    65.6800       400
    65.7000       394
    65.7200       412
    65.7400       352
    65.7600       334
    65.7800       330
    65.8000       360
    65.8200       366
    65.8400       364
    65.8600       334
    65.8800       322
    65.9000       320
    65.9200       316
    65.9400       312
    65.9600       304
    65.9800       316
    66.0000       280
    66.0200       286
    66.0400       276
    66.0600       316
    66.0800       308
    66.1000       274
    66.1200       288
    66.1400       326
    66.1600       302
    66.1800       310
    66.2000       312
    66.2200       268
    66.2400       322
    66.2600       318
    66.2800       288
    66.3000       310
    66.3200       314
    66.3400       350
    66.3600       352
    66.3800       358
    66.4000       358
    66.4200       380
    66.4400       372
    66.4600       408
    66.4800       398
    66.5000       404
    66.5200       432
    66.5400       436
    66.5600       384
    66.5800       444
    66.6000       450
    66.6200       470
    66.6400       494
    66.6600       478
    66.6800       548
    66.7000       500
    66.7200       544
    66.7400       574
    66.7600       582
    66.7800       548
    66.8000       672
    66.8200       696
    66.8400       678
    66.8600       752
    66.8800       740
    66.9000       796
    66.9200       762
    66.9400       834
    66.9600       864
    66.9800       806
    67.0000       822
    67.0200       850
    67.0400       800
    67.0600       824
    67.0800       800
    67.1000       684
    67.1200       750
    67.1400       718
    67.1600       668
    67.1800       712
    67.2000       634
    67.2200       608
    67.2400       590
    67.2600       580
    67.2800       504
    67.3000       572
    67.3200       456
    67.3400       484
    67.3600       452
    67.3800       462
    67.4000       402
    67.4200       406
    67.4400       392
    67.4600       364
    67.4800       400
    67.5000       378
    67.5200       342
    67.5400       378
    67.5600       342
    67.5800       322
    67.6000       344
    67.6200       342
    67.6400       358
    67.6600       332
    67.6800       378
    67.7000       356
    67.7200       384
    67.7400       362
    67.7600       368
    67.7800       372
    67.8000       400
    67.8200       428
    67.8400       378
    67.8600       374
    67.8800       440
    67.9000       430
    67.9200       468
    67.9400       454
    67.9600       470
    67.9800       490
    68.0000       504
    68.0200       530
    68.0400       546
    68.0600       604
    68.0800       632
    68.1000       678
    68.1200       690
    68.1400       730
    68.1600       756
    68.1800       752
    68.2000       806
    68.2200       864
    68.2400       868
    68.2600       842
    68.2800       850
    68.3000       852
    68.3200       842
    68.3400       882
    68.3600       846
    68.3800       850
    68.4000       748
    68.4200       790
    68.4400       748
    68.4600       722
    68.4800       724
    68.5000       690
    68.5200       670
    68.5400       620
    68.5600       606
    68.5800       598
    68.6000       562
    68.6200       602
    68.6400       566
    68.6600       492
    68.6800       474
    68.7000       488
    68.7200       448
    68.7400       448
    68.7600       410
    68.7800       430
    68.8000       408
    68.8200       398
    68.8400       378
    68.8600       408
    68.8800       438
    68.9000       356
    68.9200       340
    68.9400       370
    68.9600       368
    68.9800       366
    69.0000       350
    69.0200       354
    69.0400       364
    69.0600       396
    69.0800       376
    69.1000       412
    69.1200       400
    69.1400       408
    69.1600       424
    69.1800       396
    69.2000       412
    69.2200       430
    69.2400       456
    69.2600       418
    69.2800       452
    69.3000       410
    69.3200       444
    69.3400       450
    69.3600       488
    69.3800       466
    69.4000       492
    69.4200       472
    69.4400       466
    69.4600       488
    69.4800       492
    69.5000       504
    69.5200       474
    69.5400       432
    69.5600       494
    69.5800       416
    69.6000       424
    69.6200       462
    69.6400       450
    69.6600       476
    69.6800       452
    69.7000       434
    69.7200       432
    69.7400       450
    69.7600       468
    69.7800       472
    69.8000       482
    69.8200       484
    69.8400       480
    69.8600       452
    69.8800       458
    69.9000       460
    69.9200       504
    69.9400       438
    69.9600       430
    69.9800       426
    70.0000       392
    70.0200       430
    70.0400       404
    70.0600       400
    70.0800       428
    70.1000       384
    70.1200       374
    70.1400       396
    70.1600       362
    70.1800       370
    70.2000       334
    70.2200       294
    70.2400       306
    70.2600       308
    70.2800       290
    70.3000       300
    70.3200       290
    70.3400       274
    70.3600       284
    70.3800       298
    70.4000       280
    70.4200       256
    70.4400       252
    70.4600       254
    70.4800       220
    70.5000       274
    70.5200       264
    70.5400       238
    70.5600       280
    70.5800       248
    70.6000       266
    70.6200       268
    70.6400       254
    70.6600       270
    70.6800       260
    70.7000       272
    70.7200       274
    70.7400       228
    70.7600       276
    70.7800       246
    70.8000       254
    70.8200       236
    70.8400       280
    70.8600       240
    70.8800       244
    70.9000       260
    70.9200       246
    70.9400       248
    70.9600       272
    70.9800       228
    71.0000       220
    71.0200       250
    71.0400       252
    71.0600       232
    71.0800       254
    71.1000       230
    71.1200       240
    71.1400       266
    71.1600       238
    71.1800       254
    71.2000       276
    71.2200       250
    71.2400       290
    71.2600       282
    71.2800       288
    71.3000       294
    71.3200       344
    71.3400       320
    71.3600       368
    71.3800       330
    71.4000       306
    71.4200       374
    71.4400       374
    71.4600       428
    71.4800       430
    71.5000       472
    71.5200       444
    71.5400       468
    71.5600       482
    71.5800       460
    71.6000       472
    71.6200       466
    71.6400       486
    71.6600       504
    71.6800       476
    71.7000       444
    71.7200       456
    71.7400       456
    71.7600       462
    71.7800       480
    71.8000       474
    71.8200       432
    71.8400       436
    71.8600       452
    71.8800       428
    71.9000       452
    71.9200       376
    71.9400       402
    71.9600       416
    71.9800       394
    72.0000       424
    72.0200       380
    72.0400       424
    72.0600       390
    72.0800       390
    72.1000       410
    72.1200       436
    72.1400       368
    72.1600       420
    72.1800       406
    72.2000       390
    72.2200       384
    72.2400       418
    72.2600       436
    72.2800       442
    72.3000       420
    72.3200       494
    72.3400       494
    72.3600       462
    72.3800       438
    72.4000       520
    72.4200       484
    72.4400       526
    72.4600       518
    72.4800       528
    72.5000       534
    72.5200       524
    72.5400       544
    72.5600       566
    72.5800       592
    72.6000       580
    72.6200       594
    72.6400       586
    72.6600       608
    72.6800       620
    72.7000       592
    72.7200       626
    72.7400       698
    72.7600       650
    72.7800       638
    72.8000       666
    72.8200       604
    72.8400       626
    72.8600       634
    72.8800       618
    72.9000       596
    72.9200       548
    72.9400       598
    72.9600       588
    72.9800       562
    73.0000       532
    73.0200       528
    73.0400       488
    73.0600       462
    73.0800       498
    73.1000       454
    73.1200       398
    73.1400       434
    73.1600       446
    73.1800       392
    73.2000       362
    73.2200       334
    73.2400       360
    73.2600       342
    73.2800       328
    73.3000       314
    73.3200       302
    73.3400       272
    73.3600       270
    73.3800       298
    73.4000       284
    73.4200       284
    73.4400       280
    73.4600       276
    73.4800       266
    73.5000       258
    73.5200       234
    73.5400       242
    73.5600       278
    73.5800       262
    73.6000       240
    73.6200       240
    73.6400       274
    73.6600       280
    73.6800       282
    73.7000       262
    73.7200       264
    73.7400       250
    73.7600       290
    73.7800       268
    73.8000       266
    73.8200       266
    73.8400       248
    73.8600       268
    73.8800       248
    73.9000       252
    73.9200       312
    73.9400       278
    73.9600       264
    73.9800       258
    74.0000       264
    74.0200       276
    74.0400       270
    74.0600       284
    74.0800       274
    74.1000       278
    74.1200       246
    74.1400       298
    74.1600       288
    74.1800       286
    74.2000       250
    74.2200       282
    74.2400       276
    74.2600       268
    74.2800       284
    74.3000       272
    74.3200       264
    74.3400       254
    74.3600       236
    74.3800       250
    74.4000       238
    74.4200       244
    74.4400       254
    74.4600       250
    74.4800       218
    74.5000       216
    74.5200       236
    74.5400       196
    74.5600       222
    74.5800       212
    74.6000       200
    74.6200       200
    74.6400       206
    74.6600       216
    74.6800       180
    74.7000       190
    74.7200       216
    74.7400       206
    74.7600       216
    74.7800       226
    74.8000       190
    74.8200       188
    74.8400       216
    74.8600       224
    74.8800       210
    74.9000       232
    74.9200       232
    74.9400       218
    74.9600       216
    74.9800       210
    75.0000       232
    75.0200       216
    75.0400       198
    75.0600       236
    75.0800       234
    75.1000       226
    75.1200       236
    75.1400       208
    75.1600       258
    75.1800       220
    75.2000       218
    75.2200       260
    75.2400       236
    75.2600       260
    75.2800       248
    75.3000       220
    75.3200       246
    75.3400       266
    75.3600       238
    75.3800       240
    75.4000       280
    75.4200       242
    75.4400       286
    75.4600       268
    75.4800       260
    75.5000       276
    75.5200       270
    75.5400       264
    75.5600       284
    75.5800       282
    75.6000       278
    75.6200       312
    75.6400       288
    75.6600       324
    75.6800       282
    75.7000       300
    75.7200       328
    75.7400       318
    75.7600       306
    75.7800       330
    75.8000       316
    75.8200       334
    75.8400       300
    75.8600       314
    75.8800       280
    75.9000       288
    75.9200       274
    75.9400       288
    75.9600       266
    75.9800       308
    76.0000       284
    76.0200       294
    76.0400       274
    76.0600       300
    76.0800       296
    76.1000       282
    76.1200       292
    76.1400       282
    76.1600       270
    76.1800       286
    76.2000       290
    76.2200       274
    76.2400       258
    76.2600       294
    76.2800       292
    76.3000       290
    76.3200       326
    76.3400       338
    76.3600       304
    76.3800       328
    76.4000       354
    76.4200       336
    76.4400       358
    76.4600       354
    76.4800       366
    76.5000       346
    76.5200       356
    76.5400       376
    76.5600       378
    76.5800       408
    76.6000       358
    76.6200       416
    76.6400       444
    76.6600       388
    76.6800       448
    76.7000       426
    76.7200       374
    76.7400       446
    76.7600       390
    76.7800       396
    76.8000       398
    76.8200       398
    76.8400       390
    76.8600       420
    76.8800       392
    76.9000       372
    76.9200       374
    76.9400       348
    76.9600       356
    76.9800       356
    77.0000       364
    77.0200       320
    77.0400       356
    77.0600       328
    77.0800       364
    77.1000       346
    77.1200       350
    77.1400       342
    77.1600       340
    77.1800       362
    77.2000       376
    77.2200       366
    77.2400       356
    77.2600       386
    77.2800       390
    77.3000       422
    77.3200       414
    77.3400       390
    77.3600       418
    77.3800       398
    77.4000       408
    77.4200       400
    77.4400       428
    77.4600       432
    77.4800       414
    77.5000       446
    77.5200       458
    77.5400       460
    77.5600       522
    77.5800       514
    77.6000       538
    77.6200       544
    77.6400       584
    77.6600       586
    77.6800       586
    77.7000       598
    77.7200       630
    77.7400       582
    77.7600       524
    77.7800       614
    77.8000       602
    77.8200       588
    77.8400       554
    77.8600       532
    77.8800       552
    77.9000       522
    77.9200       528
    77.9400       566
    77.9600       540
    77.9800       464
    78.0000       502
    78.0200       454
    78.0400       422
    78.0600       426
    78.0800       422
    78.1000       430
    78.1200       396
    78.1400       412
    78.1600       396
    78.1800       422
    78.2000       412
    78.2200       364
    78.2400       352
    78.2600       362
    78.2800       328
    78.3000       332
    78.3200       336
    78.3400       348
    78.3600       302
    78.3800       358
    78.4000       328
    78.4200       350
    78.4400       344
    78.4600       332
    78.4800       340
    78.5000       370
    78.5200       376
    78.5400       378
    78.5600       394
    78.5800       354
    78.6000       382
    78.6200       380
    78.6400       376
    78.6600       424
    78.6800       412
    78.7000       440
    78.7200       428
    78.7400       462
    78.7600       410
    78.7800       402
    78.8000       426
    78.8200       392
    78.8400       384
    78.8600       366
    78.8800       374
    78.9000       364
    78.9200       362
    78.9400       350
    78.9600       332
    78.9800       340
    79.0000       328
    79.0200       350
    79.0400       320
    79.0600       330
    79.0800       306
    79.1000       322
    79.1200       334
    79.1400       312
    79.1600       310
    79.1800       308
    79.2000       288
    79.2200       298
    79.2400       294
    79.2600       274
    79.2800       294
    79.3000       294
    79.3200       268
    79.3400       276
    79.3600       248
    79.3800       254
    79.4000       226
    79.4200       272
    79.4400       262
    79.4600       250
    79.4800       272
    79.5000       242
    79.5200       238
    79.5400       262
    79.5600       250
    79.5800       234
    79.6000       260
    79.6200       254
    79.6400       256
    79.6600       256
    79.6800       260
    79.7000       228
    79.7200       288
    79.7400       264
    79.7600       244
    79.7800       252
    79.8000       256
    79.8200       244
    79.8400       266
    79.8600       248
    79.8800       234
    79.9000       246
    79.9200       262
    79.9400       278
    79.9600       236
    79.9800       250
    80.0000       262
    80.0200       260
    80.0400       236
    80.0600       222
    80.0800       270
    80.1000       246
    80.1200       268
    80.1400       262
    80.1600       260
    80.1800       270
    80.2000       240
    80.2200       264
    80.2400       252
    80.2600       296
    80.2800       264
    80.3000       268
    80.3200       260
    80.3400       274
    80.3600       246
    80.3800       292
    80.4000       284
    80.4200       278
    80.4400       258
    80.4600       276
    80.4800       286
    80.5000       292
    80.5200       302
    80.5400       284
    80.5600       300
    80.5800       290
    80.6000       282
    80.6200       268
    80.6400       266
    80.6600       282
    80.6800       258
    80.7000       244
    80.7200       262
    80.7400       262
    80.7600       262
    80.7800       218
    80.8000       244
    80.8200       232
    80.8400       300
    80.8600       254
    80.8800       248
    80.9000       242
    80.9200       226
    80.9400       214
    80.9600       206
    80.9800       230
    81.0000       234
    81.0200       232
    81.0400       248
    81.0600       246
    81.0800       218
    81.1000       252
    81.1200       196
    81.1400       214
    81.1600       232
    81.1800       212
    81.2000       222
    81.2200       218
    81.2400       204
    81.2600       234
    81.2800       216
    81.3000       256
    81.3200       258
    81.3400       238
    81.3600       274
    81.3800       264
    81.4000       236
    81.4200       258
    81.4400       256
    81.4600       246
    81.4800       274
    81.5000       286
    81.5200       254
    81.5400       284
    81.5600       274
    81.5800       286
    81.6000       270
    81.6200       270
    81.6400       308
    81.6600       272
    81.6800       268
    81.7000       292
    81.7200       304
    81.7400       270
    81.7600       292
    81.7800       260
    81.8000       284
    81.8200       288
    81.8400       306
    81.8600       310
    81.8800       282
    81.9000       342
    81.9200       338
    81.9400       326
    81.9600       292
    81.9800       326
    82.0000       310
    82.0200       368
    82.0400       322
    82.0600       328
    82.0800       324
    82.1000       330
    82.1200       350
    82.1400       362
    82.1600       344
    82.1800       332
    82.2000       382
    82.2200       410
    82.2400       378
    82.2600       378
    82.2800       390
    82.3000       326
    82.3200       416
    82.3400       400
    82.3600       414
    82.3800       412
    82.4000       416
    82.4200       424
    82.4400       420
    82.4600       466
    82.4800       394
    82.5000       428
    82.5200       426
    82.5400       468
    82.5600       470
    82.5800       532
    82.6000       502
    82.6200       516
    82.6400       588
    82.6600       560
    82.6800       584
    82.7000       632
    82.7200       630
    82.7400       688
    82.7600       630
    82.7800       678
    82.8000       764
    82.8200       774
    82.8400       810
    82.8600       800
    82.8800       826
    82.9000       788
    82.9200       832
    82.9400       780
    82.9600       810
    82.9800       784
    83.0000       744
    83.0200       704
    83.0400       756
    83.0600       692
    83.0800       704
    83.1000       714
    83.1200       654
    83.1400       668
    83.1600       670
    83.1800       648
    83.2000       582
    83.2200       586
    83.2400       576
    83.2600       572
    83.2800       506
    83.3000       514
    83.3200       544
    83.3400       470
    83.3600       452
    83.3800       434
    83.4000       450
    83.4200       414
    83.4400       454
    83.4600       436
    83.4800       410
    83.5000       396
    83.5200       386
    83.5400       372
    83.5600       396
    83.5800       406
    83.6000       386
    83.6200       330
    83.6400       358
    83.6600       348
    83.6800       350
    83.7000       308
    83.7200       320
    83.7400       320
    83.7600       328
    83.7800       300
    83.8000       332
    83.8200       300
    83.8400       296
    83.8600       302
    83.8800       310
    83.9000       312
    83.9200       306
    83.9400       298
    83.9600       296
    83.9800       314
    84.0000       284
    84.0200       300
    84.0400       326
    84.0600       304
    84.0800       326
    84.1000       326
    84.1200       318
    84.1400       340
    84.1600       352
    84.1800       334
    84.2000       336
    84.2200       294
    84.2400       304
    84.2600       338
    84.2800       320
    84.3000       330
    84.3200       332
    84.3400       302
    84.3600       334
    84.3800       330
    84.4000       318
    84.4200       320
    84.4400       310
    84.4600       346
    84.4800       306
    84.5000       336
    84.5200       312
    84.5400       340
    84.5600       306
    84.5800       296
    84.6000       288
    84.6200       276
    84.6400       352
    84.6600       272
    84.6800       314
    84.7000       330
    84.7200       316
    84.7400       306
    84.7600       272
    84.7800       292
    84.8000       292
    84.8200       306
    84.8400       292
    84.8600       316
    84.8800       294
    84.9000       308
    84.9200       300
    84.9400       260
    84.9600       302
    84.9800       288
    85.0000       294
    85.0200       276
    85.0400       260
    85.0600       268
    85.0800       304
    85.1000       266
    85.1200       294
    85.1400       262
    85.1600       260
    85.1800       250
    85.2000       256
    85.2200       254
    85.2400       262
    85.2600       278
    85.2800       272
    85.3000       284
    85.3200       272
    85.3400       246
    85.3600       266
    85.3800       272
    85.4000       264
    85.4200       264
    85.4400       278
    85.4600       280
    85.4800       302
    85.5000       252
    85.5200       262
    85.5400       280
    85.5600       258
    85.5800       290
    85.6000       294
    85.6200       280
    85.6400       294
    85.6600       312
    85.6800       298
    85.7000       282
    85.7200       302
    85.7400       290
    85.7600       268
    85.7800       280
    85.8000       264
    85.8200       270
    85.8400       268
    85.8600       264
    85.8800       292
    85.9000       280
    85.9200       310
    85.9400       250
    85.9600       250
    85.9800       248
    86.0000       286
    86.0200       250
    86.0400       262
    86.0600       268
    86.0800       260
    86.1000       222
    86.1200       270
    86.1400       224
    86.1600       270
    86.1800       260
    86.2000       286
    86.2200       250
    86.2400       250
    86.2600       280
    86.2800       248
    86.3000       238
    86.3200       236
    86.3400       238
    86.3600       268
    86.3800       270
    86.4000       272
    86.4200       234
    86.4400       256
    86.4600       244
    86.4800       266
    86.5000       258
    86.5200       280
    86.5400       284
    86.5600       274
    86.5800       238
    86.6000       302
    86.6200       320
    86.6400       284
    86.6600       290
    86.6800       330
    86.7000       326
    86.7200       324
    86.7400       326
    86.7600       346
    86.7800       350
    86.8000       318
    86.8200       346
    86.8400       366
    86.8600       364
    86.8800       406
    86.9000       384
    86.9200       370
    86.9400       354
    86.9600       394
    86.9800       370
    87.0000       376
    87.0200       418
    87.0400       364
    87.0600       384
    87.0800       432
    87.1000       370
    87.1200       368
    87.1400       392
    87.1600       362
    87.1800       360
    87.2000       374
    87.2200       384
    87.2400       360
    87.2600       386
    87.2800       332
    87.3000       348
    87.3200       366
    87.3400       380
    87.3600       328
    87.3800       320
    87.4000       330
    87.4200       344
    87.4400       384
    87.4600       320
    87.4800       350
    87.5000       346
    87.5200       344
    87.5400       384
    87.5600       366
    87.5800       348
    87.6000       352
    87.6200       404
    87.6400       374
    87.6600       400
    87.6800       404
    87.7000       424
    87.7200       376
    87.7400       392
    87.7600       384
    87.7800       444
    87.8000       426
    87.8200       452
    87.8400       446
    87.8600       438
    87.8800       412
    87.9000       448
    87.9200       442
    87.9400       428
    87.9600       436
    87.9800       398
    88.0000       414
    88.0200       420
    88.0400       434
    88.0600       384
    88.0800       418
    88.1000       424
    88.1200       428
    88.1400       392
    88.1600       390
    88.1800       382
    88.2000       414
    88.2200       392
    88.2400       388
    88.2600       398
    88.2800       386
    88.3000       386
    88.3200       364
    88.3400       354
    88.3600       392
    88.3800       364
    88.4000       370
    88.4200       346
    88.4400       378
    88.4600       340
    88.4800       336
    88.5000       330
    88.5200       360
    88.5400       346
    88.5600       324
    88.5800       334
    88.6000       334
    88.6200       368
    88.6400       292
    88.6600       324
    88.6800       318
    88.7000       316
    88.7200       304
    88.7400       296
    88.7600       306
    88.7800       340
    88.8000       296
    88.8200       300
    88.8400       280
    88.8600       298
    88.8800       286
    88.9000       286
    88.9200       290
    88.9400       254
    88.9600       302
    88.9800       238
    89.0000       274
    89.0200       262
    89.0400       298
    89.0600       238
    89.0800       292
    89.1000       302
    89.1200       264
    89.1400       234
    89.1600       236
    89.1800       248
    89.2000       260
    89.2200       242
    89.2400       264
    89.2600       286
    89.2800       282
    89.3000       266
    89.3200       232
    89.3400       224
    89.3600       264
    89.3800       282
    89.4000       252
    89.4200       236
    89.4400       248
    89.4600       256
    89.4800       242
    89.5000       256
    89.5200       276
    89.5400       262
    89.5600       252
    89.5800       256
    89.6000       262
    89.6200       300
    89.6400       246
    89.6600       242
    89.6800       272
    89.7000       268
    89.7200       298
    89.7400       278
    89.7600       280
    89.7800       304
    89.8000       254
    89.8200       286
    89.8400       280
    89.8600       284
    89.8800       296
    89.9000       286
    89.9200       304
    89.9400       282
    89.9600       296
    89.9800       286
    90.0000       318
