    10.0000       382
    10.0200       360
    10.0400       362
    10.0600       346
    10.0800       384
    10.1000       360
    10.1200       424
    10.1400       406
    10.1600       374
    10.1800       380
    10.2000       350
    10.2200       386
    10.2400       346
    10.2600       386
    10.2800       376
    10.3000       352
    10.3200       376
    10.3400       356
    10.3600       396
    10.3800       348
    10.4000       356
    10.4200       372
    10.4400       360
    10.4600       368
    10.4800       376
    10.5000       410
    10.5200       354
    10.5400       332
    10.5600       336
    10.5800       354
    10.6000       384
    10.6200       354
    10.6400       336
    10.6600       324
    10.6800       346
    10.7000       372
    10.7200       374
    10.7400       352
    10.7600       334
    10.7800       344
    10.8000       334
    10.8200       362
    10.8400       370
    10.8600       360
    10.8800       340
    10.9000       346
    10.9200       352
    10.9400       332
    10.9600       322
    10.9800       358
    11.0000       300
    11.0200       352
    11.0400       330
    11.0600       362
    11.0800       314
    11.1000       372
    11.1200       328
    11.1400       330
    11.1600       350
    11.1800       348
    11.2000       344
    11.2200       350
    11.2400       362
    11.2600       334
    11.2800       350
    11.3000       316
    11.3200       326
    11.3400       320
    11.3600       368
    11.3800       338
    11.4000       342
    11.4200       354
    11.4400       324
    11.4600       342
    11.4800       354
    11.5000       336
    11.5200       338
    11.5400       328
    11.5600       320
    11.5800       348
    11.6000       368
    11.6200       336
    11.6400       346
    11.6600       362
    11.6800       362
    11.7000       366
    11.7200       340
    11.7400       338
    11.7600       354
    11.7800       320
    11.8000       394
    11.8200       388
    11.8400       360
    11.8600       358
    11.8800       412
    11.9000       372
    11.9200       422
    11.9400       406
    11.9600       416
    11.9800       388
    12.0000       450
    12.0200       436
    12.0400       432
    12.0600       494
    12.0800       502
    12.1000       568
    12.1200       562
    12.1400       596
    12.1600       698
    12.1800       658
    12.2000       680
    12.2200       634
    12.2400       560
    12.2600       492
    12.2800       446
    12.3000       390
    12.3200       342
    12.3400       338
    12.3600       384
    12.3800       358
    12.4000       326
    12.4200       302
    12.4400       312
    12.4600       348
    12.4800       330
    12.5000       350
    12.5200       324
    12.5400       294
    12.5600       276
    12.5800       294
    12.6000       306
    12.6200       308
    12.6400       288
    12.6600       310
    12.6800       292
    12.7000       312
    12.7200       332
    12.7400       322
    12.7600       326
    12.7800       328
    12.8000       336
    12.8200       310
    12.8400       336
    12.8600       314
    12.8800       306
    12.9000       292
    12.9200       278
    12.9400       324
    12.9600       324
    12.9800       324
    13.0000       326
    13.0200       290
    13.0400       296
    13.0600       316
    13.0800       286
    13.1000       326
    13.1200       288
    13.1400       284
    13.1600       276
    13.1800       276
    13.2000       280
    13.2200       278
    13.2400       300
    13.2600       262
    13.2800       258
    13.3000       288
    13.3200       290
    13.3400       284
    13.3600       310
    13.3800       272
    13.4000       290
    13.4200       300
    13.4400       282
    13.4600       290
    13.4800       292
    13.5000       262
    13.5200       288
    13.5400       304
    13.5600       296
    13.5800       296
    13.6000       274
    13.6200       292
    13.6400       268
    13.6600       294
    13.6800       306
    13.7000       290
    13.7200       300
    13.7400       250
    13.7600       278
    13.7800       304
    13.8000       264
    13.8200       290
    13.8400       262
    13.8600       276
    13.8800       266
    13.9000       308
    13.9200       270
    13.9400       250
    13.9600       280
    13.9800       296
    14.0000       286
    14.0200       274
    14.0400       276
    14.0600       272
    14.0800       324
    14.1000       298
    14.1200       266
    14.1400       274
    14.1600       280
    14.1800       264
    14.2000       284
    14.2200       302
    14.2400       286
    14.2600       302
    14.2800       270
    14.3000       260
    14.3200       270
    14.3400       290
    14.3600       290
    14.3800       294
    14.4000       262
    14.4200       262
    14.4400       296
    14.4600       300
    14.4800       294
    14.5000       304
    14.5200       304
    14.5400       302
    14.5600       290
    14.5800       318
    14.6000       298
    14.6200       332
    14.6400       330
    14.6600       352
    14.6800       320
    14.7000       378
    14.7200       364
    14.7400       356
    14.7600       374
    14.7800       416
    14.8000       418
    14.8200       498
    14.8400       532
    14.8600       574
    14.8800       560
    14.9000       612
    14.9200       646
    14.9400       760
    14.9600       812
    14.9800       850
    15.0000       908
    15.0200      1030
    15.0400      1186
    15.0600      1242
    15.0800      1372
    15.1000      1558
    15.1200      1750
    15.1400      1882
    15.1600      2166
    15.1800      2206
    15.2000      2128
    15.2200      1940
    15.2400      1606
    15.2600      1274
    15.2800       978
    15.3000       802
    15.3200       616
    15.3400       580
    15.3600       456
    15.3800       482
    15.4000       412
    15.4200       422
    15.4400       390
    15.4600       382
    15.4800       358
    15.5000       294
    15.5200       310
    15.5400       342
    15.5600       310
    15.5800       324
    15.6000       306
    15.6200       306
    15.6400       264
    15.6600       302
    15.6800       272
    15.7000       264
    15.7200       252
    15.7400       264
    15.7600       268
    15.7800       286
    15.8000       268
    15.8200       284
    15.8400       272
    15.8600       282
    15.8800       264
    15.9000       244
    15.9200       278
    15.9400       286
    15.9600       272
    15.9800       274
    16.0000       284
    16.0200       316
    16.0400       286
    16.0600       330
    16.0800       308
    16.1000       346
    16.1200       312
    16.1400       302
    16.1600       302
    16.1800       336
    16.2000       338
    16.2200       368
    16.2400       372
    16.2600       376
    16.2800       374
    16.3000       360
    16.3200       364
    16.3400       342
    16.3600       314
    16.3800       324
    16.4000       346
    16.4200       362
    16.4400       354
    16.4600       314
    16.4800       346
    16.5000       336
    16.5200       374
    16.5400       346
    16.5600       368
    16.5800       390
    16.6000       408
    16.6200       448
    16.6400       446
    16.6600       516
    16.6800       564
    16.7000       570
    16.7200       620
    16.7400       636
    16.7600       768
    16.7800       838
    16.8000       870
    16.8200       972
    16.8400      1106
    16.8600      1256
    16.8800      1372
    16.9000      1534
    16.9200      1806
    16.9400      2074
    16.9600      2474
    16.9800      2768
    17.0000      3270
    17.0200      3620
    17.0400      3884
    17.0600      3816
    17.0800      3338
    17.1000      2830
    17.1200      2322
    17.1400      1652
    17.1600      1336
    17.1800      1062
    17.2000       946
    17.2200       956
    17.2400       850
    17.2600       850
    17.2800       724
    17.3000       714
    17.3200       676
    17.3400       654
    17.3600       550
    17.3800       558
    17.4000       520
    17.4200       520
    17.4400       492
    17.4600       466
    17.4800       472
    17.5000       518
    17.5200       492
    17.5400       482
    17.5600       536
    17.5800       504
    17.6000       550
    17.6200       588
    17.6400       594
    17.6600       680
    17.6800       698
    17.7000       836
    17.7200       916
    17.7400       946
    17.7600      1056
    17.7800      1094
    17.8000      1234
    17.8200      1190
    17.8400      1060
    17.8600       962
    17.8800       762
    17.9000       732
    17.9200       580
    17.9400       488
    17.9600       424
    17.9800       316
    18.0000       324
    18.0200       310
    18.0400       322
    18.0600       330
    18.0800       302
    18.1000       298
    18.1200       304
    18.1400       262
    18.1600       258
    18.1800       286
    18.2000       266
    18.2200       244
    18.2400       264
    18.2600       250
    18.2800       236
    18.3000       236
    18.3200       244
    18.3400       270
    18.3600       240
    18.3800       252
    18.4000       250
    18.4200       274
    18.4400       256
    18.4600       232
    18.4800       242
    18.5000       282
    18.5200       260
    18.5400       232
    18.5600       248
    18.5800       226
    18.6000       232
    18.6200       226
    18.6400       224
    18.6600       248
    18.6800       250
    18.7000       266
    18.7200       288
    18.7400       242
    18.7600       244
    18.7800       248
    18.8000       228
    18.8200       278
    18.8400       270
    18.8600       270
    18.8800       288
    18.9000       286
    18.9200       286
    18.9400       286
    18.9600       292
    18.9800       326
    19.0000       268
    19.0200       256
    19.0400       280
    19.0600       304
    19.0800       292
    19.1000       324
    19.1200       304
    19.1400       310
    19.1600       362
    19.1800       350
    19.2000       350
    19.2200       424
    19.2400       398
    19.2600       416
    19.2800       458
    19.3000       522
    19.3200       562
    19.3400       588
    19.3600       660
    19.3800       724
    19.4000       842
    19.4200       832
    19.4400       968
    19.4600      1102
    19.4800      1348
    19.5000      1438
    19.5200      1432
    19.5400      1624
    19.5600      1708
    19.5800      1644
    19.6000      1554
    19.6200      1408
    19.6400      1200
    19.6600      1020
    19.6800       922
    19.7000       734
    19.7200       662
    19.7400       654
    19.7600       638
    19.7800       662
    19.8000       704
    19.8200       732
    19.8400       800
    19.8600       876
    19.8800       946
    19.9000      1032
    19.9200      1096
    19.9400      1238
    19.9600      1342
    19.9800      1372
    20.0000      1398
    20.0200      1382
    20.0400      1236
    20.0600      1104
    20.0800       970
    20.1000       808
    20.1200       650
    20.1400       548
    20.1600       440
    20.1800       434
    20.2000       392
    20.2200       368
    20.2400       354
    20.2600       368
    20.2800       330
    20.3000       326
    20.3200       306
    20.3400       304
    20.3600       318
    20.3800       262
    20.4000       262
    20.4200       280
    20.4400       272
    20.4600       266
    20.4800       274
    20.5000       236
    20.5200       286
    20.5400       272
    20.5600       284
    20.5800       260
    20.6000       222
    20.6200       250
    20.6400       254
    20.6600       256
    20.6800       240
    20.7000       262
    20.7200       258
    20.7400       264
    20.7600       292
    20.7800       288
    20.8000       310
    20.8200       298
    20.8400       358
    20.8600       392
    20.8800       396
    20.9000       380
    20.9200       392
    20.9400       476
    20.9600       518
    20.9800       548
    21.0000       660
    21.0200       706
    21.0400       798
    21.0600       972
    21.0800      1032
    21.1000      1142
    21.1200      1374
    21.1400      1618
    21.1600      1712
    21.1800      1926
    21.2000      1918
    21.2200      1870
    21.2400      1688
    21.2600      1458
    21.2800      1196
    21.3000      1022
    21.3200       750
    21.3400       638
    21.3600       536
    21.3800       452
    21.4000       418
    21.4200       362
    21.4400       334
    21.4600       296
    21.4800       294
    21.5000       296
    21.5200       282
    21.5400       258
    21.5600       256
    21.5800       260
    21.6000       244
    21.6200       280
    21.6400       266
    21.6600       236
    21.6800       244
    21.7000       214
    21.7200       220
    21.7400       228
    21.7600       242
    21.7800       226
    21.8000       240
    21.8200       232
    21.8400       234
    21.8600       214
    21.8800       208
    21.9000       208
    21.9200       260
    21.9400       210
    21.9600       244
    21.9800       226
    22.0000       198
    22.0200       218
    22.0400       226
    22.0600       228
    22.0800       218
    22.1000       244
    22.1200       238
    22.1400       232
    22.1600       238
    22.1800       234
    22.2000       240
    22.2200       248
    22.2400       256
    22.2600       282
    22.2800       228
    22.3000       268
    22.3200       266
    22.3400       242
    22.3600       286
    22.3800       264
    22.4000       302
    22.4200       290
    22.4400       334
    22.4600       282
    22.4800       326
    22.5000       320
    22.5200       406
    22.5400       412
    22.5600       448
    22.5800       460
    22.6000       528
    22.6200       558
    22.6400       610
    22.6600       702
    22.6800       778
    22.7000       858
    22.7200       932
    22.7400      1046
    22.7600      1244
    22.7800      1402
    22.8000      1620
    22.8200      1808
    22.8400      2030
    22.8600      1974
    22.8800      2124
    22.9000      1990
    22.9200      1884
    22.9400      1636
    22.9600      1440
    22.9800      1086
    23.0000       900
    23.0200       746
    23.0400       666
    23.0600       556
    23.0800       512
    23.1000       430
    23.1200       410
    23.1400       330
    23.1600       348
    23.1800       326
    23.2000       346
    23.2200       334
    23.2400       254
    23.2600       276
    23.2800       268
    23.3000       256
    23.3200       270
    23.3400       236
    23.3600       256
    23.3800       282
    23.4000       252
    23.4200       232
    23.4400       256
    23.4600       252
    23.4800       232
    23.5000       228
    23.5200       222
    23.5400       222
    23.5600       226
    23.5800       240
    23.6000       222
    23.6200       236
    23.6400       218
    23.6600       250
    23.6800       246
    23.7000       240
    23.7200       222
    23.7400       256
    23.7600       230
    23.7800       246
    23.8000       228
    23.8200       248
    23.8400       212
    23.8600       226
    23.8800       202
    23.9000       214
    23.9200       234
    23.9400       238
    23.9600       264
    23.9800       236
    24.0000       228
    24.0200       240
    24.0400       260
    24.0600       256
    24.0800       260
    24.1000       268
    24.1200       282
    24.1400       264
    24.1600       292
    24.1800       312
    24.2000       296
    24.2200       288
    24.2400       334
    24.2600       392
    24.2800       368
    24.3000       440
    24.3200       408
    24.3400       464
    24.3600       520
    24.3800       574
    24.4000       620
    24.4200       760
    24.4400       842
    24.4600       964
    24.4800      1066
    24.5000      1218
    24.5200      1242
    24.5400      1188
    24.5600      1232
    24.5800      1126
    24.6000       998
    24.6200       982
    24.6400       880
    24.6600       824
    24.6800       802
    24.7000       798
    24.7200       772
    24.7400       774
    24.7600       786
    24.7800       726
    24.8000       754
    24.8200       710
    24.8400       642
    24.8600       632
    24.8800       520
    24.9000       524
    24.9200       502
    24.9400       508
    24.9600       536
    24.9800       530
    25.0000       520
    25.0200       566
    25.0400       644
    25.0600       698
    25.0800       730
    25.1000       736
    25.1200       768
    25.1400       898
    25.1600       984
    25.1800      1038
    25.2000      1258
    25.2200      1396
    25.2400      1664
    25.2600      1734
    25.2800      1790
    25.3000      1778
    25.3200      1682
    25.3400      1626
    25.3600      1434
    25.3800      1270
    25.4000      1070
    25.4200       938
    25.4400       778
    25.4600       704
    25.4800       694
    25.5000       704
    25.5200       678
    25.5400       648
    25.5600       686
    25.5800       670
    25.6000       714
    25.6200       706
    25.6400       738
    25.6600       642
    25.6800       642
    25.7000       614
    25.7200       560
    25.7400       514
    25.7600       456
    25.7800       420
    25.8000       414
    25.8200       434
    25.8400       364
    25.8600       360
    25.8800       350
    25.9000       344
    25.9200       336
    25.9400       332
    25.9600       302
    25.9800       310
    26.0000       290
    26.0200       258
    26.0400       304
    26.0600       240
    26.0800       256
    26.1000       264
    26.1200       250
    26.1400       302
    26.1600       250
    26.1800       228
    26.2000       246
    26.2200       286
    26.2400       246
    26.2600       226
    26.2800       270
    26.3000       226
    26.3200       232
    26.3400       230
    26.3600       224
    26.3800       246
    26.4000       232
    26.4200       230
    26.4400       268
    26.4600       228
    26.4800       236
    26.5000       264
    26.5200       254
    26.5400       252
    26.5600       226
    26.5800       260
    26.6000       258
    26.6200       258
    26.6400       250
    26.6600       256
    26.6800       262
    26.7000       274
    26.7200       256
    26.7400       246
    26.7600       272
    26.7800       280
    26.8000       286
    26.8200       288
    26.8400       274
    26.8600       254
    26.8800       268
    26.9000       254
    26.9200       274
    26.9400       242
    26.9600       278
    26.9800       262
    27.0000       262
    27.0200       252
    27.0400       294
    27.0600       278
    27.0800       286
    27.1000       284
    27.1200       312
    27.1400       304
    27.1600       348
    27.1800       312
    27.2000       344
    27.2200       392
    27.2400       384
    27.2600       452
    27.2800       518
    27.3000       548
    27.3200       610
    27.3400       668
    27.3600       734
    27.3800       880
    27.4000       992
    27.4200      1108
    27.4400      1148
    27.4600      1254
    27.4800      1332
    27.5000      1152
    27.5200      1166
    27.5400      1026
    27.5600      1010
    27.5800       774
    27.6000       736
    27.6200       584
    27.6400       514
    27.6600       420
    27.6800       392
    27.7000       378
    27.7200       374
    27.7400       340
    27.7600       348
    27.7800       330
    27.8000       320
    27.8200       316
    27.8400       308
    27.8600       320
    27.8800       312
    27.9000       298
    27.9200       318
    27.9400       308
    27.9600       340
    27.9800       308
    28.0000       324
    28.0200       330
    28.0400       372
    28.0600       356
    28.0800       370
    28.1000       350
    28.1200       380
    28.1400       422
    28.1600       396
    28.1800       464
    28.2000       526
    28.2200       494
    28.2400       548
    28.2600       602
    28.2800       564
    28.3000       552
    28.3200       522
    28.3400       478
    28.3600       500
    28.3800       476
    28.4000       440
    28.4200       410
    28.4400       416
    28.4600       372
    28.4800       400
    28.5000       392
    28.5200       400
    28.5400       374
    28.5600       386
    28.5800       414
    28.6000       432
    28.6200       432
    28.6400       464
    28.6600       540
    28.6800       492
    28.7000       556
    28.7200       600
    28.7400       580
    28.7600       542
    28.7800       496
    28.8000       508
    28.8200       436
    28.8400       434
    28.8600       358
    28.8800       358
    28.9000       330
    28.9200       340
    28.9400       312
    28.9600       360
    28.9800       298
    29.0000       316
    29.0200       338
    29.0400       304
    29.0600       300
    29.0800       310
    29.1000       362
    29.1200       344
    29.1400       314
    29.1600       330
    29.1800       364
    29.2000       338
    29.2200       358
    29.2400       400
    29.2600       360
    29.2800       424
    29.3000       454
    29.3200       458
    29.3400       482
    29.3600       526
    29.3800       562
    29.4000       596
    29.4200       688
    29.4400       746
    29.4600       846
    29.4800       872
    29.5000       988
    29.5200      1058
    29.5400      1226
    29.5600      1330
    29.5800      1426
    29.6000      1626
    29.6200      1704
    29.6400      1638
    29.6600      1714
    29.6800      1638
    29.7000      1486
    29.7200      1432
    29.7400      1324
    29.7600      1126
    29.7800      1028
    29.8000       918
    29.8200       852
    29.8400       762
    29.8600       782
    29.8800       718
    29.9000       774
    29.9200       716
    29.9400       824
    29.9600       858
    29.9800       840
    30.0000       986
    30.0200      1068
    30.0400      1252
    30.0600      1398
    30.0800      1562
    30.1000      1736
    30.1200      1870
    30.1400      2006
    30.1600      2096
    30.1800      2278
    30.2000      2088
    30.2200      2154
    30.2400      2052
    30.2600      1928
    30.2800      1828
    30.3000      1826
    30.3200      1826
    30.3400      1818
    30.3600      1820
    30.3800      1980
    30.4000      2254
    30.4200      2386
    30.4400      2686
    30.4600      3002
    30.4800      3358
    30.5000      3842
    30.5200      4484
    30.5400      5200
    30.5600      6024
    30.5800      6920
    30.6000      7896
    30.6200      8842
    30.6400      9776
    30.6600     10124
    30.6800     10412
    30.7000      9816
    30.7200      9156
    30.7400      8182
    30.7600      7068
    30.7800      6108
    30.8000      5066
    30.8200      4124
    30.8400      3366
    30.8600      2744
    30.8800      2294
    30.9000      1980
    30.9200      1734
    30.9400      1562
    30.9600      1378
    30.9800      1268
    31.0000      1204
    31.0200      1088
    31.0400       966
    31.0600       882
    31.0800       908
    31.1000       822
    31.1200       730
    31.1400       730
    31.1600       688
    31.1800       690
    31.2000       680
    31.2200       616
    31.2400       548
    31.2600       642
    31.2800       562
    31.3000       524
    31.3200       514
    31.3400       476
    31.3600       420
    31.3800       456
    31.4000       428
    31.4200       412
    31.4400       402
    31.4600       388
    31.4800       390
    31.5000       388
    31.5200       372
    31.5400       374
    31.5600       430
    31.5800       388
    31.6000       396
    31.6200       398
    31.6400       424
    31.6600       416
    31.6800       420
    31.7000       408
    31.7200       460
    31.7400       448
    31.7600       526
    31.7800       558
    31.8000       548
    31.8200       570
    31.8400       624
    31.8600       658
    31.8800       728
    31.9000       826
    31.9200       872
    31.9400       948
    31.9600      1050
    31.9800      1094
    32.0000      1158
    32.0200      1182
    32.0400      1192
    32.0600      1128
    32.0800      1080
    32.1000      1082
    32.1200      1000
    32.1400       960
    32.1600       892
    32.1800       896
    32.2000       846
    32.2200       802
    32.2400       804
    32.2600       922
    32.2800       944
    32.3000       984
    32.3200      1076
    32.3400      1118
    32.3600      1204
    32.3800      1474
    32.4000      1606
    32.4200      1822
    32.4400      1938
    32.4600      2232
    32.4800      2512
    32.5000      2752
    32.5200      3148
    32.5400      3470
    32.5600      3658
    32.5800      3854
    32.6000      3900
    32.6200      3774
    32.6400      3646
    32.6600      3252
    32.6800      3006
    32.7000      2802
    32.7200      2376
    32.7400      2004
    32.7600      1782
    32.7800      1518
    32.8000      1350
    32.8200      1208
    32.8400      1040
    32.8600       928
    32.8800       920
    32.9000       864
    32.9200       870
    32.9400       788
    32.9600       800
    32.9800       812
    33.0000       856
    33.0200       850
    33.0400       848
    33.0600       870
    33.0800       898
    33.1000       916
    33.1200       916
    33.1400       944
    33.1600       860
    33.1800       842
    33.2000       798
    33.2200       680
    33.2400       652
    33.2600       570
    33.2800       512
    33.3000       488
    33.3200       450
    33.3400       388
    33.3600       394
    33.3800       380
    33.4000       374
    33.4200       324
    33.4400       330
    33.4600       326
    33.4800       332
    33.5000       302
    33.5200       300
    33.5400       322
    33.5600       298
    33.5800       292
    33.6000       236
    33.6200       294
    33.6400       266
    33.6600       272
    33.6800       284
    33.7000       304
    33.7200       282
    33.7400       266
    33.7600       280
    33.7800       264
    33.8000       272
    33.8200       292
    33.8400       278
    33.8600       302
    33.8800       242
    33.9000       260
    33.9200       278
    33.9400       256
    33.9600       260
    33.9800       280
    34.0000       268
    34.0200       314
    34.0400       280
    34.0600       294
    34.0800       286
    34.1000       272
    34.1200       312
    34.1400       308
    34.1600       336
    34.1800       302
    34.2000       332
    34.2200       336
    34.2400       334
    34.2600       344
    34.2800       368
    34.3000       412
    34.3200       472
    34.3400       468
    34.3600       484
    34.3800       576
    34.4000       638
    34.4200       746
    34.4400       864
    34.4600       844
    34.4800       958
    34.5000      1016
    34.5200      1030
    34.5400       942
    34.5600       914
    34.5800       788
    34.6000       758
    34.6200       718
    34.6400       608
    34.6600       544
    34.6800       470
    34.7000       436
    34.7200       396
    34.7400       392
    34.7600       372
    34.7800       362
    34.8000       352
    34.8200       378
    34.8400       414
    34.8600       344
    34.8800       388
    34.9000       346
    34.9200       312
    34.9400       338
    34.9600       302
    34.9800       298
    35.0000       322
    35.0200       324
    35.0400       306
    35.0600       324
    35.0800       302
    35.1000       308
    35.1200       286
    35.1400       294
    35.1600       280
    35.1800       300
    35.2000       280
    35.2200       294
    35.2400       318
    35.2600       300
    35.2800       298
    35.3000       266
    35.3200       306
    35.3400       292
    35.3600       280
    35.3800       302
    35.4000       272
    35.4200       290
    35.4400       298
    35.4600       280
    35.4800       326
    35.5000       306
    35.5200       278
    35.5400       340
    35.5600       286
    35.5800       306
    35.6000       308
    35.6200       342
    35.6400       308
    35.6600       344
    35.6800       348
    35.7000       350
    35.7200       364
    35.7400       394
    35.7600       412
    35.7800       394
    35.8000       404
    35.8200       448
    35.8400       468
    35.8600       492
    35.8800       536
    35.9000       576
    35.9200       590
    35.9400       718
    35.9600       700
    35.9800       782
    36.0000       838
    36.0200       968
    36.0400       980
    36.0600      1040
    36.0800      1096
    36.1000      1128
    36.1200      1070
    36.1400      1062
    36.1600      1050
    36.1800       950
    36.2000       914
    36.2200       842
    36.2400       792
    36.2600       740
    36.2800       684
    36.3000       626
    36.3200       552
    36.3400       540
    36.3600       476
    36.3800       480
    36.4000       430
    36.4200       410
    36.4400       406
    36.4600       400
    36.4800       444
    36.5000       412
    36.5200       436
    36.5400       412
    36.5600       424
    36.5800       458
    36.6000       394
    36.6200       452
    36.6400       496
    36.6600       442
    36.6800       516
    36.7000       480
    36.7200       538
    36.7400       654
    36.7600       696
    36.7800       716
    36.8000       748
    36.8200       890
    36.8400       884
    36.8600       948
    36.8800      1040
    36.9000      1128
    36.9200      1198
    36.9400      1164
    36.9600      1124
    36.9800      1098
    37.0000      1012
    37.0200       992
    37.0400      1048
    37.0600       978
    37.0800       926
    37.1000       916
    37.1200       948
    37.1400       976
    37.1600       908
    37.1800       902
    37.2000       934
    37.2200       846
    37.2400       832
    37.2600       728
    37.2800       692
    37.3000       708
    37.3200       646
    37.3400       564
    37.3600       584
    37.3800       538
    37.4000       520
    37.4200       546
    37.4400       484
    37.4600       486
    37.4800       510
    37.5000       434
    37.5200       482
    37.5400       474
    37.5600       524
    37.5800       476
    37.6000       404
    37.6200       466
    37.6400       526
    37.6600       538
    37.6800       516
    37.7000       524
    37.7200       592
    37.7400       572
    37.7600       594
    37.7800       604
    37.8000       594
    37.8200       620
    37.8400       690
    37.8600       718
    37.8800       780
    37.9000       820
    37.9200       906
    37.9400      1000
    37.9600      1030
    37.9800      1038
    38.0000      1106
    38.0200      1194
    38.0400      1198
    38.0600      1344
    38.0800      1318
    38.1000      1284
    38.1200      1306
    38.1400      1276
    38.1600      1266
    38.1800      1260
    38.2000      1280
    38.2200      1282
    38.2400      1306
    38.2600      1338
    38.2800      1432
    38.3000      1520
    38.3200      1624
    38.3400      1810
    38.3600      1976
    38.3800      2208
    38.4000      2412
    38.4200      2664
    38.4400      3000
    38.4600      3272
    38.4800      3756
    38.5000      4088
    38.5200      4446
    38.5400      4880
    38.5600      5332
    38.5800      5878
    38.6000      6254
    38.6200      6428
    38.6400      6608
    38.6600      6502
    38.6800      6290
    38.7000      6058
    38.7200      5554
    38.7400      5172
    38.7600      4720
    38.7800      4288
    38.8000      3904
    38.8200      3512
    38.8400      2972
    38.8600      2704
    38.8800      2404
    38.9000      2204
    38.9200      1952
    38.9400      1804
    38.9600      1702
    38.9800      1572
    39.0000      1482
    39.0200      1494
    39.0400      1422
    39.0600      1412
    39.0800      1460
    39.1000      1326
    39.1200      1440
    39.1400      1408
    39.1600      1352
    39.1800      1404
    39.2000      1426
    39.2200      1424
    39.2400      1492
    39.2600      1498
    39.2800      1466
    39.3000      1442
    39.3200      1554
    39.3400      1550
    39.3600      1528
    39.3800      1520
    39.4000      1468
    39.4200      1402
    39.4400      1308
    39.4600      1328
    39.4800      1172
    39.5000      1164
    39.5200      1170
    39.5400      1156
    39.5600      1112
    39.5800      1110
    39.6000      1096
    39.6200      1068
    39.6400      1162
    39.6600      1254
    39.6800      1284
    39.7000      1284
    39.7200      1308
    39.7400      1308
    39.7600      1346
    39.7800      1288
    39.8000      1296
    39.8200      1264
    39.8400      1232
    39.8600      1052
    39.8800      1022
    39.9000       970
    39.9200       958
    39.9400       830
    39.9600       864
    39.9800       882
    40.0000       816
    40.0200       854
    40.0400       838
    40.0600       900
    40.0800       934
    40.1000       950
    40.1200       970
    40.1400      1056
    40.1600      1094
    40.1800      1108
    40.2000      1132
    40.2200      1134
    40.2400      1090
    40.2600      1052
    40.2800      1138
    40.3000      1032
    40.3200      1108
    40.3400      1132
    40.3600      1098
    40.3800      1188
    40.4000      1276
    40.4200      1296
    40.4400      1426
    40.4600      1480
    40.4800      1598
    40.5000      1694
    40.5200      1774
    40.5400      1802
    40.5600      1710
    40.5800      1796
    40.6000      1700
    40.6200      1660
    40.6400      1592
    40.6600      1508
    40.6800      1344
    40.7000      1334
    40.7200      1186
    40.7400      1130
    40.7600      1028
    40.7800       904
    40.8000       918
    40.8200       884
    40.8400       764
    40.8600       774
    40.8800       718
    40.9000       706
    40.9200       720
    40.9400       718
    40.9600       654
    40.9800       702
    41.0000       748
    41.0200       808
    41.0400       816
    41.0600       814
    41.0800       842
    41.1000       940
    41.1200       986
    41.1400      1096
    41.1600      1224
    41.1800      1428
    41.2000      1486
    41.2200      1578
    41.2400      1800
    41.2600      1896
    41.2800      1912
    41.3000      1968
    41.3200      2026
    41.3400      2068
    41.3600      2064
    41.3800      2126
    41.4000      2202
    41.4200      2322
    41.4400      2450
    41.4600      2500
    41.4800      2362
    41.5000      2324
    41.5200      2358
    41.5400      2156
    41.5600      2088
    41.5800      1944
    41.6000      1822
    41.6200      1656
    41.6400      1522
    41.6600      1414
    41.6800      1264
    41.7000      1136
    41.7200      1082
    41.7400      1032
    41.7600       958
    41.7800      1018
    41.8000      1040
    41.8200       978
    41.8400      1034
    41.8600      1064
    41.8800      1106
    41.9000      1084
    41.9200      1090
    41.9400      1112
    41.9600      1092
    41.9800      1058
    42.0000      1026
    42.0200      1024
    42.0400       962
    42.0600       852
    42.0800       796
    42.1000       740
    42.1200       742
    42.1400       724
    42.1600       608
    42.1800       620
    42.2000       572
    42.2200       532
    42.2400       496
    42.2600       482
    42.2800       454
    42.3000       454
    42.3200       452
    42.3400       444
    42.3600       444
    42.3800       478
    42.4000       402
    42.4200       444
    42.4400       404
    42.4600       412
    42.4800       444
    42.5000       390
    42.5200       398
    42.5400       406
    42.5600       424
    42.5800       386
    42.6000       372
    42.6200       382
    42.6400       372
    42.6600       418
    42.6800       410
    42.7000       368
    42.7200       408
    42.7400       420
    42.7600       398
    42.7800       430
    42.8000       412
    42.8200       398
    42.8400       436
    42.8600       404
    42.8800       470
    42.9000       438
    42.9200       464
    42.9400       494
    42.9600       472
    42.9800       474
    43.0000       522
    43.0200       582
    43.0400       588
    43.0600       646
    43.0800       682
    43.1000       744
    43.1200       802
    43.1400       824
    43.1600       836
    43.1800      1002
    43.2000      1010
    43.2200      1032
    43.2400      1088
    43.2600      1104
    43.2800      1042
    43.3000      1048
    43.3200      1028
    43.3400       950
    43.3600       884
    43.3800       860
    43.4000       798
    43.4200       714
    43.4400       666
    43.4600       574
    43.4800       616
    43.5000       514
    43.5200       536
    43.5400       554
    43.5600       452
    43.5800       480
    43.6000       444
    43.6200       444
    43.6400       448
    43.6600       442
    43.6800       442
    43.7000       468
    43.7200       416
    43.7400       466
    43.7600       498
    43.7800       496
    43.8000       520
    43.8200       540
    43.8400       580
    43.8600       548
    43.8800       528
    43.9000       508
    43.9200       538
    43.9400       478
    43.9600       478
    43.9800       514
    44.0000       520
    44.0200       484
    44.0400       500
    44.0600       458
    44.0800       446
    44.1000       518
    44.1200       464
    44.1400       458
    44.1600       468
    44.1800       492
    44.2000       530
    44.2200       472
    44.2400       496
    44.2600       508
    44.2800       566
    44.3000       520
    44.3200       510
    44.3400       540
    44.3600       534
    44.3800       526
    44.4000       520
    44.4200       536
    44.4400       512
    44.4600       510
    44.4800       506
    44.5000       490
    44.5200       516
    44.5400       538
    44.5600       510
    44.5800       506
    44.6000       526
    44.6200       592
    44.6400       546
    44.6600       580
    44.6800       602
    44.7000       648
    44.7200       680
    44.7400       686
    44.7600       738
    44.7800       728
    44.8000       808
    44.8200       812
    44.8400       922
    44.8600       934
    44.8800      1044
    44.9000      1168
    44.9200      1248
    44.9400      1336
    44.9600      1490
    44.9800      1734
    45.0000      1844
    45.0200      2024
    45.0400      2120
    45.0600      2300
    45.0800      2194
    45.1000      2286
    45.1200      2418
    45.1400      2444
    45.1600      2520
    45.1800      2672
    45.2000      2736
    45.2200      2772
    45.2400      2764
    45.2600      2666
    45.2800      2704
    45.3000      2548
    45.3200      2384
    45.3400      2258
    45.3600      2214
    45.3800      2166
    45.4000      2092
    45.4200      2088
    45.4400      1988
    45.4600      2020
    45.4800      1870
    45.5000      1830
    45.5200      1770
    45.5400      1666
    45.5600      1470
    45.5800      1394
    45.6000      1348
    45.6200      1240
    45.6400      1218
    45.6600      1008
    45.6800      1018
    45.7000       990
    45.7200       876
    45.7400       854
    45.7600       794
    45.7800       814
    45.8000       812
    45.8200       794
    45.8400       776
    45.8600       726
    45.8800       764
    45.9000       746
    45.9200       730
    45.9400       648
    45.9600       708
    45.9800       688
    46.0000       662
    46.0200       682
    46.0400       728
    46.0600       710
    46.0800       670
    46.1000       680
    46.1200       688
    46.1400       698
    46.1600       760
    46.1800       762
    46.2000       754
    46.2200       762
    46.2400       800
    46.2600       822
    46.2800       858
    46.3000       930
    46.3200       970
    46.3400      1058
    46.3600      1070
    46.3800      1240
    46.4000      1292
    46.4200      1392
    46.4400      1538
    46.4600      1652
    46.4800      1772
    46.5000      1946
    46.5200      2020
    46.5400      2120
    46.5600      2290
    46.5800      2552
    46.6000      2618
    46.6200      2868
    46.6400      3086
    46.6600      3310
    46.6800      3490
    46.7000      3874
    46.7200      3978
    46.7400      4062
    46.7600      4176
    46.7800      4058
    46.8000      4082
    46.8200      3748
    46.8400      3668
    46.8600      3398
    46.8800      3082
    46.9000      2866
    46.9200      2604
    46.9400      2426
    46.9600      2188
    46.9800      1986
    47.0000      1782
    47.0200      1580
    47.0400      1488
    47.0600      1248
    47.0800      1140
    47.1000      1096
    47.1200      1022
    47.1400       980
    47.1600       864
    47.1800       816
    47.2000       800
    47.2200       670
    47.2400       682
    47.2600       654
    47.2800       576
    47.3000       612
    47.3200       568
    47.3400       540
    47.3600       536
    47.3800       528
    47.4000       510
    47.4200       506
    47.4400       458
    47.4600       472
    47.4800       482
    47.5000       448
    47.5200       418
    47.5400       472
    47.5600       486
    47.5800       444
    47.6000       446
    47.6200       452
    47.6400       386
    47.6600       444
    47.6800       460
    47.7000       482
    47.7200       466
    47.7400       498
    47.7600       462
    47.7800       498
    47.8000       492
    47.8200       538
    47.8400       498
    47.8600       482
    47.8800       530
    47.9000       568
    47.9200       542
    47.9400       572
    47.9600       548
    47.9800       556
    48.0000       518
    48.0200       516
    48.0400       522
    48.0600       542
    48.0800       558
    48.1000       500
    48.1200       546
    48.1400       516
    48.1600       616
    48.1800       570
    48.2000       596
    48.2200       650
    48.2400       618
    48.2600       634
    48.2800       652
    48.3000       658
    48.3200       660
    48.3400       678
    48.3600       690
    48.3800       774
    48.4000       728
    48.4200       758
    48.4400       798
    48.4600       832
    48.4800       912
    48.5000       924
    48.5200      1022
    48.5400      1134
    48.5600      1162
    48.5800      1188
    48.6000      1192
    48.6200      1148
    48.6400      1198
    48.6600      1146
    48.6800      1110
    48.7000       954
    48.7200       944
    48.7400       910
    48.7600       842
    48.7800       840
    48.8000       754
    48.8200       648
    48.8400       616
    48.8600       530
    48.8800       562
    48.9000       480
    48.9200       436
    48.9400       452
    48.9600       420
    48.9800       412
    49.0000       368
    49.0200       402
    49.0400       378
    49.0600       388
    49.0800       374
    49.1000       332
    49.1200       322
    49.1400       366
    49.1600       328
    49.1800       326
    49.2000       316
    49.2200       310
    49.2400       310
    49.2600       338
    49.2800       334
    49.3000       318
    49.3200       318
    49.3400       312
    49.3600       332
    49.3800       328
    49.4000       306
    49.4200       322
    49.4400       320
    49.4600       314
    49.4800       306
    49.5000       338
    49.5200       338
    49.5400       318
    49.5600       330
    49.5800       320
    49.6000       344
    49.6200       320
    49.6400       320
    49.6600       364
    49.6800       360
    49.7000       358
    49.7200       366
    49.7400       336
    49.7600       384
    49.7800       336
    49.8000       390
    49.8200       396
    49.8400       388
    49.8600       410
    49.8800       392
    49.9000       464
    49.9200       430
    49.9400       436
    49.9600       472
    49.9800       464
    50.0000       530
    50.0200       538
    50.0400       542
    50.0600       600
    50.0800       554
    50.1000       636
    50.1200       684
    50.1400       792
    50.1600       794
    50.1800       904
    50.2000       942
    50.2200      1070
    50.2400      1154
    50.2600      1238
    50.2800      1244
    50.3000      1308
    50.3200      1318
    50.3400      1382
    50.3600      1268
    50.3800      1328
    50.4000      1266
    50.4200      1308
    50.4400      1246
    50.4600      1218
    50.4800      1250
    50.5000      1256
    50.5200      1220
    50.5400      1256
    50.5600      1268
    50.5800      1320
    50.6000      1466
    50.6200      1444
    50.6400      1646
    50.6600      1690
    50.6800      1902
    50.7000      2048
    50.7200      2210
    50.7400      2368
    50.7600      2578
    50.7800      2648
    50.8000      2688
    50.8200      2826
    50.8400      2650
    50.8600      2566
    50.8800      2534
    50.9000      2326
    50.9200      2282
    50.9400      2146
    50.9600      1982
    50.9800      1906
    51.0000      1636
    51.0200      1508
    51.0400      1392
    51.0600      1278
    51.0800      1158
    51.1000      1168
    51.1200      1066
    51.1400      1004
    51.1600       950
    51.1800       910
    51.2000       904
    51.2200       822
    51.2400       846
    51.2600       848
    51.2800       762
    51.3000       760
    51.3200       756
    51.3400       782
    51.3600       746
    51.3800       780
    51.4000       762
    51.4200       760
    51.4400       708
    51.4600       772
    51.4800       766
    51.5000       776
    51.5200       792
    51.5400       800
    51.5600       798
    51.5800       848
    51.6000       886
    51.6200       942
    51.6400       964
    51.6600       980
    51.6800      1074
    51.7000      1094
    51.7200      1142
    51.7400      1250
    51.7600      1338
    51.7800      1472
    51.8000      1584
    51.8200      1746
    51.8400      1898
    51.8600      1958
    51.8800      2114
    51.9000      2232
    51.9200      2468
    51.9400      2548
    51.9600      2532
    51.9800      2562
    52.0000      2464
    52.0200      2350
    52.0400      2286
    52.0600      2178
    52.0800      2070
    52.1000      1958
    52.1200      1776
    52.1400      1650
    52.1600      1564
    52.1800      1340
    52.2000      1306
    52.2200      1118
    52.2400       966
    52.2600       908
    52.2800       924
    52.3000       820
    52.3200       768
    52.3400       806
    52.3600       738
    52.3800       788
    52.4000       772
    52.4200       728
    52.4400       748
    52.4600       734
    52.4800       756
    52.5000       786
    52.5200       806
    52.5400       812
    52.5600       834
    52.5800       918
    52.6000       898
    52.6200      1018
    52.6400       996
    52.6600      1040
    52.6800      1124
    52.7000      1120
    52.7200      1118
    52.7400      1118
    52.7600      1082
    52.7800      1168
    52.8000      1158
    52.8200      1066
    52.8400      1082
    52.8600      1008
    52.8800      1006
    52.9000       980
    52.9200       940
    52.9400       826
    52.9600       872
    52.9800       782
    53.0000       756
    53.0200       704
    53.0400       736
    53.0600       702
    53.0800       762
    53.1000       788
    53.1200       712
    53.1400       730
    53.1600       768
    53.1800       790
    53.2000       778
    53.2200       830
    53.2400       846
    53.2600       938
    53.2800       918
    53.3000       916
    53.3200       858
    53.3400       926
    53.3600       890
    53.3800       898
    53.4000       870
    53.4200       878
    53.4400       872
    53.4600       766
    53.4800       826
    53.5000       812
    53.5200       742
    53.5400       736
    53.5600       784
    53.5800       750
    53.6000       670
    53.6200       692
    53.6400       630
    53.6600       702
    53.6800       682
    53.7000       634
    53.7200       618
    53.7400       636
    53.7600       570
    53.7800       584
    53.8000       582
    53.8200       542
    53.8400       548
    53.8600       588
    53.8800       526
    53.9000       536
    53.9200       528
    53.9400       504
    53.9600       508
    53.9800       552
    54.0000       502
    54.0200       490
    54.0400       490
    54.0600       562
    54.0800       538
    54.1000       568
    54.1200       620
    54.1400       622
    54.1600       710
    54.1800       676
    54.2000       696
    54.2200       734
    54.2400       774
    54.2600       788
    54.2800       836
    54.3000       794
    54.3200       798
    54.3400       844
    54.3600       882
    54.3800       886
    54.4000       952
    54.4200       982
    54.4400      1014
    54.4600      1050
    54.4800      1042
    54.5000       978
    54.5200       968
    54.5400       952
    54.5600       886
    54.5800       850
    54.6000       872
    54.6200       802
    54.6400       832
    54.6600       778
    54.6800       814
    54.7000       786
    54.7200       686
    54.7400       758
    54.7600       732
    54.7800       664
    54.8000       698
    54.8200       682
    54.8400       736
    54.8600       730
    54.8800       708
    54.9000       804
    54.9200       706
    54.9400       756
    54.9600       754
    54.9800       846
    55.0000       846
    55.0200       856
    55.0400       894
    55.0600       934
    55.0800       978
    55.1000      1000
    55.1200      1034
    55.1400      1132
    55.1600      1038
    55.1800      1112
    55.2000      1104
    55.2200      1156
    55.2400      1088
    55.2600      1038
    55.2800      1074
    55.3000       958
    55.3200      1018
    55.3400       946
    55.3600       866
    55.3800       884
    55.4000       810
    55.4200       754
    55.4400       736
    55.4600       670
    55.4800       692
    55.5000       600
    55.5200       586
    55.5400       556
    55.5600       566
    55.5800       538
    55.6000       506
    55.6200       468
    55.6400       484
    55.6600       460
    55.6800       422
    55.7000       446
    55.7200       434
    55.7400       416
    55.7600       410
    55.7800       400
    55.8000       414
    55.8200       410
    55.8400       368
    55.8600       402
    55.8800       362
    55.9000       364
    55.9200       372
    55.9400       376
    55.9600       382
    55.9800       384
    56.0000       328
    56.0200       322
    56.0400       338
    56.0600       350
    56.0800       350
    56.1000       340
    56.1200       338
    56.1400       358
    56.1600       364
    56.1800       412
    56.2000       334
    56.2200       346
    56.2400       388
    56.2600       360
    56.2800       348
    56.3000       388
    56.3200       416
    56.3400       384
    56.3600       396
    56.3800       398
    56.4000       420
    56.4200       402
    56.4400       392
    56.4600       418
    56.4800       384
    56.5000       456
    56.5200       454
    56.5400       468
    56.5600       508
    56.5800       524
    56.6000       562
    56.6200       602
    56.6400       696
    56.6600       698
    56.6800       704
    56.7000       746
    56.7200       790
    56.7400       828
    56.7600       800
    56.7800       818
    56.8000       834
    56.8200       816
    56.8400       728
    56.8600       752
    56.8800       794
    56.9000       688
    56.9200       672
    56.9400       642
    56.9600       656
    56.9800       650
    57.0000       586
    57.0200       576
    57.0400       578
    57.0600       552
    57.0800       584
    57.1000       524
    57.1200       536
    57.1400       478
    57.1600       558
    57.1800       558
    57.2000       560
    57.2200       490
    57.2400       588
    57.2600       606
    57.2800       654
    57.3000       684
    57.3200       666
    57.3400       752
    57.3600       796
    57.3800       744
    57.4000       856
    57.4200       898
    57.4400       848
    57.4600       868
    57.4800       860
    57.5000       820
    57.5200       836
    57.5400       812
    57.5600       786
    57.5800       784
    57.6000       852
    57.6200       774
    57.6400       794
    57.6600       826
    57.6800       826
    57.7000       784
    57.7200       850
    57.7400       840
    57.7600       838
    57.7800       808
    57.8000       872
    57.8200       882
    57.8400       846
    57.8600       786
    57.8800       870
    57.9000       772
    57.9200       794
    57.9400       764
    57.9600       742
    57.9800       710
    58.0000       688
    58.0200       710
    58.0400       720
    58.0600       634
    58.0800       612
    58.1000       620
    58.1200       642
    58.1400       634
    58.1600       640
    58.1800       612
    58.2000       636
    58.2200       612
    58.2400       704
    58.2600       664
    58.2800       698
    58.3000       682
    58.3200       734
    58.3400       808
    58.3600       768
    58.3800       840
    58.4000       866
    58.4200       892
    58.4400       906
    58.4600       940
    58.4800      1008
    58.5000       966
    58.5200      1068
    58.5400      1078
    58.5600      1192
    58.5800      1278
    58.6000      1280
    58.6200      1300
    58.6400      1452
    58.6600      1436
    58.6800      1496
    58.7000      1568
    58.7200      1552
    58.7400      1626
    58.7600      1660
    58.7800      1626
    58.8000      1692
    58.8200      1696
    58.8400      1612
    58.8600      1598
    58.8800      1542
    58.9000      1524
    58.9200      1474
    58.9400      1394
    58.9600      1410
    58.9800      1378
    59.0000      1268
    59.0200      1268
    59.0400      1166
    59.0600      1166
    59.0800      1142
    59.1000      1158
    59.1200      1122
    59.1400      1152
    59.1600      1154
    59.1800      1182
    59.2000      1208
    59.2200      1254
    59.2400      1282
    59.2600      1362
    59.2800      1408
    59.3000      1524
    59.3200      1652
    59.3400      1780
    59.3600      1874
    59.3800      2054
    59.4000      2044
    59.4200      2200
    59.4400      2286
    59.4600      2212
    59.4800      2294
    59.5000      2152
    59.5200      2156
    59.5400      2146
    59.5600      1986
    59.5800      1880
    59.6000      1796
    59.6200      1782
    59.6400      1702
    59.6600      1586
    59.6800      1516
    59.7000      1448
    59.7200      1360
    59.7400      1284
    59.7600      1322
    59.7800      1188
    59.8000      1152
    59.8200      1096
    59.8400      1030
    59.8600       996
    59.8800       940
    59.9000       890
    59.9200       800
    59.9400       816
    59.9600       752
    59.9800       784
    60.0000       736
    60.0200       640
    60.0400       618
    60.0600       600
    60.0800       608
    60.1000       550
    60.1200       536
    60.1400       508
    60.1600       530
    60.1800       486
    60.2000       440
    60.2200       482
    60.2400       458
    60.2600       478
    60.2800       440
    60.3000       440
    60.3200       414
    60.3400       396
    60.3600       390
    60.3800       424
    60.4000       406
    60.4200       404
    60.4400       380
    60.4600       376
    60.4800       406
    60.5000       416
    60.5200       406
    60.5400       368
    60.5600       384
    60.5800       386
    60.6000       420
    60.6200       382
    60.6400       414
    60.6600       414
    60.6800       404
    60.7000       358
    60.7200       438
    60.7400       380
    60.7600       430
    60.7800       428
    60.8000       418
    60.8200       376
    60.8400       412
    60.8600       424
    60.8800       430
    60.9000       422
    60.9200       502
    60.9400       494
    60.9600       488
    60.9800       538
    61.0000       506
    61.0200       562
    61.0400       568
    61.0600       590
    61.0800       618
    61.1000       638
    61.1200       692
    61.1400       748
    61.1600       718
    61.1800       774
    61.2000       850
    61.2200       856
    61.2400       874
    61.2600       916
    61.2800       894
    61.3000       972
    61.3200      1052
    61.3400      1078
    61.3600      1124
    61.3800      1198
    61.4000      1276
    61.4200      1306
    61.4400      1400
    61.4600      1510
    61.4800      1632
    61.5000      1664
    61.5200      1686
    61.5400      1776
    61.5600      1794
    61.5800      1806
    61.6000      1780
    61.6200      1758
    61.6400      1706
    61.6600      1620
    61.6800      1612
    61.7000      1496
    61.7200      1442
    61.7400      1404
    61.7600      1296
    61.7800      1206
    61.8000      1212
    61.8200      1022
    61.8400      1000
    61.8600       874
    61.8800       844
    61.9000       776
    61.9200       754
    61.9400       672
    61.9600       688
    61.9800       670
    62.0000       656
    62.0200       626
    62.0400       568
    62.0600       582
    62.0800       574
    62.1000       560
    62.1200       502
    62.1400       522
    62.1600       560
    62.1800       506
    62.2000       518
    62.2200       480
    62.2400       536
    62.2600       474
    62.2800       478
    62.3000       468
    62.3200       466
    62.3400       434
    62.3600       442
    62.3800       406
    62.4000       456
    62.4200       434
    62.4400       404
    62.4600       396
    62.4800       426
    62.5000       414
    62.5200       400
    62.5400       432
    62.5600       390
    62.5800       424
    62.6000       422
    62.6200       396
    62.6400       446
    62.6600       432
    62.6800       394
    62.7000       430
    62.7200       390
    62.7400       418
    62.7600       406
    62.7800       390
    62.8000       374
    62.8200       386
    62.8400       372
    62.8600       384
    62.8800       372
    62.9000       370
    62.9200       352
    62.9400       376
    62.9600       324
    62.9800       322
    63.0000       322
    63.0200       322
    63.0400       322
    63.0600       284
    63.0800       266
    63.1000       294
    63.1200       288
    63.1400       300
    63.1600       260
    63.1800       298
    63.2000       280
    63.2200       284
    63.2400       302
    63.2600       304
    63.2800       286
    63.3000       292
    63.3200       316
    63.3400       330
    63.3600       334
    63.3800       314
    63.4000       306
    63.4200       318
    63.4400       318
    63.4600       366
    63.4800       352
    63.5000       358
    63.5200       388
    63.5400       404
    63.5600       396
    63.5800       448
    63.6000       428
    63.6200       406
    63.6400       482
    63.6600       462
    63.6800       514
    63.7000       592
    63.7200       600
    63.7400       626
    63.7600       674
    63.7800       742
    63.8000       828
    63.8200       838
    63.8400       876
    63.8600       976
    63.8800       932
    63.9000       948
    63.9200       940
    63.9400       910
    63.9600       938
    63.9800       862
    64.0000       862
    64.0200       800
    64.0400       832
    64.0600       808
    64.0800       710
    64.1000       712
    64.1200       706
    64.1400       666
    64.1600       606
    64.1800       578
    64.2000       538
    64.2200       496
    64.2400       482
    64.2600       450
    64.2800       432
    64.3000       420
    64.3200       422
    64.3400       376
    64.3600       374
    64.3800       404
    64.4000       342
    64.4200       350
    64.4400       298
    64.4600       342
    64.4800       336
    64.5000       300
    64.5200       304
    64.5400       310
    64.5600       306
    64.5800       280
    64.6000       294
    64.6200       292
    64.6400       288
    64.6600       312
    64.6800       302
    64.7000       294
    64.7200       330
    64.7400       294
    64.7600       322
    64.7800       322
    64.8000       302
    64.8200       270
    64.8400       290
    64.8600       282
    64.8800       296
    64.9000       300
    64.9200       330
    64.9400       332
    64.9600       312
    64.9800       308
    65.0000       336
    65.0200       370
    65.0400       372
    65.0600       374
    65.0800       372
    65.1000       410
    65.1200       334
    65.1400       384
    65.1600       384
    65.1800       390
    65.2000       360
    65.2200       386
    65.2400       402
    65.2600       434
    65.2800       360
    65.3000       398
    65.3200       432
    65.3400       418
    65.3600       412
    65.3800       410
    65.4000       416
    65.4200       372
    65.4400       452
    65.4600       402
    65.4800       398
    65.5000       388
    65.5200       426
    65.5400       440
    65.5600       448
    65.5800       486
    65.6000       432
    65.6200       442
    65.6400       414
    65.6600       454
    65.6800       418
    65.7000       410
    65.7200       418
    65.7400       406
    65.7600       376
    65.7800       348
    65.8000       384
    65.8200       364
    65.8400       358
    65.8600       338
    65.8800       332
    65.9000       342
    65.9200       344
    65.9400       300
    65.9600       340
    65.9800       306
    66.0000       314
    66.0200       262
    66.0400       302
    66.0600       306
    66.0800       304
    66.1000       312
    66.1200       290
    66.1400       326
    66.1600       284
    66.1800       298
    66.2000       344
    66.2200       294
    66.2400       288
    66.2600       336
    66.2800       346
    66.3000       348
    66.3200       338
    66.3400       344
    66.3600       370
    66.3800       318
    66.4000       376
    66.4200       370
    66.4400       408
    66.4600       390
    66.4800       412
    66.5000       428
    66.5200       416
    66.5400       416
    66.5600       448
    66.5800       446
    66.6000       484
    66.6200       498
    66.6400       480
    66.6600       468
    66.6800       524
    66.7000       526
    66.7200       492
    66.7400       602
    66.7600       618
    66.7800       646
    66.8000       658
    66.8200       692
    66.8400       738
    66.8600       766
    66.8800       808
    66.9000       760
    66.9200       784
    66.9400       828
    66.9600       858
    66.9800       868
    67.0000       828
    67.0200       786
    67.0400       770
    67.0600       788
    67.0800       892
    67.1000       788
    67.1200       734
    67.1400       728
    67.1600       712
    67.1800       694
    67.2000       618
    67.2200       584
    67.2400       600
    67.2600       580
    67.2800       576
    67.3000       544
    67.3200       486
    67.3400       476
    67.3600       446
    67.3800       466
    67.4000       444
    67.4200       440
    67.4400       396
    67.4600       398
    67.4800       390
    67.5000       408
    67.5200       386
    67.5400       346
    67.5600       394
    67.5800       368
    67.6000       364
    67.6200       354
    67.6400       384
    67.6600       340
    67.6800       334
    67.7000       326
    67.7200       362
    67.7400       358
    67.7600       340
    67.7800       354
    67.8000       390
    67.8200       382
    67.8400       380
    67.8600       406
    67.8800       406
    67.9000       410
    67.9200       388
    67.9400       422
    67.9600       412
    67.9800       426
    68.0000       412
    68.0200       440
    68.0400       446
    68.0600       508
    68.0800       480
    68.1000       536
    68.1200       558
    68.1400       604
    68.1600       626
    68.1800       658
    68.2000       660
    68.2200       648
    68.2400       634
    68.2600       668
    68.2800       708
    68.3000       666
    68.3200       748
    68.3400       726
    68.3600       692
    68.3800       748
    68.4000       698
    68.4200       686
    68.4400       720
    68.4600       676
    68.4800       690
    68.5000       666
    68.5200       606
    68.5400       636
    68.5600       586
    68.5800       620
    68.6000       608
    68.6200       548
    68.6400       534
    68.6600       548
    68.6800       490
    68.7000       486
    68.7200       450
    68.7400       388
    68.7600       416
    68.7800       422
    68.8000       418
    68.8200       408
    68.8400       428
    68.8600       410
    68.8800       368
    68.9000       380
    68.9200       356
    68.9400       396
    68.9600       374
    68.9800       386
    69.0000       410
    69.0200       366
    69.0400       410
    69.0600       408
    69.0800       440
    69.1000       410
    69.1200       406
    69.1400       412
    69.1600       434
    69.1800       452
    69.2000       448
    69.2200       432
    69.2400       456
    69.2600       392
    69.2800       436
    69.3000       406
    69.3200       406
    69.3400       454
    69.3600       416
    69.3800       402
    69.4000       388
    69.4200       406
    69.4400       436
    69.4600       460
    69.4800       468
    69.5000       450
    69.5200       458
    69.5400       442
    69.5600       444
    69.5800       400
    69.6000       432
    69.6200       428
    69.6400       466
    69.6600       458
    69.6800       470
    69.7000       444
    69.7200       424
    69.7400       494
    69.7600       492
    69.7800       526
    69.8000       478
    69.8200       508
    69.8400       518
    69.8600       498
    69.8800       516
    69.9000       532
    69.9200       500
    69.9400       518
    69.9600       460
    69.9800       490
    70.0000       480
    70.0200       470
    70.0400       428
    70.0600       462
    70.0800       450
    70.1000       380
    70.1200       392
    70.1400       430
    70.1600       346
    70.1800       384
    70.2000       336
    70.2200       358
    70.2400       288
    70.2600       326
    70.2800       296
    70.3000       280
    70.3200       276
    70.3400       260
    70.3600       276
    70.3800       256
    70.4000       248
    70.4200       284
    70.4400       252
    70.4600       246
    70.4800       286
    70.5000       304
    70.5200       236
    70.5400       246
    70.5600       264
    70.5800       262
    70.6000       234
    70.6200       262
    70.6400       282
    70.6600       252
    70.6800       280
    70.7000       236
    70.7200       258
    70.7400       222
    70.7600       238
    70.7800       236
    70.8000       252
    70.8200       228
    70.8400       226
    70.8600       256
    70.8800       212
    70.9000       230
    70.9200       224
    70.9400       212
    70.9600       244
    70.9800       220
    71.0000       216
    71.0200       194
    71.0400       222
    71.0600       236
    71.0800       254
    71.1000       228
    71.1200       222
    71.1400       224
    71.1600       218
    71.1800       234
    71.2000       232
    71.2200       262
    71.2400       242
    71.2600       232
    71.2800       258
    71.3000       290
    71.3200       260
    71.3400       258
    71.3600       280
    71.3800       320
    71.4000       334
    71.4200       324
    71.4400       364
    71.4600       376
    71.4800       382
    71.5000       374
    71.5200       386
    71.5400       410
    71.5600       428
    71.5800       386
    71.6000       394
    71.6200       438
    71.6400       386
    71.6600       378
    71.6800       440
    71.7000       424
    71.7200       418
    71.7400       428
    71.7600       416
    71.7800       392
    71.8000       406
    71.8200       354
    71.8400       368
    71.8600       406
    71.8800       356
    71.9000       388
    71.9200       372
    71.9400       368
    71.9600       386
    71.9800       342
    72.0000       348
    72.0200       324
    72.0400       350
    72.0600       318
    72.0800       332
    72.1000       350
    72.1200       378
    72.1400       414
    72.1600       360
    72.1800       398
    72.2000       376
    72.2200       380
    72.2400       362
    72.2600       394
    72.2800       390
    72.3000       408
    72.3200       426
    72.3400       450
    72.3600       430
    72.3800       454
    72.4000       466
    72.4200       510
    72.4400       496
    72.4600       510
    72.4800       488
    72.5000       516
    72.5200       572
    72.5400       542
    72.5600       552
    72.5800       562
    72.6000       580
    72.6200       586
    72.6400       620
    72.6600       640
    72.6800       586
    72.7000       688
    72.7200       692
    72.7400       678
    72.7600       738
    72.7800       696
    72.8000       672
    72.8200       676
    72.8400       700
    72.8600       672
    72.8800       632
    72.9000       632
    72.9200       612
    72.9400       640
    72.9600       618
    72.9800       598
    73.0000       570
    73.0200       588
    73.0400       548
    73.0600       542
    73.0800       468
    73.1000       458
    73.1200       470
    73.1400       420
    73.1600       428
    73.1800       416
    73.2000       398
    73.2200       376
    73.2400       374
    73.2600       356
    73.2800       322
    73.3000       304
    73.3200       372
    73.3400       298
    73.3600       276
    73.3800       304
    73.4000       246
    73.4200       282
    73.4400       270
    73.4600       274
    73.4800       260
    73.5000       266
    73.5200       264
    73.5400       228
    73.5600       256
    73.5800       234
    73.6000       240
    73.6200       252
    73.6400       226
    73.6600       252
    73.6800       260
    73.7000       278
    73.7200       268
    73.7400       230
    73.7600       252
    73.7800       246
    73.8000       258
    73.8200       260
    73.8400       284
    73.8600       226
    73.8800       258
    73.9000       296
    73.9200       266
    73.9400       270
    73.9600       268
    73.9800       256
    74.0000       294
    74.0200       242
    74.0400       252
    74.0600       262
    74.0800       256
    74.1000       266
    74.1200       282
    74.1400       278
    74.1600       240
    74.1800       230
    74.2000       260
    74.2200       222
    74.2400       262
    74.2600       250
    74.2800       268
    74.3000       264
    74.3200       240
    74.3400       256
    74.3600       232
    74.3800       230
    74.4000       226
    74.4200       236
    74.4400       232
    74.4600       234
    74.4800       216
    74.5000       214
    74.5200       226
    74.5400       218
    74.5600       208
    74.5800       208
    74.6000       200
    74.6200       168
    74.6400       204
    74.6600       208
    74.6800       200
    74.7000       190
    74.7200       158
    74.7400       220
    74.7600       228
    74.7800       232
    74.8000       214
    74.8200       236
    74.8400       226
    74.8600       216
    74.8800       222
    74.9000       170
    74.9200       200
    74.9400       188
    74.9600       186
    74.9800       210
    75.0000       218
    75.0200       218
    75.0400       230
    75.0600       210
    75.0800       226
    75.1000       214
    75.1200       224
    75.1400       244
    75.1600       254
    75.1800       220
    75.2000       222
    75.2200       234
    75.2400       244
    75.2600       274
    75.2800       254
    75.3000       254
    75.3200       266
    75.3400       264
    75.3600       274
    75.3800       264
    75.4000       262
    75.4200       258
    75.4400       280
    75.4600       266
    75.4800       256
    75.5000       260
    75.5200       248
    75.5400       292
    75.5600       252
    75.5800       280
    75.6000       328
    75.6200       300
    75.6400       280
    75.6600       294
    75.6800       266
    75.7000       328
    75.7200       290
    75.7400       308
    75.7600       350
    75.7800       310
    75.8000       286
    75.8200       302
    75.8400       324
    75.8600       298
    75.8800       320
    75.9000       304
    75.9200       320
    75.9400       290
    75.9600       292
    75.9800       288
    76.0000       310
    76.0200       300
    76.0400       296
    76.0600       270
    76.0800       286
    76.1000       264
    76.1200       296
    76.1400       288
    76.1600       316
    76.1800       296
    76.2000       292
    76.2200       278
    76.2400       290
    76.2600       296
    76.2800       292
    76.3000       308
    76.3200       280
    76.3400       312
    76.3600       316
    76.3800       328
    76.4000       366
    76.4200       342
    76.4400       372
    76.4600       334
    76.4800       354
    76.5000       358
    76.5200       398
    76.5400       410
    76.5600       408
    76.5800       396
    76.6000       382
    76.6200       396
    76.6400       384
    76.6600       410
    76.6800       384
    76.7000       392
    76.7200       396
    76.7400       428
    76.7600       368
    76.7800       402
    76.8000       348
    76.8200       370
    76.8400       390
    76.8600       334
    76.8800       342
    76.9000       368
    76.9200       342
    76.9400       354
    76.9600       348
    76.9800       318
    77.0000       350
    77.0200       346
    77.0400       312
    77.0600       318
    77.0800       326
    77.1000       350
    77.1200       352
    77.1400       342
    77.1600       352
    77.1800       338
    77.2000       356
    77.2200       380
    77.2400       356
    77.2600       326
    77.2800       376
    77.3000       372
    77.3200       350
    77.3400       380
    77.3600       364
    77.3800       364
    77.4000       388
    77.4200       396
    77.4400       384
    77.4600       388
    77.4800       384
    77.5000       444
    77.5200       412
    77.5400       426
    77.5600       372
    77.5800       442
    77.6000       454
    77.6200       438
    77.6400       414
    77.6600       456
    77.6800       502
    77.7000       490
    77.7200       458
    77.7400       508
    77.7600       494
    77.7800       492
    77.8000       542
    77.8200       512
    77.8400       522
    77.8600       500
    77.8800       506
    77.9000       504
    77.9200       482
    77.9400       492
    77.9600       452
    77.9800       472
    78.0000       466
    78.0200       408
    78.0400       408
    78.0600       418
    78.0800       410
    78.1000       422
    78.1200       380
    78.1400       364
    78.1600       360
    78.1800       332
    78.2000       376
    78.2200       350
    78.2400       358
    78.2600       334
    78.2800       350
    78.3000       312
    78.3200       370
    78.3400       338
    78.3600       340
    78.3800       318
    78.4000       322
    78.4200       334
    78.4400       312
    78.4600       334
    78.4800       312
    78.5000       362
    78.5200       370
    78.5400       358
    78.5600       358
    78.5800       388
    78.6000       364
    78.6200       396
    78.6400       380
    78.6600       404
    78.6800       374
    78.7000       406
    78.7200       390
    78.7400       388
    78.7600       402
    78.7800       420
    78.8000       362
    78.8200       376
    78.8400       350
    78.8600       384
    78.8800       350
    78.9000       366
    78.9200       356
    78.9400       332
    78.9600       386
    78.9800       368
    79.0000       304
    79.0200       334
    79.0400       298
    79.0600       342
    79.0800       320
    79.1000       322
    79.1200       296
    79.1400       324
    79.1600       268
    79.1800       300
    79.2000       278
    79.2200       308
    79.2400       292
    79.2600       302
    79.2800       288
    79.3000       264
    79.3200       258
    79.3400       272
    79.3600       254
    79.3800       306
    79.4000       264
    79.4200       236
    79.4400       242
    79.4600       246
    79.4800       276
    79.5000       246
    79.5200       264
    79.5400       266
    79.5600       208
    79.5800       244
    79.6000       242
    79.6200       202
    79.6400       232
    79.6600       248
    79.6800       238
    79.7000       244
    79.7200       242
    79.7400       260
    79.7600       246
    79.7800       242
    79.8000       230
    79.8200       240
    79.8400       250
    79.8600       242
    79.8800       228
    79.9000       240
    79.9200       250
    79.9400       256
    79.9600       260
    79.9800       216
    80.0000       234
    80.0200       234
    80.0400       234
    80.0600       242
    80.0800       264
    80.1000       260
    80.1200       252
    80.1400       244
    80.1600       284
    80.1800       272
    80.2000       264
    80.2200       254
    80.2400       254
    80.2600       228
    80.2800       258
    80.3000       238
    80.3200       262
    80.3400       292
    80.3600       288
    80.3800       244
    80.4000       264
    80.4200       274
    80.4400       288
    80.4600       282
    80.4800       294
    80.5000       298
    80.5200       306
    80.5400       274
    80.5600       268
    80.5800       250
    80.6000       272
    80.6200       260
    80.6400       274
    80.6600       264
    80.6800       254
    80.7000       252
    80.7200       266
    80.7400       278
    80.7600       228
    80.7800       256
    80.8000       270
    80.8200       270
    80.8400       240
    80.8600       264
    80.8800       272
    80.9000       220
    80.9200       216
    80.9400       228
    80.9600       224
    80.9800       220
    81.0000       234
    81.0200       226
    81.0400       202
    81.0600       216
    81.0800       200
    81.1000       216
    81.1200       208
    81.1400       222
    81.1600       216
    81.1800       204
    81.2000       208
    81.2200       226
    81.2400       234
    81.2600       196
    81.2800       250
    81.3000       226
    81.3200       232
    81.3400       230
    81.3600       232
    81.3800       248
    81.4000       244
    81.4200       242
    81.4400       236
    81.4600       242
    81.4800       234
    81.5000       230
    81.5200       262
    81.5400       236
    81.5600       234
    81.5800       246
    81.6000       270
    81.6200       252
    81.6400       254
    81.6600       274
    81.6800       280
    81.7000       280
    81.7200       310
    81.7400       300
    81.7600       262
    81.7800       254
    81.8000       284
    81.8200       340
    81.8400       308
    81.8600       302
    81.8800       328
    81.9000       322
    81.9200       302
    81.9400       308
    81.9600       328
    81.9800       338
    82.0000       324
    82.0200       318
    82.0400       358
    82.0600       338
    82.0800       332
    82.1000       326
    82.1200       336
    82.1400       322
    82.1600       394
    82.1800       366
    82.2000       352
    82.2200       386
    82.2400       398
    82.2600       368
    82.2800       386
    82.3000       372
    82.3200       338
    82.3400       394
    82.3600       414
    82.3800       412
    82.4000       428
    82.4200       464
    82.4400       412
    82.4600       480
    82.4800       492
    82.5000       442
    82.5200       468
    82.5400       476
    82.5600       536
    82.5800       468
    82.6000       540
    82.6200       534
    82.6400       536
    82.6600       596
    82.6800       614
    82.7000       666
    82.7200       724
    82.7400       730
    82.7600       734
    82.7800       780
    82.8000       776
    82.8200       824
    82.8400       834
    82.8600       836
    82.8800       884
    82.9000       896
    82.9200       874
    82.9400       884
    82.9600       814
    82.9800       820
    83.0000       838
    83.0200       808
    83.0400       798
    83.0600       822
    83.0800       742
    83.1000       726
    83.1200       772
    83.1400       708
    83.1600       744
    83.1800       678
    83.2000       620
    83.2200       652
    83.2400       610
    83.2600       598
    83.2800       534
    83.3000       592
    83.3200       514
    83.3400       494
    83.3600       480
    83.3800       496
    83.4000       464
    83.4200       432
    83.4400       406
    83.4600       394
    83.4800       416
    83.5000       404
    83.5200       410
    83.5400       374
    83.5600       370
    83.5800       386
    83.6000       362
    83.6200       352
    83.6400       354
    83.6600       340
    83.6800       314
    83.7000       300
    83.7200       312
    83.7400       302
    83.7600       282
    83.7800       300
    83.8000       302
    83.8200       312
    83.8400       298
    83.8600       332
    83.8800       278
    83.9000       314
    83.9200       330
    83.9400       310
    83.9600       302
    83.9800       298
    84.0000       332
    84.0200       300
    84.0400       324
    84.0600       330
    84.0800       324
    84.1000       320
    84.1200       348
    84.1400       318
    84.1600       318
    84.1800       344
    84.2000       306
    84.2200       328
    84.2400       302
    84.2600       362
    84.2800       360
    84.3000       330
    84.3200       348
    84.3400       310
    84.3600       368
    84.3800       328
    84.4000       332
    84.4200       344
    84.4400       322
    84.4600       366
    84.4800       342
    84.5000       336
    84.5200       328
    84.5400       304
    84.5600       328
    84.5800       306
    84.6000       328
    84.6200       308
    84.6400       292
    84.6600       320
    84.6800       316
    84.7000       324
    84.7200       308
    84.7400       324
    84.7600       324
    84.7800       312
    84.8000       316
    84.8200       320
    84.8400       348
    84.8600       286
    84.8800       324
    84.9000       308
    84.9200       268
    84.9400       286
    84.9600       288
    84.9800       268
    85.0000       296
    85.0200       300
    85.0400       272
    85.0600       270
    85.0800       308
    85.1000       258
    85.1200       292
    85.1400       298
    85.1600       278
    85.1800       278
    85.2000       242
    85.2200       276
    85.2400       246
    85.2600       260
    85.2800       294
    85.3000       260
    85.3200       260
    85.3400       250
    85.3600       232
    85.3800       278
    85.4000       230
    85.4200       282
    85.4400       278
    85.4600       290
    85.4800       258
    85.5000       270
    85.5200       270
    85.5400       280
    85.5600       300
    85.5800       284
    85.6000       266
    85.6200       276
    85.6400       270
    85.6600       276
    85.6800       258
    85.7000       274
    85.7200       294
    85.7400       278
    85.7600       268
    85.7800       302
    85.8000       288
    85.8200       276
    85.8400       246
    85.8600       308
    85.8800       272
    85.9000       298
    85.9200       256
    85.9400       256
    85.9600       246
    85.9800       258
    86.0000       286
    86.0200       258
    86.0400       278
    86.0600       276
    86.0800       264
    86.1000       256
    86.1200       252
    86.1400       284
    86.1600       266
    86.1800       250
    86.2000       252
    86.2200       286
    86.2400       276
    86.2600       256
    86.2800       280
    86.3000       282
    86.3200       278
    86.3400       254
    86.3600       260
    86.3800       266
    86.4000       270
    86.4200       288
    86.4400       268
    86.4600       270
    86.4800       284
    86.5000       268
    86.5200       286
    86.5400       268
    86.5600       316
    86.5800       314
    86.6000       320
    86.6200       326
    86.6400       304
    86.6600       310
    86.6800       332
    86.7000       326
    86.7200       352
    86.7400       368
    86.7600       370
    86.7800       372
    86.8000       404
    86.8200       350
    86.8400       376
    86.8600       360
    86.8800       372
    86.9000       394
    86.9200       432
    86.9400       376
    86.9600       440
    86.9800       402
    87.0000       418
    87.0200       402
    87.0400       384
    87.0600       412
    87.0800       402
    87.1000       380
    87.1200       352
    87.1400       410
    87.1600       398
    87.1800       334
    87.2000       372
    87.2200       340
    87.2400       376
    87.2600       362
    87.2800       362
    87.3000       366
    87.3200       408
    87.3400       308
    87.3600       340
    87.3800       380
    87.4000       312
    87.4200       328
    87.4400       412
    87.4600       376
    87.4800       360
    87.5000       360
    87.5200       396
    87.5400       378
    87.5600       384
    87.5800       376
    87.6000       388
    87.6200       420
    87.6400       422
    87.6600       392
    87.6800       448
    87.7000       416
    87.7200       408
    87.7400       416
    87.7600       420
    87.7800       412
    87.8000       454
    87.8200       444
    87.8400       428
    87.8600       420
    87.8800       436
    87.9000       366
    87.9200       454
    87.9400       408
    87.9600       410
    87.9800       400
    88.0000       382
    88.0200       398
    88.0400       426
    88.0600       428
    88.0800       406
    88.1000       400
    88.1200       378
    88.1400       398
    88.1600       430
    88.1800       386
    88.2000       390
    88.2200       364
    88.2400       392
    88.2600       406
    88.2800       402
    88.3000       424
    88.3200       398
    88.3400       420
    88.3600       386
    88.3800       398
    88.4000       410
    88.4200       404
    88.4400       388
    88.4600       378
    88.4800       362
    88.5000       358
    88.5200       338
    88.5400       342
    88.5600       354
    88.5800       346
    88.6000       322
    88.6200       336
    88.6400       324
    88.6600       370
    88.6800       340
    88.7000       328
    88.7200       322
    88.7400       310
    88.7600       292
    88.7800       324
    88.8000       296
    88.8200       250
    88.8400       280
    88.8600       314
    88.8800       272
    88.9000       260
    88.9200       274
    88.9400       260
    88.9600       248
    88.9800       266
    89.0000       268
    89.0200       268
    89.0400       254
    89.0600       276
    89.0800       208
    89.1000       238
    89.1200       242
    89.1400       264
    89.1600       226
    89.1800       280
    89.2000       262
    89.2200       250
    89.2400       224
    89.2600       230
    89.2800       226
    89.3000       222
    89.3200       242
    89.3400       234
    89.3600       280
    89.3800       244
    89.4000       220
    89.4200       226
    89.4400       218
    89.4600       232
    89.4800       244
    89.5000       262
    89.5200       234
    89.5400       250
    89.5600       262
    89.5800       250
    89.6000       254
    89.6200       272
    89.6400       268
    89.6600       248
    89.6800       242
    89.7000       280
    89.7200       256
    89.7400       286
    89.7600       258
    89.7800       274
    89.8000       264
    89.8200       280
    89.8400       292
    89.8600       238
    89.8800       270
    89.9000       286
    89.9200       276
    89.9400       314
    89.9600       310
    89.9800       294
    90.0000       272
