    10.0000       338
    10.0200       386
    10.0400       358
    10.0600       382
    10.0800       348
    10.1000       406
    10.1200       374
    10.1400       324
    10.1600       396
    10.1800       358
    10.2000       376
    10.2200       330
    10.2400       364
    10.2600       330
    10.2800       360
    10.3000       350
    10.3200       340
    10.3400       364
    10.3600       344
    10.3800       334
    10.4000       348
    10.4200       358
    10.4400       348
    10.4600       374
    10.4800       340
    10.5000       344
    10.5200       340
    10.5400       320
    10.5600       342
    10.5800       360
    10.6000       328
    10.6200       326
    10.6400       372
    10.6600       354
    10.6800       356
    10.7000       310
    10.7200       338
    10.7400       328
    10.7600       324
    10.7800       334
    10.8000       314
    10.8200       338
    10.8400       344
    10.8600       338
    10.8800       322
    10.9000       358
    10.9200       352
    10.9400       324
    10.9600       348
    10.9800       344
    11.0000       326
    11.0200       344
    11.0400       338
    11.0600       330
    11.0800       302
    11.1000       320
    11.1200       340
    11.1400       298
    11.1600       406
    11.1800       338
    11.2000       336
    11.2200       334
    11.2400       312
    11.2600       338
    11.2800       326
    11.3000       308
    11.3200       342
    11.3400       316
    11.3600       330
    11.3800       356
    11.4000       338
    11.4200       344
    11.4400       336
    11.4600       340
    11.4800       328
    11.5000       340
    11.5200       300
    11.5400       348
    11.5600       334
    11.5800       296
    11.6000       340
    11.6200       334
    11.6400       300
    11.6600       346
    11.6800       308
    11.7000       342
    11.7200       344
    11.7400       326
    11.7600       332
    11.7800       334
    11.8000       356
    11.8200       362
    11.8400       330
    11.8600       330
    11.8800       344
    11.9000       376
    11.9200       400
    11.9400       408
    11.9600       374
    11.9800       386
    12.0000       406
    12.0200       462
    12.0400       446
    12.0600       440
    12.0800       464
    12.1000       482
    12.1200       552
    12.1400       564
    12.1600       586
    12.1800       576
    12.2000       614
    12.2200       596
    12.2400       540
    12.2600       486
    12.2800       506
    12.3000       400
    12.3200       376
    12.3400       328
    12.3600       324
    12.3800       334
    12.4000       302
    12.4200       308
    12.4400       316
    12.4600       326
    12.4800       312
    12.5000       306
    12.5200       310
    12.5400       288
    12.5600       296
    12.5800       346
    12.6000       296
    12.6200       284
    12.6400       310
    12.6600       302
    12.6800       272
    12.7000       290
    12.7200       286
    12.7400       318
    12.7600       300
    12.7800       298
    12.8000       302
    12.8200       280
    12.8400       298
    12.8600       306
    12.8800       298
    12.9000       270
    12.9200       276
    12.9400       288
    12.9600       298
    12.9800       286
    13.0000       288
    13.0200       272
    13.0400       276
    13.0600       260
    13.0800       270
    13.1000       260
    13.1200       290
    13.1400       286
    13.1600       250
    13.1800       254
    13.2000       266
    13.2200       276
    13.2400       290
    13.2600       308
    13.2800       254
    13.3000       266
    13.3200       282
    13.3400       324
    13.3600       280
    13.3800       288
    13.4000       288
    13.4200       248
    13.4400       270
    13.4600       250
    13.4800       282
    13.5000       266
    13.5200       254
    13.5400       238
    13.5600       260
    13.5800       314
    13.6000       246
    13.6200       266
    13.6400       266
    13.6600       282
    13.6800       278
    13.7000       242
    13.7200       274
    13.7400       268
    13.7600       270
    13.7800       282
    13.8000       300
    13.8200       256
    13.8400       262
    13.8600       266
    13.8800       272
    13.9000       270
    13.9200       258
    13.9400       244
    13.9600       252
    13.9800       260
    14.0000       248
    14.0200       278
    14.0400       248
    14.0600       252
    14.0800       280
    14.1000       282
    14.1200       266
    14.1400       280
    14.1600       264
    14.1800       264
    14.2000       268
    14.2200       288
    14.2400       288
    14.2600       256
    14.2800       286
    14.3000       264
    14.3200       272
    14.3400       236
    14.3600       270
    14.3800       268
    14.4000       256
    14.4200       262
    14.4400       260
    14.4600       252
    14.4800       272
    14.5000       284
    14.5200       256
    14.5400       274
    14.5600       282
    14.5800       292
    14.6000       274
    14.6200       260
    14.6400       306
    14.6600       304
    14.6800       262
    14.7000       296
    14.7200       336
    14.7400       294
    14.7600       342
    14.7800       346
    14.8000       402
    14.8200       382
    14.8400       394
    14.8600       424
    14.8800       462
    14.9000       472
    14.9200       478
    14.9400       504
    14.9600       576
    14.9800       640
    15.0000       654
    15.0200       740
    15.0400       820
    15.0600       834
    15.0800       988
    15.1000      1010
    15.1200      1166
    15.1400      1230
    15.1600      1274
    15.1800      1382
    15.2000      1350
    15.2200      1254
    15.2400      1070
    15.2600      1014
    15.2800       744
    15.3000       642
    15.3200       522
    15.3400       456
    15.3600       372
    15.3800       356
    15.4000       328
    15.4200       320
    15.4400       312
    15.4600       358
    15.4800       306
    15.5000       276
    15.5200       290
    15.5400       288
    15.5600       258
    15.5800       266
    15.6000       268
    15.6200       256
    15.6400       258
    15.6600       262
    15.6800       254
    15.7000       274
    15.7200       260
    15.7400       254
    15.7600       266
    15.7800       242
    15.8000       242
    15.8200       242
    15.8400       258
    15.8600       264
    15.8800       246
    15.9000       236
    15.9200       242
    15.9400       224
    15.9600       254
    15.9800       268
    16.0000       226
    16.0200       258
    16.0400       272
    16.0600       280
    16.0800       274
    16.1000       264
    16.1200       282
    16.1400       292
    16.1600       288
    16.1800       294
    16.2000       300
    16.2200       276
    16.2400       328
    16.2600       360
    16.2800       326
    16.3000       298
    16.3200       340
    16.3400       292
    16.3600       294
    16.3800       298
    16.4000       312
    16.4200       278
    16.4400       320
    16.4600       308
    16.4800       314
    16.5000       314
    16.5200       272
    16.5400       328
    16.5600       306
    16.5800       356
    16.6000       340
    16.6200       336
    16.6400       372
    16.6600       384
    16.6800       408
    16.7000       422
    16.7200       468
    16.7400       498
    16.7600       580
    16.7800       568
    16.8000       618
    16.8200       700
    16.8400       764
    16.8600       844
    16.8800       930
    16.9000      1054
    16.9200      1262
    16.9400      1334
    16.9600      1610
    16.9800      1860
    17.0000      2140
    17.0200      2298
    17.0400      2396
    17.0600      2304
    17.0800      2130
    17.1000      1918
    17.1200      1630
    17.1400      1234
    17.1600      1052
    17.1800       992
    17.2000       872
    17.2200       780
    17.2400       760
    17.2600       746
    17.2800       732
    17.3000       650
    17.3200       646
    17.3400       552
    17.3600       544
    17.3800       506
    17.4000       488
    17.4200       434
    17.4400       432
    17.4600       410
    17.4800       428
    17.5000       392
    17.5200       378
    17.5400       408
    17.5600       388
    17.5800       444
    17.6000       358
    17.6200       466
    17.6400       446
    17.6600       456
    17.6800       498
    17.7000       570
    17.7200       578
    17.7400       632
    17.7600       634
    17.7800       702
    17.8000       708
    17.8200       740
    17.8400       664
    17.8600       654
    17.8800       618
    17.9000       530
    17.9200       428
    17.9400       370
    17.9600       316
    17.9800       310
    18.0000       290
    18.0200       286
    18.0400       276
    18.0600       280
    18.0800       270
    18.1000       244
    18.1200       252
    18.1400       242
    18.1600       242
    18.1800       242
    18.2000       220
    18.2200       278
    18.2400       240
    18.2600       228
    18.2800       228
    18.3000       214
    18.3200       218
    18.3400       240
    18.3600       236
    18.3800       242
    18.4000       200
    18.4200       224
    18.4400       200
    18.4600       226
    18.4800       234
    18.5000       236
    18.5200       214
    18.5400       242
    18.5600       220
    18.5800       248
    18.6000       230
    18.6200       250
    18.6400       268
    18.6600       246
    18.6800       218
    18.7000       224
    18.7200       236
    18.7400       204
    18.7600       244
    18.7800       244
    18.8000       268
    18.8200       270
    18.8400       298
    18.8600       274
    18.8800       258
    18.9000       282
    18.9200       274
    18.9400       284
    18.9600       314
    18.9800       326
    19.0000       292
    19.0200       284
    19.0400       328
    19.0600       362
    19.0800       322
    19.1000       368
    19.1200       330
    19.1400       360
    19.1600       406
    19.1800       376
    19.2000       444
    19.2200       446
    19.2400       522
    19.2600       578
    19.2800       610
    19.3000       672
    19.3200       722
    19.3400       852
    19.3600       936
    19.3800      1048
    19.4000      1244
    19.4200      1468
    19.4400      1564
    19.4600      1774
    19.4800      2062
    19.5000      2438
    19.5200      2716
    19.5400      2770
    19.5600      2918
    19.5800      2690
    19.6000      2500
    19.6200      2134
    19.6400      1794
    19.6600      1476
    19.6800      1146
    19.7000      1066
    19.7200       962
    19.7400       954
    19.7600       976
    19.7800       934
    19.8000       998
    19.8200      1124
    19.8400      1162
    19.8600      1338
    19.8800      1514
    19.9000      1670
    19.9200      1868
    19.9400      1940
    19.9600      2200
    19.9800      2338
    20.0000      2200
    20.0200      2074
    20.0400      1844
    20.0600      1546
    20.0800      1318
    20.1000      1080
    20.1200       828
    20.1400       674
    20.1600       646
    20.1800       482
    20.2000       520
    20.2200       418
    20.2400       432
    20.2600       394
    20.2800       384
    20.3000       324
    20.3200       312
    20.3400       326
    20.3600       284
    20.3800       298
    20.4000       306
    20.4200       276
    20.4400       262
    20.4600       262
    20.4800       276
    20.5000       232
    20.5200       242
    20.5400       254
    20.5600       256
    20.5800       236
    20.6000       236
    20.6200       260
    20.6400       260
    20.6600       262
    20.6800       240
    20.7000       252
    20.7200       238
    20.7400       276
    20.7600       296
    20.7800       294
    20.8000       296
    20.8200       330
    20.8400       326
    20.8600       350
    20.8800       382
    20.9000       376
    20.9200       398
    20.9400       452
    20.9600       484
    20.9800       606
    21.0000       630
    21.0200       664
    21.0400       740
    21.0600       790
    21.0800      1018
    21.1000      1058
    21.1200      1210
    21.1400      1350
    21.1600      1510
    21.1800      1608
    21.2000      1690
    21.2200      1726
    21.2400      1652
    21.2600      1428
    21.2800      1220
    21.3000      1092
    21.3200       854
    21.3400       744
    21.3600       582
    21.3800       540
    21.4000       484
    21.4200       392
    21.4400       364
    21.4600       306
    21.4800       304
    21.5000       276
    21.5200       284
    21.5400       242
    21.5600       274
    21.5800       276
    21.6000       252
    21.6200       254
    21.6400       252
    21.6600       214
    21.6800       258
    21.7000       232
    21.7200       220
    21.7400       252
    21.7600       216
    21.7800       208
    21.8000       230
    21.8200       232
    21.8400       224
    21.8600       208
    21.8800       234
    21.9000       200
    21.9200       204
    21.9400       232
    21.9600       248
    21.9800       242
    22.0000       212
    22.0200       218
    22.0400       232
    22.0600       226
    22.0800       234
    22.1000       212
    22.1200       236
    22.1400       212
    22.1600       228
    22.1800       214
    22.2000       244
    22.2200       244
    22.2400       252
    22.2600       236
    22.2800       236
    22.3000       276
    22.3200       232
    22.3400       270
    22.3600       302
    22.3800       290
    22.4000       328
    22.4200       316
    22.4400       348
    22.4600       378
    22.4800       396
    22.5000       448
    22.5200       476
    22.5400       502
    22.5600       562
    22.5800       614
    22.6000       740
    22.6200       850
    22.6400       974
    22.6600      1044
    22.6800      1166
    22.7000      1338
    22.7200      1576
    22.7400      1786
    22.7600      2156
    22.7800      2418
    22.8000      2802
    22.8200      3234
    22.8400      3594
    22.8600      3596
    22.8800      3796
    22.9000      3378
    22.9200      3032
    22.9400      2564
    22.9600      2128
    22.9800      1662
    23.0000      1304
    23.0200       960
    23.0400       890
    23.0600       752
    23.0800       660
    23.1000       562
    23.1200       498
    23.1400       458
    23.1600       462
    23.1800       390
    23.2000       388
    23.2200       382
    23.2400       336
    23.2600       314
    23.2800       308
    23.3000       292
    23.3200       306
    23.3400       262
    23.3600       254
    23.3800       286
    23.4000       254
    23.4200       260
    23.4400       292
    23.4600       256
    23.4800       232
    23.5000       230
    23.5200       246
    23.5400       220
    23.5600       236
    23.5800       254
    23.6000       234
    23.6200       210
    23.6400       212
    23.6600       246
    23.6800       242
    23.7000       210
    23.7200       222
    23.7400       250
    23.7600       236
    23.7800       226
    23.8000       232
    23.8200       232
    23.8400       240
    23.8600       236
    23.8800       240
    23.9000       262
    23.9200       258
    23.9400       230
    23.9600       242
    23.9800       226
    24.0000       246
    24.0200       238
    24.0400       240
    24.0600       240
    24.0800       250
    24.1000       256
    24.1200       228
    24.1400       286
    24.1600       302
    24.1800       284
    24.2000       308
    24.2200       346
    24.2400       310
    24.2600       348
    24.2800       334
    24.3000       416
    24.3200       456
    24.3400       554
    24.3600       522
    24.3800       552
    24.4000       684
    24.4200       738
    24.4400       838
    24.4600       914
    24.4800       958
    24.5000      1038
    24.5200      1012
    24.5400      1070
    24.5600      1086
    24.5800      1028
    24.6000       986
    24.6200       876
    24.6400       880
    24.6600       766
    24.6800       740
    24.7000       738
    24.7200       674
    24.7400       634
    24.7600       622
    24.7800       606
    24.8000       598
    24.8200       530
    24.8400       566
    24.8600       522
    24.8800       452
    24.9000       478
    24.9200       446
    24.9400       440
    24.9600       446
    24.9800       448
    25.0000       474
    25.0200       480
    25.0400       498
    25.0600       518
    25.0800       548
    25.1000       538
    25.1200       610
    25.1400       682
    25.1600       688
    25.1800       718
    25.2000       812
    25.2200       908
    25.2400       990
    25.2600      1068
    25.2800      1222
    25.3000      1192
    25.3200      1118
    25.3400      1218
    25.3600      1142
    25.3800      1040
    25.4000       968
    25.4200       928
    25.4400       862
    25.4600       772
    25.4800       742
    25.5000       786
    25.5200       844
    25.5400       930
    25.5600       954
    25.5800       950
    25.6000       996
    25.6200      1000
    25.6400       958
    25.6600       862
    25.6800       800
    25.7000       670
    25.7200       668
    25.7400       552
    25.7600       502
    25.7800       434
    25.8000       422
    25.8200       388
    25.8400       354
    25.8600       360
    25.8800       344
    25.9000       302
    25.9200       296
    25.9400       268
    25.9600       322
    25.9800       280
    26.0000       246
    26.0200       294
    26.0400       284
    26.0600       276
    26.0800       248
    26.1000       246
    26.1200       240
    26.1400       244
    26.1600       250
    26.1800       278
    26.2000       240
    26.2200       254
    26.2400       240
    26.2600       266
    26.2800       250
    26.3000       282
    26.3200       274
    26.3400       276
    26.3600       266
    26.3800       286
    26.4000       292
    26.4200       274
    26.4400       284
    26.4600       270
    26.4800       308
    26.5000       262
    26.5200       332
    26.5400       318
    26.5600       312
    26.5800       332
    26.6000       304
    26.6200       276
    26.6400       290
    26.6600       332
    26.6800       322
    26.7000       312
    26.7200       290
    26.7400       282
    26.7600       266
    26.7800       302
    26.8000       274
    26.8200       266
    26.8400       280
    26.8600       252
    26.8800       232
    26.9000       248
    26.9200       254
    26.9400       258
    26.9600       250
    26.9800       270
    27.0000       266
    27.0200       284
    27.0400       264
    27.0600       288
    27.0800       288
    27.1000       302
    27.1200       322
    27.1400       322
    27.1600       306
    27.1800       328
    27.2000       332
    27.2200       370
    27.2400       418
    27.2600       452
    27.2800       504
    27.3000       532
    27.3200       542
    27.3400       592
    27.3600       698
    27.3800       758
    27.4000       846
    27.4200       976
    27.4400      1006
    27.4600      1116
    27.4800      1084
    27.5000      1134
    27.5200      1080
    27.5400       958
    27.5600       964
    27.5800       860
    27.6000       736
    27.6200       710
    27.6400       602
    27.6600       548
    27.6800       464
    27.7000       390
    27.7200       400
    27.7400       376
    27.7600       394
    27.7800       346
    27.8000       322
    27.8200       310
    27.8400       308
    27.8600       282
    27.8800       314
    27.9000       286
    27.9200       288
    27.9400       290
    27.9600       336
    27.9800       342
    28.0000       306
    28.0200       328
    28.0400       324
    28.0600       280
    28.0800       296
    28.1000       326
    28.1200       310
    28.1400       318
    28.1600       346
    28.1800       336
    28.2000       374
    28.2200       388
    28.2400       398
    28.2600       360
    28.2800       360
    28.3000       422
    28.3200       388
    28.3400       370
    28.3600       406
    28.3800       392
    28.4000       316
    28.4200       328
    28.4400       314
    28.4600       326
    28.4800       332
    28.5000       324
    28.5200       322
    28.5400       322
    28.5600       288
    28.5800       326
    28.6000       360
    28.6200       400
    28.6400       390
    28.6600       392
    28.6800       408
    28.7000       424
    28.7200       410
    28.7400       362
    28.7600       360
    28.7800       354
    28.8000       352
    28.8200       330
    28.8400       346
    28.8600       332
    28.8800       300
    28.9000       300
    28.9200       322
    28.9400       296
    28.9600       322
    28.9800       280
    29.0000       262
    29.0200       282
    29.0400       266
    29.0600       280
    29.0800       294
    29.1000       300
    29.1200       304
    29.1400       320
    29.1600       288
    29.1800       298
    29.2000       306
    29.2200       328
    29.2400       300
    29.2600       338
    29.2800       346
    29.3000       366
    29.3200       412
    29.3400       414
    29.3600       400
    29.3800       434
    29.4000       460
    29.4200       522
    29.4400       550
    29.4600       562
    29.4800       586
    29.5000       638
    29.5200       740
    29.5400       718
    29.5600       816
    29.5800       944
    29.6000       988
    29.6200      1046
    29.6400      1130
    29.6600      1096
    29.6800      1084
    29.7000      1056
    29.7200       964
    29.7400       960
    29.7600       922
    29.7800       820
    29.8000       710
    29.8200       706
    29.8400       654
    29.8600       594
    29.8800       604
    29.9000       642
    29.9200       670
    29.9400       728
    29.9600       734
    29.9800       812
    30.0000       880
    30.0200       924
    30.0400      1052
    30.0600      1196
    30.0800      1304
    30.1000      1434
    30.1200      1658
    30.1400      1850
    30.1600      1762
    30.1800      1788
    30.2000      1912
    30.2200      1908
    30.2400      1866
    30.2600      1786
    30.2800      1760
    30.3000      1612
    30.3200      1628
    30.3400      1608
    30.3600      1574
    30.3800      1692
    30.4000      1708
    30.4200      1880
    30.4400      1962
    30.4600      2170
    30.4800      2338
    30.5000      2584
    30.5200      2962
    30.5400      3322
    30.5600      3730
    30.5800      4160
    30.6000      4624
    30.6200      5182
    30.6400      5748
    30.6600      6160
    30.6800      6154
    30.7000      5898
    30.7200      5716
    30.7400      5158
    30.7600      4646
    30.7800      4020
    30.8000      3458
    30.8200      2918
    30.8400      2458
    30.8600      2072
    30.8800      1796
    30.9000      1486
    30.9200      1394
    30.9400      1286
    30.9600      1174
    30.9800      1062
    31.0000      1002
    31.0200       896
    31.0400       864
    31.0600       884
    31.0800       878
    31.1000       766
    31.1200       752
    31.1400       758
    31.1600       750
    31.1800       722
    31.2000       682
    31.2200       688
    31.2400       644
    31.2600       612
    31.2800       566
    31.3000       562
    31.3200       552
    31.3400       494
    31.3600       476
    31.3800       450
    31.4000       430
    31.4200       402
    31.4400       406
    31.4600       432
    31.4800       408
    31.5000       392
    31.5200       398
    31.5400       378
    31.5600       390
    31.5800       418
    31.6000       434
    31.6200       448
    31.6400       440
    31.6600       468
    31.6800       478
    31.7000       490
    31.7200       546
    31.7400       554
    31.7600       584
    31.7800       636
    31.8000       692
    31.8200       788
    31.8400       868
    31.8600       994
    31.8800      1050
    31.9000      1184
    31.9200      1384
    31.9400      1526
    31.9600      1634
    31.9800      1810
    32.0000      2072
    32.0200      1964
    32.0400      2054
    32.0600      1928
    32.0800      1752
    32.1000      1720
    32.1200      1554
    32.1400      1436
    32.1600      1272
    32.1800      1246
    32.2000      1100
    32.2200      1146
    32.2400      1190
    32.2600      1280
    32.2800      1356
    32.3000      1388
    32.3200      1584
    32.3400      1778
    32.3600      2088
    32.3800      2318
    32.4000      2578
    32.4200      2982
    32.4400      3458
    32.4600      4000
    32.4800      4560
    32.5000      5138
    32.5200      5758
    32.5400      6032
    32.5600      6456
    32.5800      6382
    32.6000      6282
    32.6200      5938
    32.6400      5472
    32.6600      4940
    32.6800      4302
    32.7000      3834
    32.7200      3314
    32.7400      2824
    32.7600      2266
    32.7800      2018
    32.8000      1656
    32.8200      1592
    32.8400      1344
    32.8600      1338
    32.8800      1162
    32.9000      1168
    32.9200      1082
    32.9400      1064
    32.9600      1124
    32.9800      1156
    33.0000      1172
    33.0200      1192
    33.0400      1314
    33.0600      1386
    33.0800      1384
    33.1000      1416
    33.1200      1358
    33.1400      1286
    33.1600      1178
    33.1800      1076
    33.2000       938
    33.2200       840
    33.2400       718
    33.2600       620
    33.2800       616
    33.3000       516
    33.3200       482
    33.3400       444
    33.3600       438
    33.3800       406
    33.4000       404
    33.4200       362
    33.4400       370
    33.4600       342
    33.4800       328
    33.5000       310
    33.5200       318
    33.5400       288
    33.5600       298
    33.5800       264
    33.6000       278
    33.6200       278
    33.6400       222
    33.6600       276
    33.6800       274
    33.7000       262
    33.7200       266
    33.7400       250
    33.7600       282
    33.7800       264
    33.8000       244
    33.8200       280
    33.8400       250
    33.8600       258
    33.8800       260
    33.9000       256
    33.9200       264
    33.9400       240
    33.9600       264
    33.9800       250
    34.0000       232
    34.0200       264
    34.0400       258
    34.0600       282
    34.0800       240
    34.1000       268
    34.1200       272
    34.1400       298
    34.1600       270
    34.1800       288
    34.2000       306
    34.2200       314
    34.2400       316
    34.2600       306
    34.2800       342
    34.3000       336
    34.3200       418
    34.3400       366
    34.3600       426
    34.3800       454
    34.4000       494
    34.4200       560
    34.4400       604
    34.4600       638
    34.4800       650
    34.5000       656
    34.5200       678
    34.5400       602
    34.5600       580
    34.5800       574
    34.6000       502
    34.6200       478
    34.6400       420
    34.6600       390
    34.6800       408
    34.7000       384
    34.7200       394
    34.7400       348
    34.7600       346
    34.7800       356
    34.8000       332
    34.8200       334
    34.8400       352
    34.8600       334
    34.8800       324
    34.9000       350
    34.9200       316
    34.9400       296
    34.9600       308
    34.9800       310
    35.0000       338
    35.0200       316
    35.0400       362
    35.0600       334
    35.0800       310
    35.1000       338
    35.1200       316
    35.1400       280
    35.1600       274
    35.1800       278
    35.2000       248
    35.2200       288
    35.2400       260
    35.2600       296
    35.2800       274
    35.3000       294
    35.3200       276
    35.3400       286
    35.3600       250
    35.3800       246
    35.4000       268
    35.4200       294
    35.4400       314
    35.4600       286
    35.4800       300
    35.5000       270
    35.5200       306
    35.5400       294
    35.5600       296
    35.5800       304
    35.6000       308
    35.6200       268
    35.6400       332
    35.6600       354
    35.6800       286
    35.7000       334
    35.7200       346
    35.7400       346
    35.7600       350
    35.7800       334
    35.8000       408
    35.8200       412
    35.8400       394
    35.8600       434
    35.8800       430
    35.9000       458
    35.9200       500
    35.9400       556
    35.9600       550
    35.9800       584
    36.0000       676
    36.0200       760
    36.0400       774
    36.0600       780
    36.0800       842
    36.1000       902
    36.1200       908
    36.1400       972
    36.1600      1004
    36.1800      1012
    36.2000       890
    36.2200       792
    36.2400       816
    36.2600       744
    36.2800       674
    36.3000       594
    36.3200       568
    36.3400       528
    36.3600       476
    36.3800       432
    36.4000       474
    36.4200       438
    36.4400       398
    36.4600       438
    36.4800       412
    36.5000       476
    36.5200       436
    36.5400       462
    36.5600       470
    36.5800       518
    36.6000       476
    36.6200       530
    36.6400       544
    36.6600       596
    36.6800       662
    36.7000       714
    36.7200       760
    36.7400       864
    36.7600       860
    36.7800      1050
    36.8000      1196
    36.8200      1242
    36.8400      1366
    36.8600      1516
    36.8800      1640
    36.9000      1692
    36.9200      1712
    36.9400      1646
    36.9600      1536
    36.9800      1484
    37.0000      1408
    37.0200      1248
    37.0400      1228
    37.0600      1132
    37.0800      1032
    37.1000       976
    37.1200       932
    37.1400       942
    37.1600       874
    37.1800       872
    37.2000       852
    37.2200       834
    37.2400       732
    37.2600       744
    37.2800       644
    37.3000       680
    37.3200       652
    37.3400       642
    37.3600       574
    37.3800       588
    37.4000       566
    37.4200       500
    37.4400       530
    37.4600       510
    37.4800       490
    37.5000       524
    37.5200       478
    37.5400       486
    37.5600       470
    37.5800       458
    37.6000       472
    37.6200       534
    37.6400       530
    37.6600       612
    37.6800       536
    37.7000       600
    37.7200       618
    37.7400       636
    37.7600       654
    37.7800       732
    37.8000       734
    37.8200       778
    37.8400       796
    37.8600       876
    37.8800       962
    37.9000      1058
    37.9200      1198
    37.9400      1330
    37.9600      1430
    37.9800      1550
    38.0000      1652
    38.0200      1772
    38.0400      1808
    38.0600      1830
    38.0800      1882
    38.1000      1818
    38.1200      1786
    38.1400      1700
    38.1600      1610
    38.1800      1598
    38.2000      1536
    38.2200      1542
    38.2400      1602
    38.2600      1632
    38.2800      1714
    38.3000      1794
    38.3200      1910
    38.3400      2100
    38.3600      2358
    38.3800      2622
    38.4000      2976
    38.4200      3310
    38.4400      3706
    38.4600      3980
    38.4800      4374
    38.5000      4640
    38.5200      4920
    38.5400      5162
    38.5600      5212
    38.5800      5532
    38.6000      5506
    38.6200      5598
    38.6400      5714
    38.6600      5708
    38.6800      5580
    38.7000      5334
    38.7200      5124
    38.7400      5022
    38.7600      4560
    38.7800      4292
    38.8000      3966
    38.8200      3484
    38.8400      3226
    38.8600      2844
    38.8800      2484
    38.9000      2222
    38.9200      1952
    38.9400      1872
    38.9600      1684
    38.9800      1558
    39.0000      1458
    39.0200      1406
    39.0400      1390
    39.0600      1346
    39.0800      1224
    39.1000      1252
    39.1200      1224
    39.1400      1198
    39.1600      1138
    39.1800      1152
    39.2000      1200
    39.2200      1192
    39.2400      1148
    39.2600      1218
    39.2800      1226
    39.3000      1234
    39.3200      1230
    39.3400      1232
    39.3600      1228
    39.3800      1196
    39.4000      1282
    39.4200      1248
    39.4400      1242
    39.4600      1130
    39.4800      1214
    39.5000      1240
    39.5200      1188
    39.5400      1222
    39.5600      1278
    39.5800      1308
    39.6000      1442
    39.6200      1540
    39.6400      1656
    39.6600      1836
    39.6800      1836
    39.7000      2100
    39.7200      2052
    39.7400      2130
    39.7600      1954
    39.7800      1898
    39.8000      1732
    39.8200      1696
    39.8400      1504
    39.8600      1382
    39.8800      1320
    39.9000      1008
    39.9200      1022
    39.9400       938
    39.9600       856
    39.9800       804
    40.0000       854
    40.0200       790
    40.0400       812
    40.0600       796
    40.0800       782
    40.1000       844
    40.1200       818
    40.1400       810
    40.1600       916
    40.1800       896
    40.2000       912
    40.2200       870
    40.2400       916
    40.2600       914
    40.2800       884
    40.3000       898
    40.3200       998
    40.3400       918
    40.3600       938
    40.3800       994
    40.4000      1060
    40.4200      1048
    40.4400      1180
    40.4600      1278
    40.4800      1348
    40.5000      1472
    40.5200      1540
    40.5400      1728
    40.5600      1708
    40.5800      1704
    40.6000      1684
    40.6200      1690
    40.6400      1682
    40.6600      1630
    40.6800      1512
    40.7000      1418
    40.7200      1336
    40.7400      1134
    40.7600      1112
    40.7800      1010
    40.8000       974
    40.8200       908
    40.8400       812
    40.8600       786
    40.8800       732
    40.9000       640
    40.9200       616
    40.9400       720
    40.9600       684
    40.9800       680
    41.0000       678
    41.0200       786
    41.0400       722
    41.0600       782
    41.0800       820
    41.1000       876
    41.1200       970
    41.1400      1054
    41.1600      1108
    41.1800      1170
    41.2000      1240
    41.2200      1354
    41.2400      1502
    41.2600      1528
    41.2800      1556
    41.3000      1564
    41.3200      1674
    41.3400      1654
    41.3600      1702
    41.3800      1686
    41.4000      1634
    41.4200      1690
    41.4400      1722
    41.4600      1762
    41.4800      1754
    41.5000      1638
    41.5200      1640
    41.5400      1688
    41.5600      1542
    41.5800      1542
    41.6000      1440
    41.6200      1424
    41.6400      1352
    41.6600      1278
    41.6800      1196
    41.7000      1136
    41.7200      1072
    41.7400      1128
    41.7600      1156
    41.7800      1202
    41.8000      1188
    41.8200      1236
    41.8400      1414
    41.8600      1466
    41.8800      1566
    41.9000      1548
    41.9200      1604
    41.9400      1566
    41.9600      1480
    41.9800      1510
    42.0000      1430
    42.0200      1308
    42.0400      1234
    42.0600      1104
    42.0800       982
    42.1000       914
    42.1200       820
    42.1400       744
    42.1600       726
    42.1800       670
    42.2000       566
    42.2200       606
    42.2400       524
    42.2600       526
    42.2800       516
    42.3000       490
    42.3200       456
    42.3400       448
    42.3600       434
    42.3800       444
    42.4000       432
    42.4200       416
    42.4400       404
    42.4600       378
    42.4800       436
    42.5000       352
    42.5200       400
    42.5400       390
    42.5600       472
    42.5800       396
    42.6000       420
    42.6200       426
    42.6400       406
    42.6600       396
    42.6800       392
    42.7000       424
    42.7200       392
    42.7400       404
    42.7600       450
    42.7800       410
    42.8000       442
    42.8200       476
    42.8400       436
    42.8600       458
    42.8800       512
    42.9000       492
    42.9200       506
    42.9400       540
    42.9600       570
    42.9800       602
    43.0000       662
    43.0200       738
    43.0400       806
    43.0600       850
    43.0800       920
    43.1000       954
    43.1200      1078
    43.1400      1226
    43.1600      1338
    43.1800      1400
    43.2000      1536
    43.2200      1578
    43.2400      1636
    43.2600      1550
    43.2800      1534
    43.3000      1454
    43.3200      1386
    43.3400      1210
    43.3600      1134
    43.3800      1088
    43.4000       962
    43.4200       874
    43.4400       842
    43.4600       728
    43.4800       634
    43.5000       638
    43.5200       546
    43.5400       580
    43.5600       514
    43.5800       528
    43.6000       538
    43.6200       550
    43.6400       534
    43.6600       522
    43.6800       540
    43.7000       586
    43.7200       566
    43.7400       562
    43.7600       600
    43.7800       650
    43.8000       620
    43.8200       630
    43.8400       642
    43.8600       640
    43.8800       650
    43.9000       652
    43.9200       634
    43.9400       654
    43.9600       598
    43.9800       546
    44.0000       546
    44.0200       536
    44.0400       466
    44.0600       492
    44.0800       460
    44.1000       446
    44.1200       464
    44.1400       454
    44.1600       486
    44.1800       436
    44.2000       454
    44.2200       492
    44.2400       468
    44.2600       472
    44.2800       450
    44.3000       508
    44.3200       484
    44.3400       494
    44.3600       486
    44.3800       506
    44.4000       466
    44.4200       522
    44.4400       524
    44.4600       492
    44.4800       540
    44.5000       544
    44.5200       542
    44.5400       542
    44.5600       580
    44.5800       616
    44.6000       618
    44.6200       632
    44.6400       668
    44.6600       700
    44.6800       714
    44.7000       752
    44.7200       726
    44.7400       736
    44.7600       772
    44.7800       816
    44.8000       822
    44.8200       878
    44.8400       880
    44.8600       928
    44.8800      1008
    44.9000      1104
    44.9200      1108
    44.9400      1246
    44.9600      1320
    44.9800      1438
    45.0000      1504
    45.0200      1580
    45.0400      1704
    45.0600      1778
    45.0800      1814
    45.1000      1826
    45.1200      1816
    45.1400      1896
    45.1600      2016
    45.1800      2022
    45.2000      2060
    45.2200      2200
    45.2400      2072
    45.2600      1930
    45.2800      2022
    45.3000      1914
    45.3200      1818
    45.3400      1708
    45.3600      1702
    45.3800      1646
    45.4000      1630
    45.4200      1528
    45.4400      1498
    45.4600      1398
    45.4800      1356
    45.5000      1240
    45.5200      1202
    45.5400      1196
    45.5600      1114
    45.5800      1046
    45.6000       976
    45.6200       966
    45.6400       880
    45.6600       848
    45.6800       830
    45.7000       768
    45.7200       782
    45.7400       718
    45.7600       760
    45.7800       658
    45.8000       728
    45.8200       722
    45.8400       646
    45.8600       728
    45.8800       690
    45.9000       680
    45.9200       660
    45.9400       696
    45.9600       700
    45.9800       636
    46.0000       692
    46.0200       656
    46.0400       642
    46.0600       688
    46.0800       672
    46.1000       720
    46.1200       710
    46.1400       684
    46.1600       718
    46.1800       802
    46.2000       794
    46.2200       834
    46.2400       800
    46.2600       916
    46.2800       924
    46.3000       952
    46.3200      1064
    46.3400      1156
    46.3600      1170
    46.3800      1294
    46.4000      1428
    46.4200      1498
    46.4400      1654
    46.4600      1826
    46.4800      2012
    46.5000      2246
    46.5200      2508
    46.5400      2766
    46.5600      3068
    46.5800      3488
    46.6000      3856
    46.6200      4408
    46.6400      4800
    46.6600      5346
    46.6800      5816
    46.7000      6412
    46.7200      6504
    46.7400      6720
    46.7600      6548
    46.7800      6536
    46.8000      6150
    46.8200      5686
    46.8400      5252
    46.8600      4798
    46.8800      4310
    46.9000      3936
    46.9200      3514
    46.9400      3072
    46.9600      2774
    46.9800      2426
    47.0000      2072
    47.0200      1814
    47.0400      1644
    47.0600      1430
    47.0800      1374
    47.1000      1198
    47.1200      1172
    47.1400      1044
    47.1600       952
    47.1800       882
    47.2000       824
    47.2200       774
    47.2400       704
    47.2600       676
    47.2800       630
    47.3000       654
    47.3200       574
    47.3400       588
    47.3600       614
    47.3800       550
    47.4000       496
    47.4200       596
    47.4400       514
    47.4600       508
    47.4800       514
    47.5000       526
    47.5200       512
    47.5400       502
    47.5600       478
    47.5800       480
    47.6000       480
    47.6200       472
    47.6400       478
    47.6600       490
    47.6800       490
    47.7000       518
    47.7200       512
    47.7400       552
    47.7600       596
    47.7800       628
    47.8000       644
    47.8200       704
    47.8400       686
    47.8600       686
    47.8800       746
    47.9000       746
    47.9200       730
    47.9400       710
    47.9600       686
    47.9800       674
    48.0000       696
    48.0200       690
    48.0400       660
    48.0600       674
    48.0800       646
    48.1000       698
    48.1200       700
    48.1400       742
    48.1600       760
    48.1800       804
    48.2000       726
    48.2200       758
    48.2400       826
    48.2600       850
    48.2800       826
    48.3000       812
    48.3200       772
    48.3400       830
    48.3600       828
    48.3800       798
    48.4000       838
    48.4200       812
    48.4400       844
    48.4600       854
    48.4800       920
    48.5000       938
    48.5200       940
    48.5400      1008
    48.5600      1014
    48.5800      1008
    48.6000      1058
    48.6200      1036
    48.6400      1038
    48.6600      1066
    48.6800      1040
    48.7000       982
    48.7200       974
    48.7400       884
    48.7600       814
    48.7800       770
    48.8000       784
    48.8200       654
    48.8400       656
    48.8600       572
    48.8800       610
    48.9000       540
    48.9200       604
    48.9400       516
    48.9600       482
    48.9800       440
    49.0000       412
    49.0200       414
    49.0400       376
    49.0600       410
    49.0800       398
    49.1000       424
    49.1200       400
    49.1400       352
    49.1600       322
    49.1800       364
    49.2000       340
    49.2200       326
    49.2400       330
    49.2600       336
    49.2800       328
    49.3000       342
    49.3200       360
    49.3400       338
    49.3600       284
    49.3800       310
    49.4000       328
    49.4200       344
    49.4400       294
    49.4600       342
    49.4800       324
    49.5000       294
    49.5200       354
    49.5400       350
    49.5600       340
    49.5800       314
    49.6000       290
    49.6200       308
    49.6400       364
    49.6600       372
    49.6800       318
    49.7000       366
    49.7200       390
    49.7400       366
    49.7600       374
    49.7800       356
    49.8000       364
    49.8200       370
    49.8400       446
    49.8600       388
    49.8800       404
    49.9000       400
    49.9200       430
    49.9400       432
    49.9600       462
    49.9800       476
    50.0000       474
    50.0200       518
    50.0400       540
    50.0600       528
    50.0800       624
    50.1000       640
    50.1200       654
    50.1400       750
    50.1600       822
    50.1800       836
    50.2000       860
    50.2200       934
    50.2400       988
    50.2600      1080
    50.2800      1112
    50.3000      1154
    50.3200      1206
    50.3400      1242
    50.3600      1176
    50.3800      1178
    50.4000      1180
    50.4200      1058
    50.4400      1258
    50.4600      1136
    50.4800      1174
    50.5000      1126
    50.5200      1074
    50.5400      1106
    50.5600      1124
    50.5800      1124
    50.6000      1164
    50.6200      1172
    50.6400      1248
    50.6600      1284
    50.6800      1418
    50.7000      1528
    50.7200      1578
    50.7400      1674
    50.7600      1712
    50.7800      1950
    50.8000      1936
    50.8200      1944
    50.8400      1966
    50.8600      1882
    50.8800      1850
    50.9000      1878
    50.9200      1800
    50.9400      1740
    50.9600      1590
    50.9800      1546
    51.0000      1436
    51.0200      1320
    51.0400      1294
    51.0600      1182
    51.0800      1134
    51.1000       972
    51.1200      1030
    51.1400       934
    51.1600       936
    51.1800       882
    51.2000       862
    51.2200       814
    51.2400       840
    51.2600       802
    51.2800       754
    51.3000       810
    51.3200       780
    51.3400       826
    51.3600       796
    51.3800       770
    51.4000       832
    51.4200       882
    51.4400       808
    51.4600       822
    51.4800       842
    51.5000       816
    51.5200       828
    51.5400       852
    51.5600       934
    51.5800       830
    51.6000       836
    51.6200       880
    51.6400       844
    51.6600       888
    51.6800       942
    51.7000      1004
    51.7200      1034
    51.7400       998
    51.7600      1152
    51.7800      1126
    51.8000      1200
    51.8200      1314
    51.8400      1466
    51.8600      1530
    51.8800      1666
    51.9000      1666
    51.9200      1760
    51.9400      1916
    51.9600      1922
    51.9800      1934
    52.0000      1912
    52.0200      1978
    52.0400      1864
    52.0600      1830
    52.0800      1728
    52.1000      1690
    52.1200      1488
    52.1400      1478
    52.1600      1370
    52.1800      1288
    52.2000      1216
    52.2200      1068
    52.2400      1000
    52.2600       936
    52.2800       946
    52.3000       882
    52.3200       824
    52.3400       810
    52.3600       828
    52.3800       778
    52.4000       814
    52.4200       800
    52.4400       864
    52.4600       880
    52.4800       920
    52.5000       920
    52.5200      1058
    52.5400      1086
    52.5600      1116
    52.5800      1198
    52.6000      1250
    52.6200      1212
    52.6400      1318
    52.6600      1352
    52.6800      1420
    52.7000      1326
    52.7200      1412
    52.7400      1336
    52.7600      1344
    52.7800      1308
    52.8000      1230
    52.8200      1186
    52.8400      1124
    52.8600      1140
    52.8800       980
    52.9000       936
    52.9200       950
    52.9400       842
    52.9600       880
    52.9800       820
    53.0000       810
    53.0200       770
    53.0400       776
    53.0600       814
    53.0800       800
    53.1000       824
    53.1200       872
    53.1400       920
    53.1600       914
    53.1800      1094
    53.2000      1132
    53.2200      1128
    53.2400      1276
    53.2600      1374
    53.2800      1420
    53.3000      1452
    53.3200      1366
    53.3400      1382
    53.3600      1392
    53.3800      1362
    53.4000      1288
    53.4200      1224
    53.4400      1176
    53.4600      1090
    53.4800      1080
    53.5000       982
    53.5200       894
    53.5400       888
    53.5600       784
    53.5800       756
    53.6000       758
    53.6200       726
    53.6400       658
    53.6600       584
    53.6800       620
    53.7000       596
    53.7200       616
    53.7400       566
    53.7600       542
    53.7800       566
    53.8000       556
    53.8200       530
    53.8400       506
    53.8600       504
    53.8800       492
    53.9000       514
    53.9200       500
    53.9400       484
    53.9600       480
    53.9800       530
    54.0000       488
    54.0200       494
    54.0400       520
    54.0600       464
    54.0800       532
    54.1000       492
    54.1200       478
    54.1400       498
    54.1600       548
    54.1800       548
    54.2000       518
    54.2200       566
    54.2400       600
    54.2600       622
    54.2800       620
    54.3000       676
    54.3200       670
    54.3400       608
    54.3600       666
    54.3800       680
    54.4000       628
    54.4200       762
    54.4400       708
    54.4600       756
    54.4800       766
    54.5000       806
    54.5200       764
    54.5400       838
    54.5600       786
    54.5800       832
    54.6000       836
    54.6200       812
    54.6400       820
    54.6600       850
    54.6800       880
    54.7000       896
    54.7200       834
    54.7400       896
    54.7600       898
    54.7800       894
    54.8000       912
    54.8200       858
    54.8400       806
    54.8600       836
    54.8800       760
    54.9000       774
    54.9200       790
    54.9400       836
    54.9600       730
    54.9800       780
    55.0000       790
    55.0200       854
    55.0400       780
    55.0600       876
    55.0800       868
    55.1000       872
    55.1200       956
    55.1400       866
    55.1600       916
    55.1800       922
    55.2000       948
    55.2200       884
    55.2400       880
    55.2600       868
    55.2800       888
    55.3000       888
    55.3200       822
    55.3400       860
    55.3600       740
    55.3800       760
    55.4000       748
    55.4200       738
    55.4400       716
    55.4600       684
    55.4800       680
    55.5000       678
    55.5200       628
    55.5400       550
    55.5600       558
    55.5800       568
    55.6000       506
    55.6200       468
    55.6400       484
    55.6600       458
    55.6800       446
    55.7000       436
    55.7200       438
    55.7400       374
    55.7600       408
    55.7800       392
    55.8000       380
    55.8200       374
    55.8400       382
    55.8600       326
    55.8800       382
    55.9000       344
    55.9200       366
    55.9400       384
    55.9600       338
    55.9800       324
    56.0000       338
    56.0200       338
    56.0400       312
    56.0600       334
    56.0800       354
    56.1000       328
    56.1200       384
    56.1400       336
    56.1600       360
    56.1800       318
    56.2000       344
    56.2200       340
    56.2400       348
    56.2600       378
    56.2800       298
    56.3000       336
    56.3200       360
    56.3400       356
    56.3600       362
    56.3800       358
    56.4000       362
    56.4200       368
    56.4400       356
    56.4600       384
    56.4800       370
    56.5000       408
    56.5200       430
    56.5400       396
    56.5600       430
    56.5800       444
    56.6000       444
    56.6200       464
    56.6400       498
    56.6600       518
    56.6800       526
    56.7000       528
    56.7200       560
    56.7400       574
    56.7600       602
    56.7800       622
    56.8000       658
    56.8200       668
    56.8400       610
    56.8600       638
    56.8800       606
    56.9000       550
    56.9200       614
    56.9400       616
    56.9600       540
    56.9800       542
    57.0000       566
    57.0200       564
    57.0400       572
    57.0600       560
    57.0800       582
    57.1000       598
    57.1200       568
    57.1400       658
    57.1600       654
    57.1800       688
    57.2000       698
    57.2200       732
    57.2400       776
    57.2600       812
    57.2800       894
    57.3000      1018
    57.3200      1106
    57.3400      1146
    57.3600      1202
    57.3800      1232
    57.4000      1318
    57.4200      1358
    57.4400      1312
    57.4600      1312
    57.4800      1316
    57.5000      1358
    57.5200      1244
    57.5400      1310
    57.5600      1230
    57.5800      1250
    57.6000      1230
    57.6200      1240
    57.6400      1230
    57.6600      1276
    57.6800      1218
    57.7000      1292
    57.7200      1246
    57.7400      1386
    57.7600      1322
    57.7800      1320
    57.8000      1332
    57.8200      1350
    57.8400      1314
    57.8600      1232
    57.8800      1226
    57.9000      1142
    57.9200      1106
    57.9400      1040
    57.9600      1008
    57.9800      1056
    58.0000       986
    58.0200       892
    58.0400       920
    58.0600       840
    58.0800       780
    58.1000       798
    58.1200       766
    58.1400       748
    58.1600       772
    58.1800       810
    58.2000       838
    58.2200       840
    58.2400       852
    58.2600       814
    58.2800       922
    58.3000       962
    58.3200       984
    58.3400       992
    58.3600      1072
    58.3800      1180
    58.4000      1250
    58.4200      1356
    58.4400      1378
    58.4600      1406
    58.4800      1508
    58.5000      1672
    58.5200      1670
    58.5400      1680
    58.5600      1920
    58.5800      1888
    58.6000      2066
    58.6200      2098
    58.6400      2228
    58.6600      2322
    58.6800      2404
    58.7000      2564
    58.7200      2554
    58.7400      2608
    58.7600      2540
    58.7800      2638
    58.8000      2596
    58.8200      2526
    58.8400      2456
    58.8600      2364
    58.8800      2202
    58.9000      2198
    58.9200      2100
    58.9400      2004
    58.9600      1820
    58.9800      1722
    59.0000      1644
    59.0200      1572
    59.0400      1400
    59.0600      1352
    59.0800      1272
    59.1000      1228
    59.1200      1120
    59.1400      1118
    59.1600      1098
    59.1800      1112
    59.2000      1048
    59.2200      1054
    59.2400      1112
    59.2600      1176
    59.2800      1132
    59.3000      1216
    59.3200      1324
    59.3400      1306
    59.3600      1364
    59.3800      1436
    59.4000      1490
    59.4200      1572
    59.4400      1522
    59.4600      1576
    59.4800      1640
    59.5000      1554
    59.5200      1472
    59.5400      1478
    59.5600      1438
    59.5800      1390
    59.6000      1384
    59.6200      1308
    59.6400      1282
    59.6600      1210
    59.6800      1188
    59.7000      1050
    59.7200      1036
    59.7400      1060
    59.7600       972
    59.7800       944
    59.8000       914
    59.8200       916
    59.8400       876
    59.8600       806
    59.8800       820
    59.9000       716
    59.9200       750
    59.9400       692
    59.9600       722
    59.9800       712
    60.0000       656
    60.0200       640
    60.0400       628
    60.0600       622
    60.0800       590
    60.1000       542
    60.1200       498
    60.1400       486
    60.1600       526
    60.1800       490
    60.2000       434
    60.2200       484
    60.2400       438
    60.2600       440
    60.2800       424
    60.3000       442
    60.3200       418
    60.3400       388
    60.3600       400
    60.3800       428
    60.4000       400
    60.4200       416
    60.4400       388
    60.4600       384
    60.4800       394
    60.5000       400
    60.5200       386
    60.5400       404
    60.5600       382
    60.5800       390
    60.6000       412
    60.6200       398
    60.6400       386
    60.6600       400
    60.6800       390
    60.7000       328
    60.7200       382
    60.7400       390
    60.7600       444
    60.7800       366
    60.8000       456
    60.8200       416
    60.8400       446
    60.8600       440
    60.8800       432
    60.9000       476
    60.9200       482
    60.9400       486
    60.9600       504
    60.9800       512
    61.0000       516
    61.0200       588
    61.0400       592
    61.0600       628
    61.0800       640
    61.1000       672
    61.1200       684
    61.1400       676
    61.1600       692
    61.1800       794
    61.2000       802
    61.2200       710
    61.2400       834
    61.2600       834
    61.2800       810
    61.3000       842
    61.3200       900
    61.3400       874
    61.3600       868
    61.3800       878
    61.4000       950
    61.4200      1054
    61.4400      1008
    61.4600      1082
    61.4800      1172
    61.5000      1168
    61.5200      1206
    61.5400      1158
    61.5600      1280
    61.5800      1296
    61.6000      1302
    61.6200      1310
    61.6400      1358
    61.6600      1244
    61.6800      1220
    61.7000      1154
    61.7200      1100
    61.7400      1022
    61.7600      1056
    61.7800      1016
    61.8000      1020
    61.8200       896
    61.8400       850
    61.8600       866
    61.8800       826
    61.9000       840
    61.9200       738
    61.9400       674
    61.9600       712
    61.9800       704
    62.0000       706
    62.0200       664
    62.0400       634
    62.0600       572
    62.0800       590
    62.1000       554
    62.1200       624
    62.1400       640
    62.1600       600
    62.1800       578
    62.2000       566
    62.2200       602
    62.2400       568
    62.2600       546
    62.2800       528
    62.3000       510
    62.3200       528
    62.3400       532
    62.3600       496
    62.3800       532
    62.4000       480
    62.4200       484
    62.4400       462
    62.4600       448
    62.4800       440
    62.5000       440
    62.5200       436
    62.5400       450
    62.5600       426
    62.5800       482
    62.6000       480
    62.6200       428
    62.6400       402
    62.6600       460
    62.6800       378
    62.7000       400
    62.7200       372
    62.7400       400
    62.7600       404
    62.7800       384
    62.8000       376
    62.8200       370
    62.8400       384
    62.8600       346
    62.8800       386
    62.9000       356
    62.9200       346
    62.9400       354
    62.9600       296
    62.9800       308
    63.0000       318
    63.0200       302
    63.0400       292
    63.0600       296
    63.0800       310
    63.1000       274
    63.1200       266
    63.1400       274
    63.1600       304
    63.1800       324
    63.2000       262
    63.2200       266
    63.2400       256
    63.2600       298
    63.2800       292
    63.3000       292
    63.3200       300
    63.3400       270
    63.3600       300
    63.3800       308
    63.4000       286
    63.4200       302
    63.4400       282
    63.4600       288
    63.4800       324
    63.5000       344
    63.5200       330
    63.5400       368
    63.5600       324
    63.5800       376
    63.6000       372
    63.6200       404
    63.6400       390
    63.6600       444
    63.6800       458
    63.7000       480
    63.7200       532
    63.7400       516
    63.7600       582
    63.7800       566
    63.8000       612
    63.8200       646
    63.8400       670
    63.8600       742
    63.8800       752
    63.9000       722
    63.9200       772
    63.9400       810
    63.9600       712
    63.9800       718
    64.0000       710
    64.0200       648
    64.0400       676
    64.0600       600
    64.0800       630
    64.1000       612
    64.1200       576
    64.1400       566
    64.1600       568
    64.1800       490
    64.2000       490
    64.2200       494
    64.2400       426
    64.2600       406
    64.2800       398
    64.3000       370
    64.3200       378
    64.3400       382
    64.3600       332
    64.3800       326
    64.4000       294
    64.4200       306
    64.4400       308
    64.4600       312
    64.4800       306
    64.5000       272
    64.5200       318
    64.5400       320
    64.5600       300
    64.5800       296
    64.6000       314
    64.6200       282
    64.6400       300
    64.6600       264
    64.6800       288
    64.7000       298
    64.7200       296
    64.7400       292
    64.7600       282
    64.7800       308
    64.8000       306
    64.8200       280
    64.8400       298
    64.8600       254
    64.8800       294
    64.9000       320
    64.9200       298
    64.9400       314
    64.9600       340
    64.9800       368
    65.0000       376
    65.0200       382
    65.0400       364
    65.0600       376
    65.0800       378
    65.1000       388
    65.1200       376
    65.1400       398
    65.1600       398
    65.1800       430
    65.2000       436
    65.2200       472
    65.2400       432
    65.2600       474
    65.2800       428
    65.3000       500
    65.3200       430
    65.3400       492
    65.3600       446
    65.3800       454
    65.4000       472
    65.4200       446
    65.4400       434
    65.4600       478
    65.4800       458
    65.5000       420
    65.5200       458
    65.5400       484
    65.5600       442
    65.5800       456
    65.6000       372
    65.6200       400
    65.6400       438
    65.6600       390
    65.6800       392
    65.7000       400
    65.7200       364
    65.7400       354
    65.7600       368
    65.7800       312
    65.8000       338
    65.8200       356
    65.8400       316
    65.8600       352
    65.8800       282
    65.9000       318
    65.9200       270
    65.9400       290
    65.9600       302
    65.9800       274
    66.0000       290
    66.0200       290
    66.0400       278
    66.0600       264
    66.0800       262
    66.1000       278
    66.1200       266
    66.1400       266
    66.1600       306
    66.1800       280
    66.2000       276
    66.2200       298
    66.2400       286
    66.2600       294
    66.2800       280
    66.3000       294
    66.3200       272
    66.3400       302
    66.3600       372
    66.3800       312
    66.4000       336
    66.4200       368
    66.4400       332
    66.4600       310
    66.4800       350
    66.5000       336
    66.5200       352
    66.5400       378
    66.5600       372
    66.5800       410
    66.6000       418
    66.6200       448
    66.6400       424
    66.6600       458
    66.6800       458
    66.7000       446
    66.7200       478
    66.7400       512
    66.7600       500
    66.7800       574
    66.8000       612
    66.8200       558
    66.8400       636
    66.8600       658
    66.8800       722
    66.9000       688
    66.9200       744
    66.9400       738
    66.9600       752
    66.9800       698
    67.0000       756
    67.0200       754
    67.0400       732
    67.0600       744
    67.0800       740
    67.1000       668
    67.1200       678
    67.1400       660
    67.1600       636
    67.1800       652
    67.2000       574
    67.2200       574
    67.2400       498
    67.2600       510
    67.2800       510
    67.3000       472
    67.3200       440
    67.3400       442
    67.3600       440
    67.3800       378
    67.4000       434
    67.4200       364
    67.4400       384
    67.4600       376
    67.4800       316
    67.5000       324
    67.5200       366
    67.5400       362
    67.5600       338
    67.5800       344
    67.6000       346
    67.6200       336
    67.6400       306
    67.6600       326
    67.6800       362
    67.7000       344
    67.7200       352
    67.7400       346
    67.7600       344
    67.7800       412
    67.8000       396
    67.8200       362
    67.8400       376
    67.8600       424
    67.8800       450
    67.9000       460
    67.9200       448
    67.9400       506
    67.9600       544
    67.9800       572
    68.0000       590
    68.0200       624
    68.0400       678
    68.0600       758
    68.0800       778
    68.1000       798
    68.1200       816
    68.1400       828
    68.1600       972
    68.1800       906
    68.2000       970
    68.2200       968
    68.2400      1036
    68.2600      1018
    68.2800       972
    68.3000       960
    68.3200       950
    68.3400      1000
    68.3600       944
    68.3800       902
    68.4000       914
    68.4200       788
    68.4400       824
    68.4600       798
    68.4800       808
    68.5000       750
    68.5200       722
    68.5400       658
    68.5600       638
    68.5800       588
    68.6000       602
    68.6200       546
    68.6400       488
    68.6600       564
    68.6800       462
    68.7000       472
    68.7200       484
    68.7400       474
    68.7600       428
    68.7800       414
    68.8000       408
    68.8200       376
    68.8400       406
    68.8600       352
    68.8800       378
    68.9000       374
    68.9200       364
    68.9400       384
    68.9600       394
    68.9800       354
    69.0000       366
    69.0200       374
    69.0400       322
    69.0600       356
    69.0800       376
    69.1000       356
    69.1200       392
    69.1400       390
    69.1600       384
    69.1800       398
    69.2000       408
    69.2200       386
    69.2400       428
    69.2600       436
    69.2800       402
    69.3000       424
    69.3200       416
    69.3400       470
    69.3600       426
    69.3800       502
    69.4000       482
    69.4200       478
    69.4400       506
    69.4600       510
    69.4800       554
    69.5000       520
    69.5200       526
    69.5400       498
    69.5600       492
    69.5800       520
    69.6000       492
    69.6200       462
    69.6400       480
    69.6600       480
    69.6800       468
    69.7000       482
    69.7200       448
    69.7400       408
    69.7600       450
    69.7800       460
    69.8000       426
    69.8200       430
    69.8400       408
    69.8600       442
    69.8800       408
    69.9000       370
    69.9200       450
    69.9400       396
    69.9600       396
    69.9800       338
    70.0000       384
    70.0200       374
    70.0400       378
    70.0600       374
    70.0800       342
    70.1000       344
    70.1200       358
    70.1400       336
    70.1600       328
    70.1800       340
    70.2000       310
    70.2200       310
    70.2400       292
    70.2600       280
    70.2800       248
    70.3000       266
    70.3200       272
    70.3400       242
    70.3600       224
    70.3800       276
    70.4000       206
    70.4200       244
    70.4400       264
    70.4600       274
    70.4800       250
    70.5000       260
    70.5200       250
    70.5400       254
    70.5600       262
    70.5800       256
    70.6000       268
    70.6200       270
    70.6400       264
    70.6600       266
    70.6800       296
    70.7000       254
    70.7200       278
    70.7400       214
    70.7600       240
    70.7800       246
    70.8000       258
    70.8200       280
    70.8400       280
    70.8600       250
    70.8800       234
    70.9000       250
    70.9200       256
    70.9400       226
    70.9600       234
    70.9800       226
    71.0000       222
    71.0200       262
    71.0400       246
    71.0600       236
    71.0800       254
    71.1000       248
    71.1200       264
    71.1400       228
    71.1600       266
    71.1800       290
    71.2000       286
    71.2200       274
    71.2400       262
    71.2600       304
    71.2800       296
    71.3000       306
    71.3200       326
    71.3400       350
    71.3600       342
    71.3800       374
    71.4000       390
    71.4200       382
    71.4400       442
    71.4600       462
    71.4800       530
    71.5000       506
    71.5200       498
    71.5400       548
    71.5600       550
    71.5800       540
    71.6000       534
    71.6200       558
    71.6400       550
    71.6600       496
    71.6800       580
    71.7000       524
    71.7200       542
    71.7400       560
    71.7600       544
    71.7800       544
    71.8000       538
    71.8200       482
    71.8400       508
    71.8600       510
    71.8800       468
    71.9000       478
    71.9200       448
    71.9400       448
    71.9600       422
    71.9800       474
    72.0000       432
    72.0200       462
    72.0400       416
    72.0600       444
    72.0800       422
    72.1000       422
    72.1200       410
    72.1400       424
    72.1600       462
    72.1800       416
    72.2000       464
    72.2200       450
    72.2400       450
    72.2600       464
    72.2800       504
    72.3000       456
    72.3200       486
    72.3400       496
    72.3600       516
    72.3800       514
    72.4000       494
    72.4200       512
    72.4400       504
    72.4600       494
    72.4800       502
    72.5000       578
    72.5200       548
    72.5400       554
    72.5600       538
    72.5800       566
    72.6000       546
    72.6200       538
    72.6400       570
    72.6600       518
    72.6800       554
    72.7000       548
    72.7200       564
    72.7400       562
    72.7600       582
    72.7800       580
    72.8000       582
    72.8200       546
    72.8400       542
    72.8600       528
    72.8800       470
    72.9000       514
    72.9200       528
    72.9400       506
    72.9600       514
    72.9800       494
    73.0000       490
    73.0200       474
    73.0400       466
    73.0600       440
    73.0800       418
    73.1000       404
    73.1200       380
    73.1400       378
    73.1600       368
    73.1800       366
    73.2000       330
    73.2200       370
    73.2400       312
    73.2600       302
    73.2800       304
    73.3000       330
    73.3200       302
    73.3400       278
    73.3600       276
    73.3800       294
    73.4000       280
    73.4200       298
    73.4400       262
    73.4600       272
    73.4800       284
    73.5000       266
    73.5200       254
    73.5400       252
    73.5600       256
    73.5800       226
    73.6000       244
    73.6200       250
    73.6400       272
    73.6600       252
    73.6800       278
    73.7000       256
    73.7200       250
    73.7400       258
    73.7600       282
    73.7800       276
    73.8000       254
    73.8200       266
    73.8400       286
    73.8600       250
    73.8800       268
    73.9000       274
    73.9200       296
    73.9400       272
    73.9600       250
    73.9800       276
    74.0000       302
    74.0200       296
    74.0400       294
    74.0600       266
    74.0800       302
    74.1000       282
    74.1200       280
    74.1400       276
    74.1600       284
    74.1800       278
    74.2000       274
    74.2200       298
    74.2400       268
    74.2600       272
    74.2800       282
    74.3000       290
    74.3200       284
    74.3400       278
    74.3600       256
    74.3800       272
    74.4000       226
    74.4200       256
    74.4400       222
    74.4600       224
    74.4800       224
    74.5000       238
    74.5200       224
    74.5400       240
    74.5600       238
    74.5800       236
    74.6000       246
    74.6200       198
    74.6400       226
    74.6600       238
    74.6800       224
    74.7000       248
    74.7200       230
    74.7400       194
    74.7600       184
    74.7800       190
    74.8000       212
    74.8200       226
    74.8400       224
    74.8600       216
    74.8800       190
    74.9000       214
    74.9200       202
    74.9400       212
    74.9600       222
    74.9800       182
    75.0000       218
    75.0200       232
    75.0400       222
    75.0600       198
    75.0800       222
    75.1000       204
    75.1200       240
    75.1400       246
    75.1600       242
    75.1800       246
    75.2000       218
    75.2200       240
    75.2400       258
    75.2600       232
    75.2800       254
    75.3000       254
    75.3200       256
    75.3400       262
    75.3600       232
    75.3800       240
    75.4000       256
    75.4200       234
    75.4400       262
    75.4600       252
    75.4800       228
    75.5000       266
    75.5200       260
    75.5400       254
    75.5600       266
    75.5800       268
    75.6000       284
    75.6200       286
    75.6400       262
    75.6600       244
    75.6800       256
    75.7000       262
    75.7200       242
    75.7400       270
    75.7600       296
    75.7800       250
    75.8000       264
    75.8200       242
    75.8400       250
    75.8600       276
    75.8800       250
    75.9000       252
    75.9200       250
    75.9400       274
    75.9600       272
    75.9800       244
    76.0000       234
    76.0200       280
    76.0400       286
    76.0600       270
    76.0800       248
    76.1000       240
    76.1200       290
    76.1400       292
    76.1600       294
    76.1800       288
    76.2000       296
    76.2200       276
    76.2400       280
    76.2600       282
    76.2800       292
    76.3000       312
    76.3200       290
    76.3400       312
    76.3600       312
    76.3800       314
    76.4000       330
    76.4200       360
    76.4400       308
    76.4600       336
    76.4800       316
    76.5000       366
    76.5200       392
    76.5400       348
    76.5600       396
    76.5800       392
    76.6000       380
    76.6200       406
    76.6400       398
    76.6600       396
    76.6800       390
    76.7000       408
    76.7200       380
    76.7400       414
    76.7600       390
    76.7800       408
    76.8000       374
    76.8200       410
    76.8400       382
    76.8600       396
    76.8800       376
    76.9000       360
    76.9200       386
    76.9400       346
    76.9600       398
    76.9800       374
    77.0000       378
    77.0200       360
    77.0400       354
    77.0600       374
    77.0800       382
    77.1000       320
    77.1200       328
    77.1400       304
    77.1600       352
    77.1800       378
    77.2000       372
    77.2200       364
    77.2400       372
    77.2600       368
    77.2800       362
    77.3000       378
    77.3200       394
    77.3400       388
    77.3600       396
    77.3800       416
    77.4000       420
    77.4200       490
    77.4400       436
    77.4600       466
    77.4800       522
    77.5000       470
    77.5200       524
    77.5400       528
    77.5600       530
    77.5800       644
    77.6000       662
    77.6200       606
    77.6400       666
    77.6600       748
    77.6800       704
    77.7000       710
    77.7200       734
    77.7400       690
    77.7600       710
    77.7800       678
    77.8000       662
    77.8200       696
    77.8400       662
    77.8600       668
    77.8800       636
    77.9000       636
    77.9200       630
    77.9400       608
    77.9600       618
    77.9800       574
    78.0000       550
    78.0200       536
    78.0400       508
    78.0600       484
    78.0800       458
    78.1000       452
    78.1200       444
    78.1400       408
    78.1600       434
    78.1800       406
    78.2000       398
    78.2200       402
    78.2400       366
    78.2600       390
    78.2800       360
    78.3000       402
    78.3200       354
    78.3400       348
    78.3600       324
    78.3800       332
    78.4000       368
    78.4200       344
    78.4400       352
    78.4600       364
    78.4800       386
    78.5000       340
    78.5200       424
    78.5400       404
    78.5600       400
    78.5800       414
    78.6000       418
    78.6200       356
    78.6400       406
    78.6600       400
    78.6800       432
    78.7000       434
    78.7200       470
    78.7400       426
    78.7600       424
    78.7800       396
    78.8000       396
    78.8200       422
    78.8400       390
    78.8600       394
    78.8800       406
    78.9000       388
    78.9200       376
    78.9400       354
    78.9600       376
    78.9800       374
    79.0000       390
    79.0200       312
    79.0400       334
    79.0600       344
    79.0800       314
    79.1000       296
    79.1200       236
    79.1400       308
    79.1600       290
    79.1800       306
    79.2000       252
    79.2200       338
    79.2400       286
    79.2600       282
    79.2800       258
    79.3000       244
    79.3200       272
    79.3400       240
    79.3600       254
    79.3800       278
    79.4000       252
    79.4200       278
    79.4400       282
    79.4600       264
    79.4800       244
    79.5000       236
    79.5200       258
    79.5400       264
    79.5600       296
    79.5800       260
    79.6000       262
    79.6200       270
    79.6400       246
    79.6600       262
    79.6800       264
    79.7000       294
    79.7200       238
    79.7400       268
    79.7600       288
    79.7800       246
    79.8000       242
    79.8200       272
    79.8400       264
    79.8600       268
    79.8800       262
    79.9000       242
    79.9200       276
    79.9400       238
    79.9600       272
    79.9800       248
    80.0000       258
    80.0200       262
    80.0400       286
    80.0600       264
    80.0800       290
    80.1000       250
    80.1200       254
    80.1400       266
    80.1600       256
    80.1800       262
    80.2000       254
    80.2200       236
    80.2400       266
    80.2600       246
    80.2800       238
    80.3000       306
    80.3200       262
    80.3400       272
    80.3600       272
    80.3800       280
    80.4000       268
    80.4200       280
    80.4400       286
    80.4600       284
    80.4800       246
    80.5000       286
    80.5200       260
    80.5400       284
    80.5600       296
    80.5800       266
    80.6000       250
    80.6200       252
    80.6400       246
    80.6600       272
    80.6800       280
    80.7000       282
    80.7200       296
    80.7400       238
    80.7600       250
    80.7800       262
    80.8000       246
    80.8200       238
    80.8400       234
    80.8600       212
    80.8800       230
    80.9000       240
    80.9200       238
    80.9400       238
    80.9600       232
    80.9800       278
    81.0000       228
    81.0200       242
    81.0400       222
    81.0600       238
    81.0800       230
    81.1000       230
    81.1200       266
    81.1400       222
    81.1600       200
    81.1800       216
    81.2000       268
    81.2200       256
    81.2400       258
    81.2600       254
    81.2800       228
    81.3000       210
    81.3200       278
    81.3400       262
    81.3600       272
    81.3800       236
    81.4000       272
    81.4200       262
    81.4400       258
    81.4600       256
    81.4800       266
    81.5000       276
    81.5200       258
    81.5400       290
    81.5600       286
    81.5800       254
    81.6000       266
    81.6200       272
    81.6400       302
    81.6600       278
    81.6800       280
    81.7000       308
    81.7200       286
    81.7400       256
    81.7600       292
    81.7800       288
    81.8000       300
    81.8200       282
    81.8400       322
    81.8600       342
    81.8800       284
    81.9000       300
    81.9200       336
    81.9400       300
    81.9600       320
    81.9800       310
    82.0000       330
    82.0200       340
    82.0400       326
    82.0600       362
    82.0800       330
    82.1000       346
    82.1200       336
    82.1400       338
    82.1600       324
    82.1800       336
    82.2000       362
    82.2200       370
    82.2400       404
    82.2600       374
    82.2800       346
    82.3000       372
    82.3200       418
    82.3400       390
    82.3600       440
    82.3800       406
    82.4000       414
    82.4200       470
    82.4400       382
    82.4600       408
    82.4800       434
    82.5000       416
    82.5200       426
    82.5400       484
    82.5600       448
    82.5800       450
    82.6000       462
    82.6200       482
    82.6400       510
    82.6600       538
    82.6800       560
    82.7000       576
    82.7200       572
    82.7400       616
    82.7600       630
    82.7800       604
    82.8000       642
    82.8200       652
    82.8400       670
    82.8600       714
    82.8800       728
    82.9000       658
    82.9200       706
    82.9400       718
    82.9600       698
    82.9800       646
    83.0000       660
    83.0200       680
    83.0400       640
    83.0600       646
    83.0800       648
    83.1000       632
    83.1200       600
    83.1400       634
    83.1600       596
    83.1800       596
    83.2000       502
    83.2200       552
    83.2400       566
    83.2600       542
    83.2800       518
    83.3000       480
    83.3200       474
    83.3400       420
    83.3600       482
    83.3800       448
    83.4000       466
    83.4200       436
    83.4400       394
    83.4600       424
    83.4800       400
    83.5000       346
    83.5200       414
    83.5400       394
    83.5600       388
    83.5800       390
    83.6000       380
    83.6200       354
    83.6400       362
    83.6600       380
    83.6800       348
    83.7000       294
    83.7200       312
    83.7400       328
    83.7600       368
    83.7800       326
    83.8000       314
    83.8200       308
    83.8400       310
    83.8600       312
    83.8800       304
    83.9000       326
    83.9200       322
    83.9400       314
    83.9600       310
    83.9800       320
    84.0000       278
    84.0200       314
    84.0400       304
    84.0600       298
    84.0800       296
    84.1000       294
    84.1200       354
    84.1400       342
    84.1600       330
    84.1800       324
    84.2000       320
    84.2200       340
    84.2400       328
    84.2600       318
    84.2800       306
    84.3000       290
    84.3200       316
    84.3400       336
    84.3600       338
    84.3800       312
    84.4000       334
    84.4200       278
    84.4400       318
    84.4600       290
    84.4800       314
    84.5000       288
    84.5200       288
    84.5400       308
    84.5600       294
    84.5800       302
    84.6000       282
    84.6200       278
    84.6400       302
    84.6600       284
    84.6800       270
    84.7000       300
    84.7200       288
    84.7400       292
    84.7600       312
    84.7800       268
    84.8000       290
    84.8200       282
    84.8400       310
    84.8600       306
    84.8800       280
    84.9000       262
    84.9200       274
    84.9400       272
    84.9600       266
    84.9800       258
    85.0000       300
    85.0200       294
    85.0400       276
    85.0600       262
    85.0800       256
    85.1000       266
    85.1200       286
    85.1400       254
    85.1600       262
    85.1800       266
    85.2000       264
    85.2200       264
    85.2400       296
    85.2600       276
    85.2800       260
    85.3000       224
    85.3200       248
    85.3400       280
    85.3600       250
    85.3800       260
    85.4000       268
    85.4200       242
    85.4400       256
    85.4600       288
    85.4800       292
    85.5000       262
    85.5200       304
    85.5400       306
    85.5600       268
    85.5800       296
    85.6000       292
    85.6200       312
    85.6400       280
    85.6600       324
    85.6800       300
    85.7000       268
    85.7200       288
    85.7400       268
    85.7600       324
    85.7800       270
    85.8000       270
    85.8200       268
    85.8400       296
    85.8600       286
    85.8800       254
    85.9000       280
    85.9200       270
    85.9400       252
    85.9600       268
    85.9800       252
    86.0000       248
    86.0200       244
    86.0400       284
    86.0600       254
    86.0800       224
    86.1000       282
    86.1200       270
    86.1400       268
    86.1600       260
    86.1800       248
    86.2000       228
    86.2200       274
    86.2400       246
    86.2600       212
    86.2800       236
    86.3000       244
    86.3200       236
    86.3400       210
    86.3600       236
    86.3800       240
    86.4000       250
    86.4200       250
    86.4400       270
    86.4600       252
    86.4800       258
    86.5000       252
    86.5200       260
    86.5400       248
    86.5600       298
    86.5800       262
    86.6000       276
    86.6200       278
    86.6400       282
    86.6600       292
    86.6800       308
    86.7000       296
    86.7200       316
    86.7400       314
    86.7600       322
    86.7800       300
    86.8000       302
    86.8200       336
    86.8400       344
    86.8600       358
    86.8800       346
    86.9000       376
    86.9200       332
    86.9400       364
    86.9600       362
    86.9800       360
    87.0000       368
    87.0200       368
    87.0400       356
    87.0600       358
    87.0800       390
    87.1000       360
    87.1200       368
    87.1400       362
    87.1600       364
    87.1800       384
    87.2000       366
    87.2200       352
    87.2400       404
    87.2600       326
    87.2800       302
    87.3000       342
    87.3200       334
    87.3400       354
    87.3600       346
    87.3800       334
    87.4000       326
    87.4200       298
    87.4400       310
    87.4600       314
    87.4800       318
    87.5000       328
    87.5200       322
    87.5400       346
    87.5600       352
    87.5800       372
    87.6000       328
    87.6200       318
    87.6400       366
    87.6600       418
    87.6800       340
    87.7000       360
    87.7200       406
    87.7400       386
    87.7600       374
    87.7800       376
    87.8000       404
    87.8200       372
    87.8400       420
    87.8600       412
    87.8800       394
    87.9000       406
    87.9200       400
    87.9400       420
    87.9600       392
    87.9800       412
    88.0000       392
    88.0200       416
    88.0400       404
    88.0600       404
    88.0800       412
    88.1000       370
    88.1200       374
    88.1400       396
    88.1600       404
    88.1800       372
    88.2000       412
    88.2200       402
    88.2400       384
    88.2600       366
    88.2800       414
    88.3000       408
    88.3200       394
    88.3400       394
    88.3600       378
    88.3800       388
    88.4000       380
    88.4200       378
    88.4400       364
    88.4600       356
    88.4800       392
    88.5000       338
    88.5200       384
    88.5400       362
    88.5600       372
    88.5800       354
    88.6000       386
    88.6200       368
    88.6400       342
    88.6600       314
    88.6800       306
    88.7000       334
    88.7200       340
    88.7400       322
    88.7600       310
    88.7800       344
    88.8000       320
    88.8200       312
    88.8400       300
    88.8600       274
    88.8800       304
    88.9000       272
    88.9200       294
    88.9400       280
    88.9600       304
    88.9800       286
    89.0000       276
    89.0200       268
    89.0400       268
    89.0600       260
    89.0800       252
    89.1000       272
    89.1200       252
    89.1400       254
    89.1600       244
    89.1800       248
    89.2000       260
    89.2200       264
    89.2400       270
    89.2600       242
    89.2800       262
    89.3000       224
    89.3200       256
    89.3400       260
    89.3600       244
    89.3800       266
    89.4000       246
    89.4200       256
    89.4400       270
    89.4600       238
    89.4800       248
    89.5000       238
    89.5200       322
    89.5400       288
    89.5600       264
    89.5800       282
    89.6000       270
    89.6200       254
    89.6400       270
    89.6600       250
    89.6800       276
    89.7000       282
    89.7200       272
    89.7400       296
    89.7600       260
    89.7800       266
    89.8000       268
    89.8200       288
    89.8400       258
    89.8600       298
    89.8800       306
    89.9000       268
    89.9200       304
    89.9400       302
    89.9600       282
    89.9800       278
    90.0000       296
