    10.0000       378
    10.0200       382
    10.0400       394
    10.0600       358
    10.0800       354
    10.1000       356
    10.1200       376
    10.1400       376
    10.1600       380
    10.1800       362
    10.2000       340
    10.2200       382
    10.2400       344
    10.2600       360
    10.2800       352
    10.3000       356
    10.3200       336
    10.3400       328
    10.3600       358
    10.3800       352
    10.4000       338
    10.4200       342
    10.4400       338
    10.4600       352
    10.4800       358
    10.5000       332
    10.5200       360
    10.5400       332
    10.5600       396
    10.5800       366
    10.6000       308
    10.6200       336
    10.6400       348
    10.6600       346
    10.6800       356
    10.7000       318
    10.7200       364
    10.7400       332
    10.7600       324
    10.7800       334
    10.8000       302
    10.8200       330
    10.8400       330
    10.8600       348
    10.8800       314
    10.9000       306
    10.9200       332
    10.9400       354
    10.9600       336
    10.9800       338
    11.0000       324
    11.0200       334
    11.0400       334
    11.0600       322
    11.0800       352
    11.1000       322
    11.1200       352
    11.1400       324
    11.1600       328
    11.1800       310
    11.2000       328
    11.2200       358
    11.2400       328
    11.2600       354
    11.2800       312
    11.3000       348
    11.3200       320
    11.3400       322
    11.3600       316
    11.3800       328
    11.4000       294
    11.4200       326
    11.4400       354
    11.4600       324
    11.4800       314
    11.5000       324
    11.5200       272
    11.5400       334
    11.5600       336
    11.5800       302
    11.6000       302
    11.6200       336
    11.6400       316
    11.6600       294
    11.6800       322
    11.7000       328
    11.7200       352
    11.7400       316
    11.7600       336
    11.7800       328
    11.8000       316
    11.8200       316
    11.8400       308
    11.8600       318
    11.8800       318
    11.9000       360
    11.9200       338
    11.9400       324
    11.9600       338
    11.9800       318
    12.0000       318
    12.0200       336
    12.0400       362
    12.0600       382
    12.0800       378
    12.1000       438
    12.1200       416
    12.1400       418
    12.1600       438
    12.1800       444
    12.2000       460
    12.2200       426
    12.2400       442
    12.2600       426
    12.2800       386
    12.3000       364
    12.3200       334
    12.3400       320
    12.3600       322
    12.3800       336
    12.4000       304
    12.4200       296
    12.4400       302
    12.4600       292
    12.4800       272
    12.5000       290
    12.5200       296
    12.5400       296
    12.5600       294
    12.5800       262
    12.6000       272
    12.6200       308
    12.6400       278
    12.6600       276
    12.6800       300
    12.7000       276
    12.7200       266
    12.7400       300
    12.7600       308
    12.7800       288
    12.8000       262
    12.8200       290
    12.8400       294
    12.8600       278
    12.8800       298
    12.9000       276
    12.9200       266
    12.9400       280
    12.9600       242
    12.9800       260
    13.0000       294
    13.0200       290
    13.0400       288
    13.0600       288
    13.0800       280
    13.1000       260
    13.1200       268
    13.1400       276
    13.1600       258
    13.1800       274
    13.2000       246
    13.2200       268
    13.2400       248
    13.2600       256
    13.2800       272
    13.3000       290
    13.3200       258
    13.3400       270
    13.3600       266
    13.3800       250
    13.4000       260
    13.4200       266
    13.4400       288
    13.4600       282
    13.4800       274
    13.5000       286
    13.5200       290
    13.5400       248
    13.5600       248
    13.5800       268
    13.6000       250
    13.6200       268
    13.6400       274
    13.6600       272
    13.6800       268
    13.7000       270
    13.7200       280
    13.7400       270
    13.7600       266
    13.7800       250
    13.8000       280
    13.8200       266
    13.8400       256
    13.8600       262
    13.8800       244
    13.9000       238
    13.9200       256
    13.9400       262
    13.9600       274
    13.9800       252
    14.0000       292
    14.0200       262
    14.0400       278
    14.0600       284
    14.0800       272
    14.1000       266
    14.1200       232
    14.1400       260
    14.1600       246
    14.1800       246
    14.2000       246
    14.2200       248
    14.2400       256
    14.2600       244
    14.2800       252
    14.3000       254
    14.3200       272
    14.3400       272
    14.3600       270
    14.3800       232
    14.4000       284
    14.4200       286
    14.4400       246
    14.4600       266
    14.4800       254
    14.5000       288
    14.5200       248
    14.5400       284
    14.5600       282
    14.5800       286
    14.6000       274
    14.6200       270
    14.6400       296
    14.6600       272
    14.6800       300
    14.7000       280
    14.7200       306
    14.7400       298
    14.7600       314
    14.7800       348
    14.8000       390
    14.8200       320
    14.8400       340
    14.8600       396
    14.8800       432
    14.9000       438
    14.9200       442
    14.9400       502
    14.9600       582
    14.9800       566
    15.0000       660
    15.0200       676
    15.0400       684
    15.0600       774
    15.0800       842
    15.1000       908
    15.1200      1006
    15.1400      1186
    15.1600      1240
    15.1800      1326
    15.2000      1368
    15.2200      1362
    15.2400      1116
    15.2600       954
    15.2800       770
    15.3000       650
    15.3200       542
    15.3400       474
    15.3600       430
    15.3800       376
    15.4000       330
    15.4200       302
    15.4400       324
    15.4600       298
    15.4800       320
    15.5000       326
    15.5200       282
    15.5400       276
    15.5600       256
    15.5800       276
    15.6000       286
    15.6200       234
    15.6400       258
    15.6600       270
    15.6800       262
    15.7000       220
    15.7200       256
    15.7400       224
    15.7600       240
    15.7800       236
    15.8000       226
    15.8200       244
    15.8400       248
    15.8600       270
    15.8800       258
    15.9000       216
    15.9200       234
    15.9400       246
    15.9600       236
    15.9800       244
    16.0000       248
    16.0200       268
    16.0400       236
    16.0600       274
    16.0800       230
    16.1000       268
    16.1200       238
    16.1400       262
    16.1600       274
    16.1800       260
    16.2000       302
    16.2200       262
    16.2400       276
    16.2600       306
    16.2800       266
    16.3000       276
    16.3200       284
    16.3400       266
    16.3600       284
    16.3800       276
    16.4000       278
    16.4200       260
    16.4400       288
    16.4600       294
    16.4800       260
    16.5000       320
    16.5200       286
    16.5400       296
    16.5600       320
    16.5800       296
    16.6000       350
    16.6200       376
    16.6400       382
    16.6600       358
    16.6800       402
    16.7000       416
    16.7200       392
    16.7400       438
    16.7600       510
    16.7800       522
    16.8000       602
    16.8200       642
    16.8400       690
    16.8600       766
    16.8800       776
    16.9000       914
    16.9200      1088
    16.9400      1164
    16.9600      1436
    16.9800      1700
    17.0000      1816
    17.0200      2094
    17.0400      2192
    17.0600      2390
    17.0800      2176
    17.1000      1892
    17.1200      1596
    17.1400      1314
    17.1600      1034
    17.1800       880
    17.2000       682
    17.2200       702
    17.2400       628
    17.2600       598
    17.2800       554
    17.3000       562
    17.3200       484
    17.3400       482
    17.3600       452
    17.3800       458
    17.4000       428
    17.4200       402
    17.4400       392
    17.4600       398
    17.4800       414
    17.5000       380
    17.5200       376
    17.5400       388
    17.5600       372
    17.5800       394
    17.6000       422
    17.6200       416
    17.6400       422
    17.6600       466
    17.6800       482
    17.7000       526
    17.7200       564
    17.7400       626
    17.7600       640
    17.7800       648
    17.8000       706
    17.8200       718
    17.8400       692
    17.8600       690
    17.8800       600
    17.9000       524
    17.9200       416
    17.9400       396
    17.9600       322
    17.9800       336
    18.0000       288
    18.0200       298
    18.0400       248
    18.0600       236
    18.0800       240
    18.1000       248
    18.1200       252
    18.1400       254
    18.1600       244
    18.1800       242
    18.2000       218
    18.2200       236
    18.2400       246
    18.2600       216
    18.2800       246
    18.3000       238
    18.3200       238
    18.3400       248
    18.3600       204
    18.3800       208
    18.4000       238
    18.4200       212
    18.4400       186
    18.4600       242
    18.4800       226
    18.5000       218
    18.5200       234
    18.5400       216
    18.5600       212
    18.5800       242
    18.6000       234
    18.6200       224
    18.6400       218
    18.6600       238
    18.6800       236
    18.7000       242
    18.7200       250
    18.7400       258
    18.7600       254
    18.7800       270
    18.8000       232
    18.8200       274
    18.8400       272
    18.8600       260
    18.8800       252
    18.9000       282
    18.9200       302
    18.9400       306
    18.9600       288
    18.9800       312
    19.0000       292
    19.0200       292
    19.0400       330
    19.0600       298
    19.0800       332
    19.1000       306
    19.1200       344
    19.1400       360
    19.1600       384
    19.1800       402
    19.2000       462
    19.2200       486
    19.2400       496
    19.2600       540
    19.2800       582
    19.3000       672
    19.3200       700
    19.3400       780
    19.3600       874
    19.3800       986
    19.4000      1232
    19.4200      1272
    19.4400      1496
    19.4600      1756
    19.4800      1928
    19.5000      2292
    19.5200      2560
    19.5400      2780
    19.5600      2920
    19.5800      2830
    19.6000      2588
    19.6200      2336
    19.6400      2006
    19.6600      1510
    19.6800      1306
    19.7000      1086
    19.7200      1076
    19.7400       950
    19.7600      1012
    19.7800      1026
    19.8000      1044
    19.8200      1040
    19.8400      1086
    19.8600      1252
    19.8800      1350
    19.9000      1544
    19.9200      1678
    19.9400      1900
    19.9600      2076
    19.9800      2200
    20.0000      2290
    20.0200      2118
    20.0400      1970
    20.0600      1696
    20.0800      1414
    20.1000      1168
    20.1200       968
    20.1400       724
    20.1600       658
    20.1800       560
    20.2000       476
    20.2200       456
    20.2400       394
    20.2600       390
    20.2800       368
    20.3000       348
    20.3200       336
    20.3400       312
    20.3600       284
    20.3800       262
    20.4000       266
    20.4200       274
    20.4400       268
    20.4600       280
    20.4800       254
    20.5000       206
    20.5200       238
    20.5400       236
    20.5600       230
    20.5800       234
    20.6000       220
    20.6200       240
    20.6400       250
    20.6600       222
    20.6800       252
    20.7000       250
    20.7200       244
    20.7400       258
    20.7600       234
    20.7800       230
    20.8000       264
    20.8200       234
    20.8400       276
    20.8600       258
    20.8800       286
    20.9000       282
    20.9200       286
    20.9400       322
    20.9600       326
    20.9800       340
    21.0000       370
    21.0200       382
    21.0400       438
    21.0600       492
    21.0800       500
    21.1000       604
    21.1200       634
    21.1400       668
    21.1600       762
    21.1800       776
    21.2000       858
    21.2200       888
    21.2400       792
    21.2600       836
    21.2800       734
    21.3000       588
    21.3200       580
    21.3400       498
    21.3600       452
    21.3800       396
    21.4000       326
    21.4200       332
    21.4400       300
    21.4600       288
    21.4800       258
    21.5000       256
    21.5200       244
    21.5400       230
    21.5600       224
    21.5800       212
    21.6000       262
    21.6200       220
    21.6400       180
    21.6600       238
    21.6800       242
    21.7000       226
    21.7200       232
    21.7400       198
    21.7600       256
    21.7800       210
    21.8000       234
    21.8200       214
    21.8400       190
    21.8600       228
    21.8800       222
    21.9000       226
    21.9200       188
    21.9400       224
    21.9600       220
    21.9800       226
    22.0000       236
    22.0200       232
    22.0400       222
    22.0600       202
    22.0800       248
    22.1000       190
    22.1200       220
    22.1400       240
    22.1600       198
    22.1800       246
    22.2000       214
    22.2200       232
    22.2400       258
    22.2600       264
    22.2800       230
    22.3000       258
    22.3200       268
    22.3400       272
    22.3600       284
    22.3800       300
    22.4000       322
    22.4200       342
    22.4400       334
    22.4600       382
    22.4800       400
    22.5000       416
    22.5200       438
    22.5400       472
    22.5600       524
    22.5800       608
    22.6000       674
    22.6200       780
    22.6400       846
    22.6600       952
    22.6800      1122
    22.7000      1240
    22.7200      1400
    22.7400      1648
    22.7600      1818
    22.7800      2206
    22.8000      2628
    22.8200      2976
    22.8400      3324
    22.8600      3636
    22.8800      3666
    22.9000      3608
    22.9200      3292
    22.9400      2736
    22.9600      2286
    22.9800      1938
    23.0000      1528
    23.0200      1170
    23.0400       928
    23.0600       808
    23.0800       702
    23.1000       624
    23.1200       544
    23.1400       514
    23.1600       456
    23.1800       446
    23.2000       372
    23.2200       358
    23.2400       324
    23.2600       338
    23.2800       348
    23.3000       286
    23.3200       290
    23.3400       310
    23.3600       334
    23.3800       274
    23.4000       252
    23.4200       228
    23.4400       236
    23.4600       296
    23.4800       232
    23.5000       266
    23.5200       236
    23.5400       252
    23.5600       244
    23.5800       214
    23.6000       240
    23.6200       212
    23.6400       232
    23.6600       242
    23.6800       224
    23.7000       220
    23.7200       226
    23.7400       244
    23.7600       218
    23.7800       194
    23.8000       196
    23.8200       212
    23.8400       208
    23.8600       222
    23.8800       248
    23.9000       194
    23.9200       230
    23.9400       218
    23.9600       240
    23.9800       238
    24.0000       238
    24.0200       218
    24.0400       242
    24.0600       224
    24.0800       230
    24.1000       194
    24.1200       238
    24.1400       220
    24.1600       226
    24.1800       264
    24.2000       308
    24.2200       274
    24.2400       252
    24.2600       306
    24.2800       290
    24.3000       276
    24.3200       348
    24.3400       358
    24.3600       358
    24.3800       374
    24.4000       412
    24.4200       438
    24.4400       514
    24.4600       472
    24.4800       532
    24.5000       596
    24.5200       586
    24.5400       620
    24.5600       648
    24.5800       626
    24.6000       622
    24.6200       620
    24.6400       588
    24.6600       544
    24.6800       572
    24.7000       592
    24.7200       626
    24.7400       526
    24.7600       588
    24.7800       530
    24.8000       548
    24.8200       540
    24.8400       514
    24.8600       492
    24.8800       438
    24.9000       450
    24.9200       442
    24.9400       396
    24.9600       414
    24.9800       412
    25.0000       438
    25.0200       430
    25.0400       466
    25.0600       498
    25.0800       520
    25.1000       496
    25.1200       564
    25.1400       602
    25.1600       678
    25.1800       762
    25.2000       762
    25.2200       900
    25.2400       932
    25.2600      1142
    25.2800      1158
    25.3000      1186
    25.3200      1218
    25.3400      1118
    25.3600      1144
    25.3800      1024
    25.4000       966
    25.4200       876
    25.4400       794
    25.4600       836
    25.4800       822
    25.5000       868
    25.5200       850
    25.5400       870
    25.5600       946
    25.5800      1010
    25.6000      1072
    25.6200      1024
    25.6400      1046
    25.6600       944
    25.6800       874
    25.7000       770
    25.7200       680
    25.7400       614
    25.7600       502
    25.7800       478
    25.8000       416
    25.8200       384
    25.8400       374
    25.8600       352
    25.8800       306
    25.9000       320
    25.9200       334
    25.9400       294
    25.9600       328
    25.9800       310
    26.0000       288
    26.0200       262
    26.0400       288
    26.0600       248
    26.0800       268
    26.1000       242
    26.1200       256
    26.1400       252
    26.1600       258
    26.1800       214
    26.2000       250
    26.2200       242
    26.2400       230
    26.2600       254
    26.2800       226
    26.3000       262
    26.3200       252
    26.3400       252
    26.3600       282
    26.3800       276
    26.4000       264
    26.4200       254
    26.4400       280
    26.4600       288
    26.4800       296
    26.5000       262
    26.5200       304
    26.5400       264
    26.5600       268
    26.5800       324
    26.6000       308
    26.6200       322
    26.6400       290
    26.6600       292
    26.6800       294
    26.7000       302
    26.7200       320
    26.7400       322
    26.7600       276
    26.7800       278
    26.8000       260
    26.8200       260
    26.8400       278
    26.8600       276
    26.8800       204
    26.9000       250
    26.9200       248
    26.9400       280
    26.9600       260
    26.9800       238
    27.0000       254
    27.0200       244
    27.0400       242
    27.0600       246
    27.0800       276
    27.1000       272
    27.1200       278
    27.1400       268
    27.1600       242
    27.1800       282
    27.2000       278
    27.2200       302
    27.2400       318
    27.2600       322
    27.2800       338
    27.3000       366
    27.3200       368
    27.3400       382
    27.3600       432
    27.3800       456
    27.4000       490
    27.4200       552
    27.4400       590
    27.4600       614
    27.4800       668
    27.5000       652
    27.5200       638
    27.5400       550
    27.5600       560
    27.5800       508
    27.6000       574
    27.6200       500
    27.6400       490
    27.6600       420
    27.6800       364
    27.7000       400
    27.7200       370
    27.7400       360
    27.7600       406
    27.7800       382
    27.8000       368
    27.8200       390
    27.8400       424
    27.8600       392
    27.8800       424
    27.9000       418
    27.9200       494
    27.9400       502
    27.9600       528
    27.9800       604
    28.0000       612
    28.0200       630
    28.0400       740
    28.0600       764
    28.0800       856
    28.1000      1006
    28.1200      1110
    28.1400      1168
    28.1600      1310
    28.1800      1460
    28.2000      1656
    28.2200      1828
    28.2400      1870
    28.2600      1900
    28.2800      1950
    28.3000      1974
    28.3200      1882
    28.3400      1678
    28.3600      1614
    28.3800      1404
    28.4000      1294
    28.4200      1188
    28.4400       992
    28.4600       890
    28.4800       774
    28.5000       696
    28.5200       646
    28.5400       598
    28.5600       612
    28.5800       522
    28.6000       476
    28.6200       498
    28.6400       472
    28.6600       488
    28.6800       440
    28.7000       500
    28.7200       502
    28.7400       484
    28.7600       466
    28.7800       408
    28.8000       456
    28.8200       384
    28.8400       370
    28.8600       346
    28.8800       392
    28.9000       332
    28.9200       312
    28.9400       326
    28.9600       290
    28.9800       318
    29.0000       320
    29.0200       328
    29.0400       300
    29.0600       294
    29.0800       252
    29.1000       284
    29.1200       274
    29.1400       306
    29.1600       290
    29.1800       322
    29.2000       348
    29.2200       322
    29.2400       344
    29.2600       328
    29.2800       358
    29.3000       360
    29.3200       370
    29.3400       384
    29.3600       412
    29.3800       428
    29.4000       444
    29.4200       446
    29.4400       510
    29.4600       570
    29.4800       592
    29.5000       628
    29.5200       694
    29.5400       786
    29.5600       768
    29.5800       884
    29.6000       928
    29.6200       998
    29.6400      1068
    29.6600       976
    29.6800      1044
    29.7000      1098
    29.7200      1004
    29.7400       924
    29.7600       888
    29.7800       726
    29.8000       678
    29.8200       634
    29.8400       606
    29.8600       560
    29.8800       574
    29.9000       520
    29.9200       542
    29.9400       548
    29.9600       494
    29.9800       558
    30.0000       642
    30.0200       634
    30.0400       696
    30.0600       736
    30.0800       796
    30.1000       898
    30.1200       952
    30.1400      1048
    30.1600      1024
    30.1800      1212
    30.2000      1230
    30.2200      1222
    30.2400      1222
    30.2600      1290
    30.2800      1284
    30.3000      1284
    30.3200      1304
    30.3400      1390
    30.3600      1368
    30.3800      1396
    30.4000      1486
    30.4200      1572
    30.4400      1728
    30.4600      1874
    30.4800      2088
    30.5000      2334
    30.5200      2560
    30.5400      2922
    30.5600      3358
    30.5800      3954
    30.6000      4374
    30.6200      4824
    30.6400      5380
    30.6600      5830
    30.6800      6010
    30.7000      6012
    30.7200      5702
    30.7400      5404
    30.7600      4948
    30.7800      4256
    30.8000      3586
    30.8200      2930
    30.8400      2454
    30.8600      2112
    30.8800      1696
    30.9000      1508
    30.9200      1332
    30.9400      1214
    30.9600      1166
    30.9800      1032
    31.0000      1016
    31.0200       936
    31.0400       854
    31.0600       838
    31.0800       806
    31.1000       720
    31.1200       698
    31.1400       686
    31.1600       636
    31.1800       656
    31.2000       620
    31.2200       578
    31.2400       572
    31.2600       568
    31.2800       580
    31.3000       516
    31.3200       508
    31.3400       488
    31.3600       500
    31.3800       444
    31.4000       406
    31.4200       432
    31.4400       442
    31.4600       422
    31.4800       398
    31.5000       412
    31.5200       378
    31.5400       440
    31.5600       462
    31.5800       406
    31.6000       420
    31.6200       454
    31.6400       470
    31.6600       458
    31.6800       498
    31.7000       510
    31.7200       550
    31.7400       574
    31.7600       634
    31.7800       678
    31.8000       718
    31.8200       764
    31.8400       878
    31.8600       936
    31.8800      1030
    31.9000      1134
    31.9200      1322
    31.9400      1388
    31.9600      1620
    31.9800      1866
    32.0000      1926
    32.0200      2020
    32.0400      2090
    32.0600      2052
    32.0800      1944
    32.1000      1824
    32.1200      1722
    32.1400      1572
    32.1600      1430
    32.1800      1352
    32.2000      1260
    32.2200      1258
    32.2400      1258
    32.2600      1244
    32.2800      1364
    32.3000      1446
    32.3200      1550
    32.3400      1676
    32.3600      1914
    32.3800      2078
    32.4000      2472
    32.4200      2856
    32.4400      3162
    32.4600      3712
    32.4800      4356
    32.5000      4866
    32.5200      5424
    32.5400      5998
    32.5600      6284
    32.5800      6536
    32.6000      6444
    32.6200      6286
    32.6400      5662
    32.6600      5204
    32.6800      4660
    32.7000      3992
    32.7200      3370
    32.7400      3000
    32.7600      2440
    32.7800      2142
    32.8000      1784
    32.8200      1612
    32.8400      1424
    32.8600      1344
    32.8800      1274
    32.9000      1224
    32.9200      1072
    32.9400      1158
    32.9600      1142
    32.9800      1160
    33.0000      1172
    33.0200      1224
    33.0400      1270
    33.0600      1350
    33.0800      1450
    33.1000      1478
    33.1200      1508
    33.1400      1320
    33.1600      1254
    33.1800      1166
    33.2000      1056
    33.2200       900
    33.2400       814
    33.2600       750
    33.2800       646
    33.3000       552
    33.3200       466
    33.3400       498
    33.3600       472
    33.3800       366
    33.4000       410
    33.4200       376
    33.4400       342
    33.4600       336
    33.4800       358
    33.5000       296
    33.5200       312
    33.5400       296
    33.5600       296
    33.5800       292
    33.6000       320
    33.6200       298
    33.6400       270
    33.6600       294
    33.6800       238
    33.7000       284
    33.7200       270
    33.7400       252
    33.7600       288
    33.7800       250
    33.8000       262
    33.8200       250
    33.8400       280
    33.8600       284
    33.8800       260
    33.9000       262
    33.9200       266
    33.9400       264
    33.9600       272
    33.9800       274
    34.0000       276
    34.0200       250
    34.0400       276
    34.0600       252
    34.0800       274
    34.1000       264
    34.1200       280
    34.1400       280
    34.1600       276
    34.1800       276
    34.2000       294
    34.2200       288
    34.2400       296
    34.2600       324
    34.2800       334
    34.3000       342
    34.3200       358
    34.3400       342
    34.3600       418
    34.3800       376
    34.4000       468
    34.4200       524
    34.4400       540
    34.4600       586
    34.4800       646
    34.5000       654
    34.5200       630
    34.5400       638
    34.5600       608
    34.5800       576
    34.6000       556
    34.6200       472
    34.6400       466
    34.6600       402
    34.6800       416
    34.7000       324
    34.7200       350
    34.7400       370
    34.7600       304
    34.7800       326
    34.8000       334
    34.8200       296
    34.8400       320
    34.8600       288
    34.8800       298
    34.9000       306
    34.9200       304
    34.9400       322
    34.9600       322
    34.9800       324
    35.0000       328
    35.0200       370
    35.0400       376
    35.0600       406
    35.0800       400
    35.1000       380
    35.1200       342
    35.1400       328
    35.1600       308
    35.1800       330
    35.2000       314
    35.2200       288
    35.2400       260
    35.2600       242
    35.2800       268
    35.3000       282
    35.3200       276
    35.3400       262
    35.3600       280
    35.3800       300
    35.4000       292
    35.4200       262
    35.4400       288
    35.4600       264
    35.4800       278
    35.5000       258
    35.5200       312
    35.5400       300
    35.5600       280
    35.5800       272
    35.6000       268
    35.6200       290
    35.6400       264
    35.6600       296
    35.6800       294
    35.7000       308
    35.7200       310
    35.7400       336
    35.7600       350
    35.7800       334
    35.8000       416
    35.8200       388
    35.8400       364
    35.8600       366
    35.8800       434
    35.9000       478
    35.9200       472
    35.9400       516
    35.9600       540
    35.9800       580
    36.0000       660
    36.0200       688
    36.0400       786
    36.0600       832
    36.0800       896
    36.1000       894
    36.1200       952
    36.1400       912
    36.1600       940
    36.1800       960
    36.2000       906
    36.2200       852
    36.2400       834
    36.2600       772
    36.2800       686
    36.3000       618
    36.3200       592
    36.3400       502
    36.3600       536
    36.3800       508
    36.4000       450
    36.4200       420
    36.4400       452
    36.4600       424
    36.4800       410
    36.5000       466
    36.5200       426
    36.5400       466
    36.5600       468
    36.5800       432
    36.6000       500
    36.6200       526
    36.6400       554
    36.6600       528
    36.6800       650
    36.7000       684
    36.7200       760
    36.7400       848
    36.7600       904
    36.7800       928
    36.8000      1092
    36.8200      1210
    36.8400      1394
    36.8600      1454
    36.8800      1620
    36.9000      1606
    36.9200      1658
    36.9400      1652
    36.9600      1588
    36.9800      1452
    37.0000      1350
    37.0200      1276
    37.0400      1128
    37.0600      1016
    37.0800       970
    37.1000       866
    37.1200       814
    37.1400       770
    37.1600       696
    37.1800       710
    37.2000       724
    37.2200       688
    37.2400       664
    37.2600       630
    37.2800       658
    37.3000       578
    37.3200       536
    37.3400       540
    37.3600       578
    37.3800       510
    37.4000       538
    37.4200       542
    37.4400       478
    37.4600       498
    37.4800       522
    37.5000       522
    37.5200       536
    37.5400       542
    37.5600       532
    37.5800       554
    37.6000       608
    37.6200       580
    37.6400       622
    37.6600       602
    37.6800       624
    37.7000       666
    37.7200       686
    37.7400       722
    37.7600       744
    37.7800       752
    37.8000       796
    37.8200       842
    37.8400       880
    37.8600       996
    37.8800       978
    37.9000      1060
    37.9200      1174
    37.9400      1280
    37.9600      1348
    37.9800      1476
    38.0000      1588
    38.0200      1696
    38.0400      1818
    38.0600      1888
    38.0800      1906
    38.1000      1866
    38.1200      1914
    38.1400      1740
    38.1600      1728
    38.1800      1666
    38.2000      1564
    38.2200      1534
    38.2400      1552
    38.2600      1556
    38.2800      1676
    38.3000      1778
    38.3200      1822
    38.3400      2038
    38.3600      2360
    38.3800      2484
    38.4000      2804
    38.4200      3190
    38.4400      3486
    38.4600      3846
    38.4800      4098
    38.5000      4482
    38.5200      4740
    38.5400      4940
    38.5600      5124
    38.5800      5460
    38.6000      5550
    38.6200      5542
    38.6400      5776
    38.6600      5720
    38.6800      5494
    38.7000      5410
    38.7200      5090
    38.7400      5068
    38.7600      4666
    38.7800      4288
    38.8000      4094
    38.8200      3608
    38.8400      3336
    38.8600      2934
    38.8800      2582
    38.9000      2318
    38.9200      2146
    38.9400      1902
    38.9600      1702
    38.9800      1498
    39.0000      1478
    39.0200      1476
    39.0400      1296
    39.0600      1300
    39.0800      1228
    39.1000      1212
    39.1200      1144
    39.1400      1206
    39.1600      1078
    39.1800      1158
    39.2000      1086
    39.2200      1068
    39.2400      1130
    39.2600      1170
    39.2800      1164
    39.3000      1096
    39.3200      1126
    39.3400      1176
    39.3600      1180
    39.3800      1140
    39.4000      1214
    39.4200      1198
    39.4400      1202
    39.4600      1132
    39.4800      1162
    39.5000      1144
    39.5200      1166
    39.5400      1264
    39.5600      1212
    39.5800      1294
    39.6000      1360
    39.6200      1424
    39.6400      1566
    39.6600      1702
    39.6800      1906
    39.7000      1966
    39.7200      2094
    39.7400      2086
    39.7600      2146
    39.7800      2024
    39.8000      1842
    39.8200      1698
    39.8400      1582
    39.8600      1442
    39.8800      1302
    39.9000      1220
    39.9200      1068
    39.9400      1014
    39.9600       930
    39.9800       874
    40.0000       762
    40.0200       772
    40.0400       776
    40.0600       778
    40.0800       728
    40.1000       792
    40.1200       772
    40.1400       764
    40.1600       828
    40.1800       844
    40.2000       816
    40.2200       898
    40.2400       860
    40.2600       892
    40.2800       940
    40.3000       870
    40.3200       898
    40.3400       870
    40.3600       984
    40.3800      1014
    40.4000      1012
    40.4200      1010
    40.4400      1116
    40.4600      1240
    40.4800      1240
    40.5000      1476
    40.5200      1510
    40.5400      1560
    40.5600      1622
    40.5800      1618
    40.6000      1758
    40.6200      1646
    40.6400      1628
    40.6600      1540
    40.6800      1488
    40.7000      1440
    40.7200      1378
    40.7400      1152
    40.7600      1074
    40.7800      1032
    40.8000       942
    40.8200       874
    40.8400       796
    40.8600       718
    40.8800       722
    40.9000       652
    40.9200       668
    40.9400       612
    40.9600       646
    40.9800       596
    41.0000       612
    41.0200       598
    41.0400       622
    41.0600       570
    41.0800       652
    41.1000       630
    41.1200       680
    41.1400       732
    41.1600       760
    41.1800       766
    41.2000       880
    41.2200       916
    41.2400       952
    41.2600      1052
    41.2800      1118
    41.3000      1122
    41.3200      1148
    41.3400      1174
    41.3600      1238
    41.3800      1324
    41.4000      1340
    41.4200      1306
    41.4400      1450
    41.4600      1494
    41.4800      1542
    41.5000      1530
    41.5200      1578
    41.5400      1576
    41.5600      1458
    41.5800      1408
    41.6000      1390
    41.6200      1244
    41.6400      1240
    41.6600      1168
    41.6800      1136
    41.7000      1138
    41.7200      1020
    41.7400      1008
    41.7600      1078
    41.7800      1158
    41.8000      1196
    41.8200      1224
    41.8400      1288
    41.8600      1420
    41.8800      1466
    41.9000      1524
    41.9200      1514
    41.9400      1598
    41.9600      1482
    41.9800      1498
    42.0000      1400
    42.0200      1350
    42.0400      1236
    42.0600      1146
    42.0800      1064
    42.1000       962
    42.1200       884
    42.1400       800
    42.1600       768
    42.1800       662
    42.2000       624
    42.2200       562
    42.2400       606
    42.2600       496
    42.2800       490
    42.3000       522
    42.3200       468
    42.3400       484
    42.3600       450
    42.3800       462
    42.4000       412
    42.4200       446
    42.4400       422
    42.4600       384
    42.4800       394
    42.5000       408
    42.5200       378
    42.5400       432
    42.5600       372
    42.5800       422
    42.6000       378
    42.6200       390
    42.6400       398
    42.6600       398
    42.6800       394
    42.7000       442
    42.7200       376
    42.7400       418
    42.7600       412
    42.7800       402
    42.8000       434
    42.8200       462
    42.8400       436
    42.8600       492
    42.8800       480
    42.9000       498
    42.9200       528
    42.9400       560
    42.9600       554
    42.9800       634
    43.0000       626
    43.0200       678
    43.0400       802
    43.0600       790
    43.0800       860
    43.1000       938
    43.1200      1020
    43.1400      1170
    43.1600      1282
    43.1800      1370
    43.2000      1472
    43.2200      1522
    43.2400      1606
    43.2600      1618
    43.2800      1512
    43.3000      1494
    43.3200      1438
    43.3400      1312
    43.3600      1234
    43.3800      1156
    43.4000      1012
    43.4200       952
    43.4400       872
    43.4600       822
    43.4800       678
    43.5000       628
    43.5200       632
    43.5400       574
    43.5600       566
    43.5800       550
    43.6000       556
    43.6200       546
    43.6400       520
    43.6600       490
    43.6800       528
    43.7000       508
    43.7200       572
    43.7400       568
    43.7600       596
    43.7800       624
    43.8000       624
    43.8200       620
    43.8400       656
    43.8600       650
    43.8800       658
    43.9000       682
    43.9200       694
    43.9400       632
    43.9600       582
    43.9800       594
    44.0000       592
    44.0200       500
    44.0400       524
    44.0600       514
    44.0800       504
    44.1000       488
    44.1200       450
    44.1400       438
    44.1600       494
    44.1800       446
    44.2000       464
    44.2200       454
    44.2400       464
    44.2600       488
    44.2800       468
    44.3000       470
    44.3200       480
    44.3400       480
    44.3600       494
    44.3800       488
    44.4000       484
    44.4200       514
    44.4400       482
    44.4600       474
    44.4800       472
    44.5000       484
    44.5200       472
    44.5400       488
    44.5600       504
    44.5800       530
    44.6000       532
    44.6200       514
    44.6400       528
    44.6600       572
    44.6800       556
    44.7000       548
    44.7200       600
    44.7400       600
    44.7600       608
    44.7800       602
    44.8000       584
    44.8200       652
    44.8400       692
    44.8600       696
    44.8800       712
    44.9000       752
    44.9200       792
    44.9400       856
    44.9600       882
    44.9800       934
    45.0000       958
    45.0200      1056
    45.0400      1096
    45.0600      1168
    45.0800      1198
    45.1000      1236
    45.1200      1366
    45.1400      1402
    45.1600      1492
    45.1800      1506
    45.2000      1632
    45.2200      1670
    45.2400      1816
    45.2600      1794
    45.2800      1744
    45.3000      1682
    45.3200      1712
    45.3400      1672
    45.3600      1520
    45.3800      1470
    45.4000      1494
    45.4200      1406
    45.4400      1408
    45.4600      1398
    45.4800      1320
    45.5000      1254
    45.5200      1258
    45.5400      1164
    45.5600      1062
    45.5800      1056
    45.6000       952
    45.6200      1014
    45.6400       970
    45.6600       910
    45.6800       820
    45.7000       808
    45.7200       800
    45.7400       802
    45.7600       786
    45.7800       832
    45.8000       792
    45.8200       802
    45.8400       804
    45.8600       800
    45.8800       814
    45.9000       844
    45.9200       796
    45.9400       788
    45.9600       782
    45.9800       750
    46.0000       704
    46.0200       740
    46.0400       768
    46.0600       782
    46.0800       732
    46.1000       774
    46.1200       764
    46.1400       752
    46.1600       764
    46.1800       806
    46.2000       830
    46.2200       856
    46.2400       888
    46.2600       944
    46.2800       952
    46.3000       986
    46.3200      1106
    46.3400      1126
    46.3600      1288
    46.3800      1294
    46.4000      1440
    46.4200      1592
    46.4400      1822
    46.4600      1858
    46.4800      2068
    46.5000      2368
    46.5200      2684
    46.5400      2820
    46.5600      3104
    46.5800      3572
    46.6000      3860
    46.6200      4416
    46.6400      4872
    46.6600      5206
    46.6800      5902
    46.7000      6254
    46.7200      6764
    46.7400      6920
    46.7600      6900
    46.7800      6866
    46.8000      6572
    46.8200      6378
    46.8400      6028
    46.8600      5674
    46.8800      5336
    46.9000      5102
    46.9200      4746
    46.9400      4320
    46.9600      4100
    46.9800      3764
    47.0000      3418
    47.0200      3320
    47.0400      3014
    47.0600      2760
    47.0800      2624
    47.1000      2482
    47.1200      2192
    47.1400      2102
    47.1600      1986
    47.1800      1804
    47.2000      1624
    47.2200      1548
    47.2400      1422
    47.2600      1196
    47.2800      1238
    47.3000      1112
    47.3200      1014
    47.3400       942
    47.3600       844
    47.3800       866
    47.4000       768
    47.4200       760
    47.4400       744
    47.4600       658
    47.4800       656
    47.5000       636
    47.5200       698
    47.5400       636
    47.5600       600
    47.5800       536
    47.6000       600
    47.6200       628
    47.6400       546
    47.6600       572
    47.6800       522
    47.7000       584
    47.7200       572
    47.7400       574
    47.7600       628
    47.7800       614
    47.8000       682
    47.8200       700
    47.8400       782
    47.8600       734
    47.8800       740
    47.9000       724
    47.9200       712
    47.9400       722
    47.9600       752
    47.9800       708
    48.0000       718
    48.0200       710
    48.0400       674
    48.0600       680
    48.0800       660
    48.1000       674
    48.1200       684
    48.1400       684
    48.1600       710
    48.1800       756
    48.2000       744
    48.2200       758
    48.2400       796
    48.2600       796
    48.2800       720
    48.3000       766
    48.3200       742
    48.3400       722
    48.3600       728
    48.3800       726
    48.4000       706
    48.4200       706
    48.4400       738
    48.4600       658
    48.4800       628
    48.5000       676
    48.5200       634
    48.5400       678
    48.5600       662
    48.5800       624
    48.6000       730
    48.6200       654
    48.6400       686
    48.6600       716
    48.6800       624
    48.7000       658
    48.7200       600
    48.7400       554
    48.7600       570
    48.7800       572
    48.8000       534
    48.8200       544
    48.8400       538
    48.8600       450
    48.8800       440
    48.9000       424
    48.9200       446
    48.9400       418
    48.9600       418
    48.9800       408
    49.0000       404
    49.0200       354
    49.0400       356
    49.0600       364
    49.0800       376
    49.1000       312
    49.1200       336
    49.1400       332
    49.1600       296
    49.1800       304
    49.2000       314
    49.2200       316
    49.2400       314
    49.2600       302
    49.2800       320
    49.3000       298
    49.3200       354
    49.3400       312
    49.3600       318
    49.3800       318
    49.4000       298
    49.4200       298
    49.4400       284
    49.4600       316
    49.4800       302
    49.5000       344
    49.5200       308
    49.5400       320
    49.5600       316
    49.5800       290
    49.6000       350
    49.6200       358
    49.6400       350
    49.6600       352
    49.6800       338
    49.7000       310
    49.7200       352
    49.7400       324
    49.7600       336
    49.7800       334
    49.8000       344
    49.8200       326
    49.8400       330
    49.8600       362
    49.8800       376
    49.9000       396
    49.9200       388
    49.9400       410
    49.9600       414
    49.9800       406
    50.0000       416
    50.0200       426
    50.0400       394
    50.0600       438
    50.0800       458
    50.1000       498
    50.1200       524
    50.1400       508
    50.1600       554
    50.1800       580
    50.2000       588
    50.2200       610
    50.2400       664
    50.2600       718
    50.2800       640
    50.3000       752
    50.3200       770
    50.3400       786
    50.3600       818
    50.3800       766
    50.4000       776
    50.4200       812
    50.4400       842
    50.4600       832
    50.4800       834
    50.5000       816
    50.5200       872
    50.5400       888
    50.5600       968
    50.5800       908
    50.6000       958
    50.6200      1020
    50.6400      1118
    50.6600      1234
    50.6800      1310
    50.7000      1374
    50.7200      1442
    50.7400      1530
    50.7600      1606
    50.7800      1754
    50.8000      1892
    50.8200      1924
    50.8400      1886
    50.8600      1844
    50.8800      1852
    50.9000      1800
    50.9200      1714
    50.9400      1674
    50.9600      1606
    50.9800      1570
    51.0000      1438
    51.0200      1322
    51.0400      1258
    51.0600      1138
    51.0800      1052
    51.1000      1056
    51.1200      1008
    51.1400       974
    51.1600       958
    51.1800       866
    51.2000       844
    51.2200       830
    51.2400       762
    51.2600       774
    51.2800       770
    51.3000       778
    51.3200       776
    51.3400       768
    51.3600       772
    51.3800       756
    51.4000       766
    51.4200       788
    51.4400       808
    51.4600       794
    51.4800       808
    51.5000       820
    51.5200       816
    51.5400       824
    51.5600       800
    51.5800       834
    51.6000       870
    51.6200       828
    51.6400       874
    51.6600       852
    51.6800       886
    51.7000       936
    51.7200       930
    51.7400      1012
    51.7600      1134
    51.7800      1158
    51.8000      1280
    51.8200      1376
    51.8400      1436
    51.8600      1432
    51.8800      1626
    51.9000      1690
    51.9200      1772
    51.9400      1818
    51.9600      1924
    51.9800      1866
    52.0000      2026
    52.0200      1884
    52.0400      1860
    52.0600      1818
    52.0800      1734
    52.1000      1596
    52.1200      1556
    52.1400      1430
    52.1600      1340
    52.1800      1218
    52.2000      1168
    52.2200      1062
    52.2400      1044
    52.2600       922
    52.2800       888
    52.3000       872
    52.3200       810
    52.3400       818
    52.3600       788
    52.3800       880
    52.4000       822
    52.4200       880
    52.4400       868
    52.4600       878
    52.4800       972
    52.5000       988
    52.5200      1020
    52.5400      1076
    52.5600      1186
    52.5800      1254
    52.6000      1230
    52.6200      1270
    52.6400      1344
    52.6600      1360
    52.6800      1318
    52.7000      1380
    52.7200      1406
    52.7400      1352
    52.7600      1250
    52.7800      1268
    52.8000      1244
    52.8200      1230
    52.8400      1134
    52.8600      1076
    52.8800       978
    52.9000      1004
    52.9200       936
    52.9400       928
    52.9600       900
    52.9800       852
    53.0000       832
    53.0200       814
    53.0400       788
    53.0600       792
    53.0800       768
    53.1000       844
    53.1200       864
    53.1400       894
    53.1600       912
    53.1800      1038
    53.2000      1030
    53.2200      1086
    53.2400      1154
    53.2600      1254
    53.2800      1332
    53.3000      1414
    53.3200      1424
    53.3400      1446
    53.3600      1438
    53.3800      1350
    53.4000      1262
    53.4200      1266
    53.4400      1146
    53.4600      1136
    53.4800      1122
    53.5000      1034
    53.5200       888
    53.5400       830
    53.5600       836
    53.5800       754
    53.6000       758
    53.6200       648
    53.6400       620
    53.6600       566
    53.6800       578
    53.7000       536
    53.7200       582
    53.7400       564
    53.7600       542
    53.7800       504
    53.8000       462
    53.8200       518
    53.8400       508
    53.8600       446
    53.8800       498
    53.9000       456
    53.9200       472
    53.9400       458
    53.9600       480
    53.9800       496
    54.0000       472
    54.0200       472
    54.0400       454
    54.0600       436
    54.0800       464
    54.1000       456
    54.1200       494
    54.1400       512
    54.1600       510
    54.1800       564
    54.2000       520
    54.2200       534
    54.2400       548
    54.2600       598
    54.2800       630
    54.3000       568
    54.3200       636
    54.3400       630
    54.3600       694
    54.3800       708
    54.4000       646
    54.4200       722
    54.4400       672
    54.4600       770
    54.4800       726
    54.5000       808
    54.5200       778
    54.5400       810
    54.5600       796
    54.5800       846
    54.6000       804
    54.6200       824
    54.6400       826
    54.6600       796
    54.6800       770
    54.7000       848
    54.7200       810
    54.7400       804
    54.7600       812
    54.7800       814
    54.8000       806
    54.8200       804
    54.8400       778
    54.8600       802
    54.8800       772
    54.9000       706
    54.9200       710
    54.9400       736
    54.9600       700
    54.9800       692
    55.0000       662
    55.0200       656
    55.0400       676
    55.0600       706
    55.0800       664
    55.1000       686
    55.1200       682
    55.1400       694
    55.1600       688
    55.1800       710
    55.2000       688
    55.2200       740
    55.2400       670
    55.2600       676
    55.2800       674
    55.3000       666
    55.3200       624
    55.3400       654
    55.3600       660
    55.3800       710
    55.4000       692
    55.4200       670
    55.4400       680
    55.4600       598
    55.4800       652
    55.5000       676
    55.5200       590
    55.5400       658
    55.5600       628
    55.5800       624
    55.6000       658
    55.6200       684
    55.6400       670
    55.6600       682
    55.6800       702
    55.7000       720
    55.7200       708
    55.7400       698
    55.7600       722
    55.7800       706
    55.8000       716
    55.8200       706
    55.8400       700
    55.8600       674
    55.8800       702
    55.9000       608
    55.9200       626
    55.9400       628
    55.9600       618
    55.9800       534
    56.0000       516
    56.0200       478
    56.0400       494
    56.0600       478
    56.0800       438
    56.1000       458
    56.1200       476
    56.1400       416
    56.1600       402
    56.1800       442
    56.2000       392
    56.2200       404
    56.2400       410
    56.2600       380
    56.2800       440
    56.3000       378
    56.3200       378
    56.3400       378
    56.3600       386
    56.3800       378
    56.4000       414
    56.4200       404
    56.4400       354
    56.4600       412
    56.4800       396
    56.5000       398
    56.5200       420
    56.5400       430
    56.5600       444
    56.5800       468
    56.6000       456
    56.6200       452
    56.6400       482
    56.6600       490
    56.6800       516
    56.7000       526
    56.7200       556
    56.7400       604
    56.7600       618
    56.7800       622
    56.8000       654
    56.8200       584
    56.8400       612
    56.8600       594
    56.8800       546
    56.9000       590
    56.9200       580
    56.9400       610
    56.9600       542
    56.9800       562
    57.0000       562
    57.0200       560
    57.0400       568
    57.0600       582
    57.0800       546
    57.1000       586
    57.1200       618
    57.1400       586
    57.1600       650
    57.1800       666
    57.2000       686
    57.2200       740
    57.2400       838
    57.2600       886
    57.2800       954
    57.3000       970
    57.3200      1088
    57.3400      1134
    57.3600      1274
    57.3800      1252
    57.4000      1314
    57.4200      1388
    57.4400      1450
    57.4600      1452
    57.4800      1412
    57.5000      1380
    57.5200      1308
    57.5400      1344
    57.5600      1296
    57.5800      1338
    57.6000      1256
    57.6200      1242
    57.6400      1308
    57.6600      1248
    57.6800      1230
    57.7000      1300
    57.7200      1310
    57.7400      1368
    57.7600      1348
    57.7800      1288
    57.8000      1332
    57.8200      1334
    57.8400      1338
    57.8600      1304
    57.8800      1220
    57.9000      1258
    57.9200      1242
    57.9400      1130
    57.9600      1006
    57.9800      1008
    58.0000       962
    58.0200       956
    58.0400       858
    58.0600       888
    58.0800       848
    58.1000       840
    58.1200       794
    58.1400       758
    58.1600       768
    58.1800       784
    58.2000       750
    58.2200       786
    58.2400       812
    58.2600       878
    58.2800       882
    58.3000       932
    58.3200       944
    58.3400      1028
    58.3600      1072
    58.3800      1080
    58.4000      1232
    58.4200      1280
    58.4400      1354
    58.4600      1410
    58.4800      1496
    58.5000      1640
    58.5200      1564
    58.5400      1798
    58.5600      1922
    58.5800      1902
    58.6000      2008
    58.6200      2156
    58.6400      2176
    58.6600      2276
    58.6800      2328
    58.7000      2354
    58.7200      2486
    58.7400      2540
    58.7600      2568
    58.7800      2512
    58.8000      2624
    58.8200      2430
    58.8400      2388
    58.8600      2400
    58.8800      2264
    58.9000      2146
    58.9200      2064
    58.9400      1988
    58.9600      1796
    58.9800      1754
    59.0000      1640
    59.0200      1564
    59.0400      1456
    59.0600      1388
    59.0800      1264
    59.1000      1232
    59.1200      1220
    59.1400      1140
    59.1600      1162
    59.1800      1014
    59.2000      1034
    59.2200      1078
    59.2400      1042
    59.2600      1076
    59.2800      1134
    59.3000      1114
    59.3200      1186
    59.3400      1232
    59.3600      1392
    59.3800      1374
    59.4000      1460
    59.4200      1556
    59.4400      1562
    59.4600      1536
    59.4800      1526
    59.5000      1510
    59.5200      1422
    59.5400      1320
    59.5600      1352
    59.5800      1284
    59.6000      1206
    59.6200      1206
    59.6400      1124
    59.6600      1064
    59.6800      1076
    59.7000      1012
    59.7200       968
    59.7400       858
    59.7600       862
    59.7800       778
    59.8000       792
    59.8200       730
    59.8400       716
    59.8600       660
    59.8800       672
    59.9000       614
    59.9200       624
    59.9400       628
    59.9600       600
    59.9800       608
    60.0000       530
    60.0200       534
    60.0400       576
    60.0600       484
    60.0800       540
    60.1000       468
    60.1200       446
    60.1400       456
    60.1600       410
    60.1800       464
    60.2000       420
    60.2200       416
    60.2400       428
    60.2600       386
    60.2800       424
    60.3000       380
    60.3200       358
    60.3400       402
    60.3600       386
    60.3800       380
    60.4000       390
    60.4200       378
    60.4400       358
    60.4600       372
    60.4800       404
    60.5000       388
    60.5200       412
    60.5400       384
    60.5600       384
    60.5800       386
    60.6000       378
    60.6200       364
    60.6400       390
    60.6600       446
    60.6800       410
    60.7000       422
    60.7200       388
    60.7400       418
    60.7600       402
    60.7800       438
    60.8000       468
    60.8200       448
    60.8400       442
    60.8600       462
    60.8800       416
    60.9000       444
    60.9200       512
    60.9400       546
    60.9600       510
    60.9800       500
    61.0000       562
    61.0200       572
    61.0400       582
    61.0600       634
    61.0800       638
    61.1000       634
    61.1200       664
    61.1400       670
    61.1600       688
    61.1800       714
    61.2000       644
    61.2200       754
    61.2400       746
    61.2600       760
    61.2800       788
    61.3000       818
    61.3200       844
    61.3400       858
    61.3600       868
    61.3800       938
    61.4000       962
    61.4200      1040
    61.4400      1044
    61.4600      1018
    61.4800      1118
    61.5000      1150
    61.5200      1152
    61.5400      1264
    61.5600      1230
    61.5800      1234
    61.6000      1268
    61.6200      1248
    61.6400      1242
    61.6600      1232
    61.6800      1178
    61.7000      1132
    61.7200      1074
    61.7400      1104
    61.7600      1060
    61.7800       980
    61.8000      1002
    61.8200       944
    61.8400       866
    61.8600       822
    61.8800       814
    61.9000       748
    61.9200       702
    61.9400       694
    61.9600       716
    61.9800       688
    62.0000       634
    62.0200       664
    62.0400       670
    62.0600       586
    62.0800       570
    62.1000       614
    62.1200       580
    62.1400       546
    62.1600       616
    62.1800       568
    62.2000       550
    62.2200       548
    62.2400       500
    62.2600       500
    62.2800       514
    62.3000       516
    62.3200       508
    62.3400       506
    62.3600       482
    62.3800       474
    62.4000       446
    62.4200       486
    62.4400       434
    62.4600       422
    62.4800       450
    62.5000       452
    62.5200       384
    62.5400       410
    62.5600       372
    62.5800       402
    62.6000       384
    62.6200       366
    62.6400       378
    62.6600       354
    62.6800       356
    62.7000       320
    62.7200       368
    62.7400       334
    62.7600       332
    62.7800       308
    62.8000       330
    62.8200       318
    62.8400       312
    62.8600       312
    62.8800       308
    62.9000       326
    62.9200       346
    62.9400       328
    62.9600       286
    62.9800       296
    63.0000       298
    63.0200       290
    63.0400       266
    63.0600       286
    63.0800       284
    63.1000       300
    63.1200       260
    63.1400       284
    63.1600       254
    63.1800       288
    63.2000       278
    63.2200       290
    63.2400       264
    63.2600       286
    63.2800       226
    63.3000       254
    63.3200       282
    63.3400       284
    63.3600       296
    63.3800       280
    63.4000       268
    63.4200       268
    63.4400       338
    63.4600       310
    63.4800       298
    63.5000       316
    63.5200       328
    63.5400       346
    63.5600       358
    63.5800       362
    63.6000       402
    63.6200       346
    63.6400       374
    63.6600       420
    63.6800       436
    63.7000       446
    63.7200       498
    63.7400       532
    63.7600       518
    63.7800       574
    63.8000       544
    63.8200       642
    63.8400       666
    63.8600       704
    63.8800       712
    63.9000       702
    63.9200       728
    63.9400       792
    63.9600       728
    63.9800       692
    64.0000       690
    64.0200       722
    64.0400       662
    64.0600       654
    64.0800       558
    64.1000       562
    64.1200       532
    64.1400       584
    64.1600       502
    64.1800       490
    64.2000       466
    64.2200       408
    64.2400       402
    64.2600       368
    64.2800       346
    64.3000       358
    64.3200       358
    64.3400       334
    64.3600       330
    64.3800       318
    64.4000       296
    64.4200       318
    64.4400       280
    64.4600       294
    64.4800       300
    64.5000       294
    64.5200       276
    64.5400       298
    64.5600       270
    64.5800       274
    64.6000       296
    64.6200       264
    64.6400       272
    64.6600       288
    64.6800       272
    64.7000       248
    64.7200       284
    64.7400       258
    64.7600       276
    64.7800       268
    64.8000       280
    64.8200       260
    64.8400       260
    64.8600       300
    64.8800       296
    64.9000       284
    64.9200       344
    64.9400       304
    64.9600       356
    64.9800       306
    65.0000       312
    65.0200       352
    65.0400       342
    65.0600       342
    65.0800       354
    65.1000       390
    65.1200       382
    65.1400       380
    65.1600       412
    65.1800       400
    65.2000       410
    65.2200       390
    65.2400       428
    65.2600       434
    65.2800       444
    65.3000       448
    65.3200       450
    65.3400       436
    65.3600       420
    65.3800       474
    65.4000       396
    65.4200       424
    65.4400       400
    65.4600       386
    65.4800       452
    65.5000       454
    65.5200       424
    65.5400       394
    65.5600       416
    65.5800       412
    65.6000       364
    65.6200       402
    65.6400       352
    65.6600       372
    65.6800       374
    65.7000       336
    65.7200       360
    65.7400       372
    65.7600       350
    65.7800       302
    65.8000       286
    65.8200       342
    65.8400       358
    65.8600       308
    65.8800       302
    65.9000       296
    65.9200       274
    65.9400       284
    65.9600       270
    65.9800       262
    66.0000       274
    66.0200       262
    66.0400       290
    66.0600       268
    66.0800       290
    66.1000       254
    66.1200       264
    66.1400       284
    66.1600       266
    66.1800       266
    66.2000       274
    66.2200       290
    66.2400       294
    66.2600       288
    66.2800       270
    66.3000       328
    66.3200       312
    66.3400       322
    66.3600       336
    66.3800       308
    66.4000       312
    66.4200       336
    66.4400       356
    66.4600       372
    66.4800       324
    66.5000       340
    66.5200       364
    66.5400       398
    66.5600       416
    66.5800       372
    66.6000       438
    66.6200       422
    66.6400       446
    66.6600       450
    66.6800       496
    66.7000       542
    66.7200       522
    66.7400       576
    66.7600       610
    66.7800       620
    66.8000       674
    66.8200       674
    66.8400       688
    66.8600       750
    66.8800       788
    66.9000       774
    66.9200       822
    66.9400       780
    66.9600       852
    66.9800       836
    67.0000       824
    67.0200       848
    67.0400       782
    67.0600       774
    67.0800       762
    67.1000       740
    67.1200       694
    67.1400       688
    67.1600       674
    67.1800       606
    67.2000       608
    67.2200       602
    67.2400       532
    67.2600       498
    67.2800       476
    67.3000       496
    67.3200       472
    67.3400       442
    67.3600       402
    67.3800       402
    67.4000       418
    67.4200       372
    67.4400       346
    67.4600       384
    67.4800       372
    67.5000       326
    67.5200       322
    67.5400       378
    67.5600       328
    67.5800       366
    67.6000       336
    67.6200       310
    67.6400       374
    67.6600       334
    67.6800       354
    67.7000       356
    67.7200       374
    67.7400       372
    67.7600       388
    67.7800       406
    67.8000       398
    67.8200       388
    67.8400       406
    67.8600       396
    67.8800       420
    67.9000       428
    67.9200       466
    67.9400       492
    67.9600       542
    67.9800       552
    68.0000       592
    68.0200       590
    68.0400       644
    68.0600       690
    68.0800       754
    68.1000       792
    68.1200       888
    68.1400       884
    68.1600       904
    68.1800       966
    68.2000       938
    68.2200       996
    68.2400      1026
    68.2600      1016
    68.2800      1040
    68.3000      1034
    68.3200      1008
    68.3400       960
    68.3600       970
    68.3800       936
    68.4000       948
    68.4200       884
    68.4400       828
    68.4600       858
    68.4800       784
    68.5000       816
    68.5200       770
    68.5400       768
    68.5600       758
    68.5800       720
    68.6000       680
    68.6200       658
    68.6400       632
    68.6600       616
    68.6800       590
    68.7000       592
    68.7200       540
    68.7400       542
    68.7600       554
    68.7800       514
    68.8000       530
    68.8200       506
    68.8400       508
    68.8600       440
    68.8800       416
    68.9000       484
    68.9200       442
    68.9400       442
    68.9600       422
    68.9800       420
    69.0000       392
    69.0200       370
    69.0400       406
    69.0600       414
    69.0800       392
    69.1000       420
    69.1200       440
    69.1400       430
    69.1600       388
    69.1800       434
    69.2000       420
    69.2200       442
    69.2400       448
    69.2600       418
    69.2800       418
    69.3000       448
    69.3200       464
    69.3400       484
    69.3600       466
    69.3800       478
    69.4000       506
    69.4200       480
    69.4400       504
    69.4600       530
    69.4800       500
    69.5000       482
    69.5200       510
    69.5400       512
    69.5600       476
    69.5800       456
    69.6000       476
    69.6200       496
    69.6400       438
    69.6600       440
    69.6800       422
    69.7000       450
    69.7200       464
    69.7400       448
    69.7600       420
    69.7800       430
    69.8000       432
    69.8200       398
    69.8400       402
    69.8600       404
    69.8800       402
    69.9000       394
    69.9200       396
    69.9400       384
    69.9600       394
    69.9800       396
    70.0000       402
    70.0200       382
    70.0400       332
    70.0600       352
    70.0800       360
    70.1000       336
    70.1200       346
    70.1400       328
    70.1600       324
    70.1800       328
    70.2000       294
    70.2200       290
    70.2400       300
    70.2600       288
    70.2800       296
    70.3000       262
    70.3200       230
    70.3400       250
    70.3600       284
    70.3800       248
    70.4000       240
    70.4200       278
    70.4400       250
    70.4600       272
    70.4800       254
    70.5000       238
    70.5200       276
    70.5400       270
    70.5600       256
    70.5800       246
    70.6000       248
    70.6200       254
    70.6400       280
    70.6600       250
    70.6800       234
    70.7000       264
    70.7200       236
    70.7400       240
    70.7600       284
    70.7800       288
    70.8000       278
    70.8200       258
    70.8400       242
    70.8600       212
    70.8800       254
    70.9000       220
    70.9200       232
    70.9400       238
    70.9600       214
    70.9800       242
    71.0000       246
    71.0200       246
    71.0400       232
    71.0600       238
    71.0800       264
    71.1000       262
    71.1200       224
    71.1400       250
    71.1600       270
    71.1800       266
    71.2000       272
    71.2200       280
    71.2400       288
    71.2600       268
    71.2800       292
    71.3000       314
    71.3200       324
    71.3400       330
    71.3600       396
    71.3800       360
    71.4000       372
    71.4200       416
    71.4400       400
    71.4600       458
    71.4800       498
    71.5000       482
    71.5200       496
    71.5400       512
    71.5600       564
    71.5800       524
    71.6000       554
    71.6200       512
    71.6400       536
    71.6600       558
    71.6800       550
    71.7000       540
    71.7200       522
    71.7400       494
    71.7600       556
    71.7800       516
    71.8000       540
    71.8200       480
    71.8400       508
    71.8600       488
    71.8800       508
    71.9000       498
    71.9200       490
    71.9400       488
    71.9600       434
    71.9800       402
    72.0000       454
    72.0200       424
    72.0400       452
    72.0600       436
    72.0800       408
    72.1000       432
    72.1200       442
    72.1400       426
    72.1600       396
    72.1800       440
    72.2000       442
    72.2200       450
    72.2400       448
    72.2600       452
    72.2800       430
    72.3000       470
    72.3200       478
    72.3400       464
    72.3600       500
    72.3800       442
    72.4000       452
    72.4200       488
    72.4400       478
    72.4600       504
    72.4800       424
    72.5000       466
    72.5200       472
    72.5400       498
    72.5600       502
    72.5800       454
    72.6000       488
    72.6200       510
    72.6400       518
    72.6600       520
    72.6800       504
    72.7000       512
    72.7200       524
    72.7400       510
    72.7600       542
    72.7800       514
    72.8000       504
    72.8200       500
    72.8400       490
    72.8600       472
    72.8800       508
    72.9000       502
    72.9200       486
    72.9400       458
    72.9600       462
    72.9800       472
    73.0000       450
    73.0200       462
    73.0400       472
    73.0600       442
    73.0800       460
    73.1000       390
    73.1200       412
    73.1400       362
    73.1600       356
    73.1800       382
    73.2000       334
    73.2200       358
    73.2400       314
    73.2600       310
    73.2800       276
    73.3000       304
    73.3200       290
    73.3400       254
    73.3600       268
    73.3800       282
    73.4000       268
    73.4200       264
    73.4400       264
    73.4600       240
    73.4800       240
    73.5000       244
    73.5200       248
    73.5400       234
    73.5600       234
    73.5800       236
    73.6000       246
    73.6200       264
    73.6400       264
    73.6600       238
    73.6800       246
    73.7000       252
    73.7200       258
    73.7400       218
    73.7600       240
    73.7800       224
    73.8000       248
    73.8200       228
    73.8400       246
    73.8600       218
    73.8800       258
    73.9000       276
    73.9200       230
    73.9400       246
    73.9600       284
    73.9800       266
    74.0000       298
    74.0200       252
    74.0400       232
    74.0600       240
    74.0800       270
    74.1000       232
    74.1200       274
    74.1400       260
    74.1600       290
    74.1800       290
    74.2000       264
    74.2200       270
    74.2400       276
    74.2600       238
    74.2800       268
    74.3000       272
    74.3200       234
    74.3400       250
    74.3600       246
    74.3800       280
    74.4000       258
    74.4200       242
    74.4400       264
    74.4600       232
    74.4800       232
    74.5000       220
    74.5200       242
    74.5400       228
    74.5600       236
    74.5800       222
    74.6000       214
    74.6200       194
    74.6400       180
    74.6600       192
    74.6800       220
    74.7000       226
    74.7200       192
    74.7400       200
    74.7600       224
    74.7800       192
    74.8000       216
    74.8200       214
    74.8400       202
    74.8600       168
    74.8800       186
    74.9000       204
    74.9200       214
    74.9400       200
    74.9600       226
    74.9800       216
    75.0000       222
    75.0200       222
    75.0400       186
    75.0600       198
    75.0800       194
    75.1000       204
    75.1200       196
    75.1400       228
    75.1600       210
    75.1800       214
    75.2000       210
    75.2200       202
    75.2400       262
    75.2600       232
    75.2800       220
    75.3000       220
    75.3200       224
    75.3400       208
    75.3600       248
    75.3800       258
    75.4000       288
    75.4200       224
    75.4400       262
    75.4600       282
    75.4800       250
    75.5000       258
    75.5200       276
    75.5400       292
    75.5600       278
    75.5800       310
    75.6000       278
    75.6200       304
    75.6400       292
    75.6600       282
    75.6800       314
    75.7000       314
    75.7200       312
    75.7400       314
    75.7600       346
    75.7800       340
    75.8000       366
    75.8200       360
    75.8400       350
    75.8600       354
    75.8800       346
    75.9000       352
    75.9200       342
    75.9400       364
    75.9600       368
    75.9800       332
    76.0000       364
    76.0200       324
    76.0400       334
    76.0600       360
    76.0800       316
    76.1000       306
    76.1200       344
    76.1400       344
    76.1600       346
    76.1800       328
    76.2000       328
    76.2200       324
    76.2400       326
    76.2600       328
    76.2800       364
    76.3000       326
    76.3200       322
    76.3400       322
    76.3600       346
    76.3800       326
    76.4000       344
    76.4200       346
    76.4400       346
    76.4600       362
    76.4800       376
    76.5000       388
    76.5200       364
    76.5400       360
    76.5600       398
    76.5800       366
    76.6000       422
    76.6200       392
    76.6400       398
    76.6600       472
    76.6800       366
    76.7000       410
    76.7200       394
    76.7400       410
    76.7600       368
    76.7800       372
    76.8000       430
    76.8200       370
    76.8400       360
    76.8600       408
    76.8800       378
    76.9000       376
    76.9200       362
    76.9400       350
    76.9600       354
    76.9800       350
    77.0000       382
    77.0200       370
    77.0400       362
    77.0600       330
    77.0800       338
    77.1000       332
    77.1200       360
    77.1400       370
    77.1600       370
    77.1800       308
    77.2000       350
    77.2200       346
    77.2400       406
    77.2600       336
    77.2800       386
    77.3000       364
    77.3200       386
    77.3400       430
    77.3600       392
    77.3800       402
    77.4000       436
    77.4200       452
    77.4400       456
    77.4600       442
    77.4800       488
    77.5000       496
    77.5200       526
    77.5400       546
    77.5600       530
    77.5800       578
    77.6000       616
    77.6200       660
    77.6400       638
    77.6600       634
    77.6800       686
    77.7000       692
    77.7200       712
    77.7400       718
    77.7600       668
    77.7800       688
    77.8000       698
    77.8200       614
    77.8400       646
    77.8600       646
    77.8800       608
    77.9000       596
    77.9200       566
    77.9400       564
    77.9600       554
    77.9800       544
    78.0000       550
    78.0200       506
    78.0400       504
    78.0600       412
    78.0800       470
    78.1000       450
    78.1200       450
    78.1400       442
    78.1600       398
    78.1800       366
    78.2000       374
    78.2200       346
    78.2400       400
    78.2600       370
    78.2800       358
    78.3000       348
    78.3200       362
    78.3400       358
    78.3600       362
    78.3800       350
    78.4000       368
    78.4200       392
    78.4400       362
    78.4600       358
    78.4800       346
    78.5000       408
    78.5200       378
    78.5400       376
    78.5600       384
    78.5800       404
    78.6000       390
    78.6200       390
    78.6400       416
    78.6600       422
    78.6800       420
    78.7000       376
    78.7200       404
    78.7400       420
    78.7600       428
    78.7800       420
    78.8000       416
    78.8200       424
    78.8400       400
    78.8600       422
    78.8800       362
    78.9000       370
    78.9200       370
    78.9400       404
    78.9600       332
    78.9800       328
    79.0000       326
    79.0200       344
    79.0400       330
    79.0600       340
    79.0800       304
    79.1000       298
    79.1200       312
    79.1400       322
    79.1600       270
    79.1800       330
    79.2000       290
    79.2200       296
    79.2400       282
    79.2600       262
    79.2800       260
    79.3000       256
    79.3200       254
    79.3400       272
    79.3600       260
    79.3800       242
    79.4000       226
    79.4200       264
    79.4400       244
    79.4600       246
    79.4800       244
    79.5000       244
    79.5200       252
    79.5400       282
    79.5600       254
    79.5800       256
    79.6000       220
    79.6200       262
    79.6400       264
    79.6600       256
    79.6800       268
    79.7000       280
    79.7200       272
    79.7400       266
    79.7600       270
    79.7800       260
    79.8000       244
    79.8200       260
    79.8400       226
    79.8600       278
    79.8800       240
    79.9000       264
    79.9200       258
    79.9400       238
    79.9600       222
    79.9800       250
    80.0000       266
    80.0200       234
    80.0400       280
    80.0600       232
    80.0800       272
    80.1000       246
    80.1200       250
    80.1400       264
    80.1600       238
    80.1800       252
    80.2000       244
    80.2200       244
    80.2400       258
    80.2600       258
    80.2800       232
    80.3000       242
    80.3200       248
    80.3400       264
    80.3600       234
    80.3800       240
    80.4000       232
    80.4200       242
    80.4400       238
    80.4600       238
    80.4800       254
    80.5000       222
    80.5200       242
    80.5400       226
    80.5600       238
    80.5800       230
    80.6000       248
    80.6200       234
    80.6400       226
    80.6600       226
    80.6800       238
    80.7000       224
    80.7200       248
    80.7400       222
    80.7600       236
    80.7800       208
    80.8000       210
    80.8200       248
    80.8400       234
    80.8600       232
    80.8800       208
    80.9000       234
    80.9200       200
    80.9400       204
    80.9600       214
    80.9800       220
    81.0000       214
    81.0200       234
    81.0400       186
    81.0600       208
    81.0800       234
    81.1000       216
    81.1200       238
    81.1400       204
    81.1600       212
    81.1800       200
    81.2000       206
    81.2200       230
    81.2400       234
    81.2600       222
    81.2800       220
    81.3000       228
    81.3200       230
    81.3400       236
    81.3600       262
    81.3800       262
    81.4000       272
    81.4200       256
    81.4400       238
    81.4600       254
    81.4800       270
    81.5000       242
    81.5200       258
    81.5400       264
    81.5600       264
    81.5800       260
    81.6000       268
    81.6200       246
    81.6400       288
    81.6600       250
    81.6800       260
    81.7000       262
    81.7200       288
    81.7400       272
    81.7600       260
    81.7800       296
    81.8000       288
    81.8200       290
    81.8400       272
    81.8600       276
    81.8800       308
    81.9000       264
    81.9200       266
    81.9400       300
    81.9600       278
    81.9800       288
    82.0000       292
    82.0200       332
    82.0400       318
    82.0600       334
    82.0800       326
    82.1000       302
    82.1200       292
    82.1400       310
    82.1600       350
    82.1800       312
    82.2000       310
    82.2200       368
    82.2400       328
    82.2600       376
    82.2800       336
    82.3000       356
    82.3200       380
    82.3400       346
    82.3600       378
    82.3800       412
    82.4000       362
    82.4200       378
    82.4400       404
    82.4600       424
    82.4800       454
    82.5000       378
    82.5200       416
    82.5400       454
    82.5600       404
    82.5800       442
    82.6000       488
    82.6200       470
    82.6400       522
    82.6600       502
    82.6800       512
    82.7000       550
    82.7200       542
    82.7400       550
    82.7600       584
    82.7800       570
    82.8000       638
    82.8200       636
    82.8400       676
    82.8600       666
    82.8800       732
    82.9000       674
    82.9200       642
    82.9400       698
    82.9600       716
    82.9800       646
    83.0000       646
    83.0200       618
    83.0400       664
    83.0600       668
    83.0800       598
    83.1000       584
    83.1200       570
    83.1400       620
    83.1600       544
    83.1800       578
    83.2000       584
    83.2200       536
    83.2400       514
    83.2600       494
    83.2800       478
    83.3000       468
    83.3200       442
    83.3400       446
    83.3600       428
    83.3800       432
    83.4000       448
    83.4200       406
    83.4400       408
    83.4600       398
    83.4800       396
    83.5000       410
    83.5200       388
    83.5400       366
    83.5600       336
    83.5800       340
    83.6000       360
    83.6200       334
    83.6400       350
    83.6600       340
    83.6800       324
    83.7000       352
    83.7200       328
    83.7400       384
    83.7600       304
    83.7800       300
    83.8000       300
    83.8200       322
    83.8400       300
    83.8600       356
    83.8800       302
    83.9000       326
    83.9200       308
    83.9400       322
    83.9600       308
    83.9800       328
    84.0000       338
    84.0200       298
    84.0400       296
    84.0600       298
    84.0800       342
    84.1000       312
    84.1200       298
    84.1400       320
    84.1600       328
    84.1800       300
    84.2000       342
    84.2200       312
    84.2400       306
    84.2600       306
    84.2800       304
    84.3000       314
    84.3200       294
    84.3400       292
    84.3600       280
    84.3800       310
    84.4000       300
    84.4200       286
    84.4400       278
    84.4600       278
    84.4800       294
    84.5000       282
    84.5200       296
    84.5400       288
    84.5600       282
    84.5800       304
    84.6000       250
    84.6200       252
    84.6400       256
    84.6600       274
    84.6800       284
    84.7000       290
    84.7200       282
    84.7400       284
    84.7600       296
    84.7800       274
    84.8000       272
    84.8200       242
    84.8400       274
    84.8600       258
    84.8800       244
    84.9000       296
    84.9200       242
    84.9400       282
    84.9600       268
    84.9800       246
    85.0000       284
    85.0200       260
    85.0400       294
    85.0600       254
    85.0800       294
    85.1000       284
    85.1200       260
    85.1400       248
    85.1600       266
    85.1800       238
    85.2000       258
    85.2200       250
    85.2400       270
    85.2600       258
    85.2800       280
    85.3000       260
    85.3200       230
    85.3400       260
    85.3600       258
    85.3800       256
    85.4000       238
    85.4200       220
    85.4400       238
    85.4600       252
    85.4800       252
    85.5000       236
    85.5200       238
    85.5400       260
    85.5600       274
    85.5800       276
    85.6000       308
    85.6200       264
    85.6400       272
    85.6600       286
    85.6800       300
    85.7000       272
    85.7200       280
    85.7400       248
    85.7600       270
    85.7800       264
    85.8000       254
    85.8200       308
    85.8400       272
    85.8600       254
    85.8800       276
    85.9000       262
    85.9200       274
    85.9400       266
    85.9600       244
    85.9800       266
    86.0000       254
    86.0200       226
    86.0400       230
    86.0600       210
    86.0800       194
    86.1000       230
    86.1200       220
    86.1400       250
    86.1600       250
    86.1800       232
    86.2000       238
    86.2200       246
    86.2400       236
    86.2600       234
    86.2800       228
    86.3000       226
    86.3200       268
    86.3400       230
    86.3600       252
    86.3800       270
    86.4000       230
    86.4200       240
    86.4400       264
    86.4600       282
    86.4800       254
    86.5000       250
    86.5200       256
    86.5400       256
    86.5600       260
    86.5800       268
    86.6000       256
    86.6200       292
    86.6400       264
    86.6600       306
    86.6800       288
    86.7000       310
    86.7200       298
    86.7400       338
    86.7600       308
    86.7800       344
    86.8000       344
    86.8200       348
    86.8400       336
    86.8600       374
    86.8800       316
    86.9000       384
    86.9200       374
    86.9400       422
    86.9600       440
    86.9800       376
    87.0000       422
    87.0200       406
    87.0400       388
    87.0600       436
    87.0800       416
    87.1000       420
    87.1200       446
    87.1400       430
    87.1600       488
    87.1800       430
    87.2000       452
    87.2200       434
    87.2400       398
    87.2600       468
    87.2800       488
    87.3000       468
    87.3200       476
    87.3400       446
    87.3600       454
    87.3800       474
    87.4000       496
    87.4200       474
    87.4400       452
    87.4600       496
    87.4800       462
    87.5000       436
    87.5200       458
    87.5400       466
    87.5600       418
    87.5800       436
    87.6000       476
    87.6200       440
    87.6400       432
    87.6600       482
    87.6800       462
    87.7000       470
    87.7200       426
    87.7400       534
    87.7600       460
    87.7800       488
    87.8000       468
    87.8200       472
    87.8400       444
    87.8600       488
    87.8800       438
    87.9000       430
    87.9200       424
    87.9400       408
    87.9600       412
    87.9800       402
    88.0000       386
    88.0200       408
    88.0400       408
    88.0600       398
    88.0800       400
    88.1000       364
    88.1200       390
    88.1400       386
    88.1600       388
    88.1800       338
    88.2000       314
    88.2200       364
    88.2400       380
    88.2600       348
    88.2800       286
    88.3000       368
    88.3200       366
    88.3400       326
    88.3600       322
    88.3800       322
    88.4000       310
    88.4200       298
    88.4400       278
    88.4600       312
    88.4800       340
    88.5000       296
    88.5200       352
    88.5400       296
    88.5600       304
    88.5800       318
    88.6000       294
    88.6200       258
    88.6400       262
    88.6600       300
    88.6800       310
    88.7000       282
    88.7200       298
    88.7400       304
    88.7600       266
    88.7800       294
    88.8000       288
    88.8200       284
    88.8400       290
    88.8600       300
    88.8800       266
    88.9000       268
    88.9200       284
    88.9400       292
    88.9600       274
    88.9800       278
    89.0000       282
    89.0200       256
    89.0400       282
    89.0600       290
    89.0800       250
    89.1000       224
    89.1200       254
    89.1400       256
    89.1600       232
    89.1800       248
    89.2000       236
    89.2200       232
    89.2400       240
    89.2600       250
    89.2800       252
    89.3000       214
    89.3200       240
    89.3400       248
    89.3600       244
    89.3800       252
    89.4000       238
    89.4200       268
    89.4400       234
    89.4600       276
    89.4800       252
    89.5000       246
    89.5200       294
    89.5400       240
    89.5600       290
    89.5800       258
    89.6000       270
    89.6200       282
    89.6400       306
    89.6600       254
    89.6800       258
    89.7000       288
    89.7200       284
    89.7400       284
    89.7600       282
    89.7800       290
    89.8000       276
    89.8200       274
    89.8400       292
    89.8600       318
    89.8800       280
    89.9000       284
    89.9200       276
    89.9400       272
    89.9600       288
    89.9800       286
    90.0000       284
