5.0000	3901.0000
5.0200	3654.0000
5.0400	3672.0000
5.0600	3424.0000
5.0800	3463.0000
5.1000	3347.0000
5.1200	3007.0000
5.1400	3092.0000
5.1600	2946.0000
5.1800	2877.0000
5.2000	2777.0000
5.2200	2646.0000
5.2400	2563.0000
5.2600	2489.0000
5.2800	2332.0000
5.3000	2174.0000
5.3200	2094.0000
5.3400	1913.0000
5.3600	1819.0000
5.3800	1686.0000
5.4000	1616.0000
5.4200	1526.0000
5.4400	1407.0000
5.4600	1321.0000
5.4800	1186.0000
5.5000	1141.0000
5.5200	1052.0000
5.5400	919.0000
5.5600	953.0000
5.5800	871.0000
5.6000	905.0000
5.6200	835.0000
5.6400	794.0000
5.6600	822.0000
5.6800	767.0000
5.7000	768.0000
5.7200	676.0000
5.7400	719.0000
5.7600	683.0000
5.7800	653.0000
5.8000	698.0000
5.8200	639.0000
5.8400	591.0000
5.8600	630.0000
5.8800	605.0000
5.9000	608.0000
5.9200	590.0000
5.9400	592.0000
5.9600	552.0000
5.9800	522.0000
6.0000	548.0000
6.0200	521.0000
6.0400	541.0000
6.0600	536.0000
6.0800	517.0000
6.1000	494.0000
6.1200	544.0000
6.1400	543.0000
6.1600	519.0000
6.1800	550.0000
6.2000	538.0000
6.2200	560.0000
6.2400	516.0000
6.2600	572.0000
6.2800	539.0000
6.3000	543.0000
6.3200	536.0000
6.3400	487.0000
6.3600	499.0000
6.3800	542.0000
6.4000	481.0000
6.4200	495.0000
6.4400	476.0000
6.4600	484.0000
6.4800	521.0000
6.5000	508.0000
6.5200	456.0000
6.5400	494.0000
6.5600	451.0000
6.5800	470.0000
6.6000	522.0000
6.6200	499.0000
6.6400	522.0000
6.6600	538.0000
6.6800	498.0000
6.7000	461.0000
6.7200	475.0000
6.7400	501.0000
6.7600	485.0000
6.7800	481.0000
6.8000	440.0000
6.8200	453.0000
6.8400	486.0000
6.8600	476.0000
6.8800	468.0000
6.9000	476.0000
6.9200	459.0000
6.9400	477.0000
6.9600	477.0000
6.9801	464.0000
7.0001	472.0000
7.0201	484.0000
7.0401	539.0000
7.0601	538.0000
7.0801	581.0000
7.1001	559.0000
7.1201	518.0000
7.1401	545.0000
7.1601	565.0000
7.1801	593.0000
7.2001	644.0000
7.2201	680.0000
7.2401	722.0000
7.2601	839.0000
7.2801	894.0000
7.3001	984.0000
7.3201	1018.0000
7.3401	1254.0000
7.3601	1332.0000
7.3801	1387.0000
7.4001	1378.0000
7.4201	1329.0000
7.4401	1165.0000
7.4601	971.0000
7.4801	789.0000
7.5001	692.0000
7.5201	635.0000
7.5401	552.0000
7.5601	516.0000
7.5801	502.0000
7.6001	467.0000
7.6201	477.0000
7.6401	449.0000
7.6601	410.0000
7.6801	408.0000
7.7001	401.0000
7.7201	431.0000
7.7401	389.0000
7.7601	411.0000
7.7801	396.0000
7.8001	366.0000
7.8201	365.0000
7.8401	391.0000
7.8601	346.0000
7.8801	369.0000
7.9001	415.0000
7.9201	371.0000
7.9401	334.0000
7.9601	341.0000
7.9801	337.0000
8.0001	362.0000
8.0201	358.0000
8.0401	333.0000
8.0601	373.0000
8.0801	344.0000
8.1001	321.0000
8.1201	348.0000
8.1401	301.0000
8.1601	362.0000
8.1801	335.0000
8.2001	348.0000
8.2201	333.0000
8.2401	357.0000
8.2601	311.0000
8.2801	331.0000
8.3001	341.0000
8.3201	342.0000
8.3401	314.0000
8.3601	340.0000
8.3801	289.0000
8.4001	300.0000
8.4201	342.0000
8.4401	324.0000
8.4601	352.0000
8.4801	360.0000
8.5001	305.0000
8.5201	294.0000
8.5401	301.0000
8.5601	341.0000
8.5801	360.0000
8.6001	355.0000
8.6201	359.0000
8.6401	393.0000
8.6601	396.0000
8.6801	447.0000
8.7001	509.0000
8.7201	552.0000
8.7401	632.0000
8.7601	680.0000
8.7801	846.0000
8.8001	932.0000
8.8201	1009.0000
8.8401	1229.0000
8.8601	1232.0000
8.8801	1075.0000
8.9001	791.0000
8.9201	582.0000
8.9401	402.0000
8.9601	352.0000
8.9801	348.0000
9.0001	304.0000
9.0201	295.0000
9.0401	320.0000
9.0601	294.0000
9.0801	300.0000
9.1001	296.0000
9.1201	295.0000
9.1401	319.0000
9.1601	304.0000
9.1801	298.0000
9.2001	302.0000
9.2201	326.0000
9.2401	282.0000
9.2601	278.0000
9.2801	305.0000
9.3001	294.0000
9.3201	355.0000
9.3401	302.0000
9.3601	324.0000
9.3801	304.0000
9.4001	312.0000
9.4201	319.0000
9.4401	297.0000
9.4601	299.0000
9.4801	328.0000
9.5001	285.0000
9.5201	276.0000
9.5401	256.0000
9.5601	259.0000
9.5801	256.0000
9.6001	266.0000
9.6201	265.0000
9.6401	283.0000
9.6601	247.0000
9.6801	259.0000
9.7001	258.0000
9.7201	298.0000
9.7401	284.0000
9.7601	299.0000
9.7801	316.0000
9.8001	309.0000
9.8201	322.0000
9.8401	287.0000
9.8601	255.0000
9.8801	261.0000
9.9001	265.0000
9.9201	256.0000
9.9401	264.0000
9.9601	238.0000
9.9801	252.0000
10.0001	233.0000
10.0201	247.0000
10.0401	262.0000
10.0601	247.0000
10.0801	276.0000
10.1001	240.0000
10.1201	273.0000
10.1401	261.0000
10.1601	251.0000
10.1801	253.0000
10.2001	251.0000
10.2201	258.0000
10.2401	250.0000
10.2601	240.0000
10.2801	230.0000
10.3001	237.0000
10.3201	239.0000
10.3401	256.0000
10.3601	260.0000
10.3801	274.0000
10.4001	297.0000
10.4201	307.0000
10.4401	304.0000
10.4601	394.0000
10.4801	402.0000
10.5001	431.0000
10.5201	402.0000
10.5401	346.0000
10.5601	306.0000
10.5801	252.0000
10.6001	268.0000
10.6201	235.0000
10.6401	240.0000
10.6601	234.0000
10.6801	236.0000
10.7001	221.0000
10.7201	249.0000
10.7401	257.0000
10.7601	202.0000
10.7801	204.0000
10.8001	217.0000
10.8201	234.0000
10.8401	237.0000
10.8601	252.0000
10.8801	230.0000
10.9001	228.0000
10.9202	262.0000
10.9402	220.0000
10.9602	224.0000
10.9802	233.0000
11.0002	257.0000
11.0202	224.0000
11.0402	231.0000
11.0602	215.0000
11.0802	214.0000
11.1002	234.0000
11.1202	227.0000
11.1402	241.0000
11.1602	200.0000
11.1802	230.0000
11.2002	220.0000
11.2202	251.0000
11.2402	215.0000
11.2602	229.0000
11.2802	269.0000
11.3002	214.0000
11.3202	227.0000
11.3402	225.0000
11.3602	256.0000
11.3802	223.0000
11.4002	245.0000
11.4202	248.0000
11.4402	241.0000
11.4602	225.0000
11.4802	245.0000
11.5002	261.0000
11.5202	213.0000
11.5402	241.0000
11.5602	273.0000
11.5802	272.0000
11.6002	225.0000
11.6202	243.0000
11.6402	255.0000
11.6602	242.0000
11.6802	263.0000
11.7002	261.0000
11.7202	254.0000
11.7402	244.0000
11.7602	258.0000
11.7802	281.0000
11.8002	281.0000
11.8202	287.0000
11.8402	301.0000
11.8602	285.0000
11.8802	292.0000
11.9002	297.0000
11.9202	342.0000
11.9402	300.0000
11.9602	350.0000
11.9802	341.0000
12.0002	348.0000
12.0202	340.0000
12.0402	344.0000
12.0602	374.0000
12.0802	384.0000
12.1002	403.0000
12.1202	342.0000
12.1402	403.0000
12.1602	463.0000
12.1802	436.0000
12.2002	446.0000
12.2202	471.0000
12.2402	493.0000
12.2602	455.0000
12.2802	427.0000
12.3002	513.0000
12.3202	497.0000
12.3402	448.0000
12.3602	494.0000
12.3802	438.0000
12.4002	460.0000
12.4202	461.0000
12.4402	488.0000
12.4602	481.0000
12.4802	473.0000
12.5002	486.0000
12.5202	448.0000
12.5402	319.0000
12.5602	304.0000
12.5802	316.0000
12.6002	275.0000
12.6202	275.0000
12.6402	263.0000
12.6602	286.0000
12.6802	255.0000
12.7002	261.0000
12.7202	237.0000
12.7402	216.0000
12.7602	256.0000
12.7802	264.0000
12.8002	235.0000
12.8202	225.0000
12.8402	193.0000
12.8602	208.0000
12.8802	217.0000
12.9002	225.0000
12.9202	192.0000
12.9402	208.0000
12.9602	203.0000
12.9802	214.0000
13.0002	183.0000
13.0202	196.0000
13.0402	198.0000
13.0602	165.0000
13.0802	186.0000
13.1002	196.0000
13.1202	200.0000
13.1402	167.0000
13.1602	194.0000
13.1802	159.0000
13.2002	170.0000
13.2202	184.0000
13.2402	182.0000
13.2602	170.0000
13.2802	169.0000
13.3002	177.0000
13.3202	192.0000
13.3402	181.0000
13.3602	190.0000
13.3802	199.0000
13.4002	172.0000
13.4202	166.0000
13.4402	176.0000
13.4602	164.0000
13.4802	207.0000
13.5002	178.0000
13.5202	180.0000
13.5402	186.0000
13.5602	173.0000
13.5802	167.0000
13.6002	189.0000
13.6202	168.0000
13.6402	170.0000
13.6602	168.0000
13.6802	185.0000
13.7002	182.0000
13.7202	162.0000
13.7402	164.0000
13.7602	182.0000
13.7802	152.0000
13.8002	163.0000
13.8202	173.0000
13.8402	188.0000
13.8602	189.0000
13.8802	183.0000
13.9002	174.0000
13.9202	172.0000
13.9402	160.0000
13.9602	156.0000
13.9802	170.0000
14.0002	170.0000
14.0202	151.0000
14.0402	171.0000
14.0602	175.0000
14.0802	152.0000
14.1002	164.0000
14.1202	163.0000
14.1402	153.0000
14.1602	152.0000
14.1802	163.0000
14.2002	153.0000
14.2202	174.0000
14.2402	171.0000
14.2602	133.0000
14.2802	175.0000
14.3002	162.0000
14.3202	131.0000
14.3402	174.0000
14.3602	166.0000
14.3802	169.0000
14.4002	143.0000
14.4202	151.0000
14.4402	161.0000
14.4602	156.0000
14.4802	135.0000
14.5002	138.0000
14.5202	137.0000
14.5402	145.0000
14.5602	176.0000
14.5802	154.0000
14.6002	143.0000
14.6202	145.0000
14.6402	144.0000
14.6602	161.0000
14.6802	161.0000
14.7002	151.0000
14.7202	149.0000
14.7402	150.0000
14.7602	175.0000
14.7802	140.0000
14.8002	163.0000
14.8202	159.0000
14.8402	202.0000
14.8603	182.0000
14.8803	169.0000
14.9003	170.0000
14.9203	164.0000
14.9403	167.0000
14.9603	177.0000
14.9803	143.0000
15.0003	120.0000
15.0203	170.0000
15.0403	159.0000
15.0603	141.0000
15.0803	164.0000
15.1003	169.0000
15.1203	161.0000
15.1403	163.0000
15.1603	169.0000
15.1803	154.0000
15.2003	135.0000
15.2203	166.0000
15.2403	155.0000
15.2603	141.0000
15.2803	147.0000
15.3003	135.0000
15.3203	134.0000
15.3403	141.0000
15.3603	152.0000
15.3803	131.0000
15.4003	159.0000
15.4203	147.0000
15.4403	140.0000
15.4603	135.0000
15.4803	154.0000
15.5003	152.0000
15.5203	142.0000
15.5403	147.0000
15.5603	160.0000
15.5803	163.0000
15.6003	170.0000
15.6203	139.0000
15.6403	130.0000
15.6603	146.0000
15.6803	144.0000
15.7003	135.0000
15.7203	149.0000
15.7403	154.0000
15.7603	118.0000
15.7803	140.0000
15.8003	156.0000
15.8203	144.0000
15.8403	135.0000
15.8603	128.0000
15.8803	152.0000
15.9003	144.0000
15.9203	136.0000
15.9403	136.0000
15.9603	165.0000
15.9803	136.0000
16.0003	148.0000
16.0203	161.0000
16.0403	166.0000
16.0603	150.0000
16.0803	166.0000
16.1003	158.0000
16.1203	141.0000
16.1403	151.0000
16.1603	136.0000
16.1803	147.0000
16.2003	137.0000
16.2203	155.0000
16.2403	144.0000
16.2603	153.0000
16.2803	124.0000
16.3003	141.0000
16.3203	130.0000
16.3403	133.0000
16.3603	122.0000
16.3803	157.0000
16.4003	154.0000
16.4203	141.0000
16.4403	138.0000
16.4603	145.0000
16.4803	159.0000
16.5003	136.0000
16.5203	146.0000
16.5403	139.0000
16.5603	135.0000
16.5803	148.0000
16.6003	153.0000
16.6203	118.0000
16.6403	185.0000
16.6603	157.0000
16.6803	145.0000
16.7003	126.0000
16.7203	151.0000
16.7403	125.0000
16.7603	176.0000
16.7803	130.0000
16.8003	150.0000
16.8203	145.0000
16.8403	127.0000
16.8603	124.0000
16.8803	148.0000
16.9003	153.0000
16.9203	171.0000
16.9403	160.0000
16.9603	148.0000
16.9803	137.0000
17.0003	144.0000
17.0203	153.0000
17.0403	151.0000
17.0603	144.0000
17.0803	128.0000
17.1003	146.0000
17.1203	151.0000
17.1403	144.0000
17.1603	158.0000
17.1803	153.0000
17.2003	145.0000
17.2203	153.0000
17.2403	157.0000
17.2603	156.0000
17.2803	171.0000
17.3003	153.0000
17.3203	180.0000
17.3403	168.0000
17.3603	189.0000
17.3803	187.0000
17.4003	215.0000
17.4203	195.0000
17.4403	199.0000
17.4603	199.0000
17.4803	164.0000
17.5003	176.0000
17.5203	202.0000
17.5403	200.0000
17.5603	210.0000
17.5803	159.0000
17.6003	214.0000
17.6203	265.0000
17.6403	257.0000
17.6603	256.0000
17.6803	309.0000
17.7003	373.0000
17.7203	424.0000
17.7403	498.0000
17.7603	497.0000
17.7803	511.0000
17.8003	464.0000
17.8203	424.0000
17.8403	337.0000
17.8603	275.0000
17.8803	259.0000
17.9003	226.0000
17.9203	202.0000
17.9403	220.0000
17.9603	207.0000
17.9803	205.0000
18.0003	194.0000
18.0203	170.0000
18.0403	172.0000
18.0603	221.0000
18.0803	191.0000
18.1003	182.0000
18.1203	199.0000
18.1403	198.0000
18.1603	195.0000
18.1803	206.0000
18.2003	177.0000
18.2203	161.0000
18.2403	174.0000
18.2603	180.0000
18.2803	151.0000
18.3003	129.0000
18.3203	153.0000
18.3403	157.0000
18.3603	173.0000
18.3803	162.0000
18.4003	154.0000
18.4203	167.0000
18.4403	177.0000
18.4603	178.0000
18.4803	164.0000
18.5003	179.0000
18.5203	170.0000
18.5403	156.0000
18.5603	150.0000
18.5803	147.0000
18.6003	171.0000
18.6203	183.0000
18.6403	178.0000
18.6603	190.0000
18.6803	203.0000
18.7003	211.0000
18.7203	213.0000
18.7403	232.0000
18.7603	236.0000
18.7803	240.0000
18.8004	201.0000
18.8204	228.0000
18.8404	208.0000
18.8604	199.0000
18.8804	187.0000
18.9004	192.0000
18.9204	172.0000
18.9404	185.0000
18.9604	154.0000
18.9804	173.0000
19.0004	197.0000
19.0204	180.0000
19.0404	195.0000
19.0604	156.0000
19.0804	165.0000
19.1004	170.0000
19.1204	179.0000
19.1404	173.0000
19.1604	201.0000
19.1804	176.0000
19.2004	203.0000
19.2204	195.0000
19.2404	238.0000
19.2604	244.0000
19.2804	251.0000
19.3004	228.0000
19.3204	215.0000
19.3404	204.0000
19.3604	244.0000
19.3804	223.0000
19.4004	237.0000
19.4204	220.0000
19.4404	208.0000
19.4604	203.0000
19.4804	233.0000
19.5004	210.0000
19.5204	238.0000
19.5404	236.0000
19.5604	253.0000
19.5804	249.0000
19.6004	237.0000
19.6204	291.0000
19.6404	301.0000
19.6604	323.0000
19.6804	340.0000
19.7004	363.0000
19.7204	369.0000
19.7404	380.0000
19.7604	423.0000
19.7804	420.0000
19.8004	455.0000
19.8204	483.0000
19.8404	503.0000
19.8604	607.0000
19.8804	637.0000
19.9004	584.0000
19.9204	583.0000
19.9404	550.0000
19.9604	502.0000
19.9804	478.0000
20.0004	437.0000
20.0204	377.0000
20.0404	361.0000
20.0604	368.0000
20.0804	373.0000
20.1004	387.0000
20.1204	351.0000
20.1404	343.0000
20.1604	356.0000
20.1804	392.0000
20.2004	356.0000
20.2204	360.0000
20.2404	364.0000
20.2604	340.0000
20.2804	321.0000
20.3004	367.0000
20.3204	366.0000
20.3404	335.0000
20.3604	365.0000
20.3804	337.0000
20.4004	373.0000
20.4204	377.0000
20.4404	312.0000
20.4604	350.0000
20.4804	380.0000
20.5004	376.0000
20.5204	366.0000
20.5404	361.0000
20.5604	389.0000
20.5804	417.0000
20.6004	431.0000
20.6204	471.0000
20.6404	467.0000
20.6604	419.0000
20.6804	445.0000
20.7004	469.0000
20.7204	490.0000
20.7404	548.0000
20.7604	597.0000
20.7804	876.0000
20.8004	1245.0000
20.8204	2037.0000
20.8404	2752.0000
20.8604	3011.0000
20.8804	2398.0000
20.9004	1898.0000
20.9204	1601.0000
20.9404	906.0000
20.9604	702.0000
20.9804	633.0000
21.0004	638.0000
21.0204	679.0000
21.0404	680.0000
21.0604	682.0000
21.0804	713.0000
21.1004	719.0000
21.1204	815.0000
21.1404	811.0000
21.1604	919.0000
21.1804	973.0000
21.2004	1027.0000
21.2204	971.0000
21.2404	975.0000
21.2604	993.0000
21.2804	953.0000
21.3004	947.0000
21.3204	821.0000
21.3404	740.0000
21.3604	786.0000
21.3804	695.0000
21.4004	605.0000
21.4204	616.0000
21.4404	565.0000
21.4604	571.0000
21.4804	549.0000
21.5004	545.0000
21.5204	512.0000
21.5404	523.0000
21.5604	487.0000
21.5804	472.0000
21.6004	435.0000
21.6204	475.0000
21.6404	414.0000
21.6604	407.0000
21.6804	440.0000
21.7004	378.0000
21.7204	364.0000
21.7404	347.0000
21.7604	332.0000
21.7804	334.0000
21.8004	354.0000
21.8204	325.0000
21.8404	346.0000
21.8604	307.0000
21.8804	291.0000
21.9004	292.0000
21.9204	278.0000
21.9404	272.0000
21.9604	284.0000
21.9804	268.0000
22.0004	281.0000
22.0204	302.0000
22.0404	270.0000
22.0604	289.0000
22.0804	261.0000
22.1004	251.0000
22.1204	233.0000
22.1404	272.0000
22.1604	259.0000
22.1804	260.0000
22.2004	259.0000
22.2204	310.0000
22.2404	314.0000
22.2604	320.0000
22.2804	326.0000
22.3004	318.0000
22.3204	297.0000
22.3404	290.0000
22.3604	275.0000
22.3804	265.0000
22.4004	277.0000
22.4204	274.0000
22.4404	258.0000
22.4604	250.0000
22.4804	231.0000
22.5004	239.0000
22.5204	222.0000
22.5404	228.0000
22.5604	237.0000
22.5804	254.0000
22.6004	221.0000
22.6204	242.0000
22.6404	227.0000
22.6604	207.0000
22.6804	218.0000
22.7004	231.0000
22.7204	224.0000
22.7404	240.0000
22.7605	255.0000
22.7805	233.0000
22.8005	254.0000
22.8205	274.0000
22.8405	283.0000
22.8605	337.0000
22.8805	369.0000
22.9005	389.0000
22.9205	399.0000
22.9405	337.0000
22.9605	331.0000
22.9805	309.0000
23.0005	297.0000
23.0205	241.0000
23.0405	235.0000
23.0605	226.0000
23.0805	248.0000
23.1005	212.0000
23.1205	204.0000
23.1405	239.0000
23.1605	197.0000
23.1805	216.0000
23.2005	178.0000
23.2205	225.0000
23.2405	207.0000
23.2605	190.0000
23.2805	169.0000
23.3005	189.0000
23.3205	203.0000
23.3405	208.0000
23.3605	199.0000
23.3805	178.0000
23.4005	192.0000
23.4205	207.0000
23.4405	201.0000
23.4605	184.0000
23.4805	206.0000
23.5005	202.0000
23.5205	200.0000
23.5405	189.0000
23.5605	209.0000
23.5805	205.0000
23.6005	223.0000
23.6205	224.0000
23.6405	213.0000
23.6605	202.0000
23.6805	240.0000
23.7005	212.0000
23.7205	236.0000
23.7405	292.0000
23.7605	307.0000
23.7805	300.0000
23.8005	315.0000
23.8205	303.0000
23.8405	324.0000
23.8605	290.0000
23.8805	276.0000
23.9005	312.0000
23.9205	263.0000
23.9405	252.0000
23.9605	239.0000
23.9805	269.0000
24.0005	233.0000
24.0205	220.0000
24.0405	251.0000
24.0605	198.0000
24.0805	208.0000
24.1005	232.0000
24.1205	206.0000
24.1405	179.0000
24.1605	177.0000
24.1805	223.0000
24.2005	239.0000
24.2205	199.0000
24.2405	214.0000
24.2605	234.0000
24.2805	218.0000
24.3005	213.0000
24.3205	237.0000
24.3405	231.0000
24.3605	207.0000
24.3805	239.0000
24.4005	239.0000
24.4205	248.0000
24.4405	232.0000
24.4605	235.0000
24.4805	257.0000
24.5005	219.0000
24.5205	263.0000
24.5405	263.0000
24.5605	252.0000
24.5805	228.0000
24.6005	295.0000
24.6205	265.0000
24.6405	275.0000
24.6605	270.0000
24.6805	311.0000
24.7005	333.0000
24.7205	300.0000
24.7405	331.0000
24.7605	329.0000
24.7805	335.0000
24.8005	357.0000
24.8205	356.0000
24.8405	371.0000
24.8605	367.0000
24.8805	389.0000
24.9005	354.0000
24.9205	371.0000
24.9405	358.0000
24.9605	367.0000
24.9805	364.0000
25.0005	362.0000
25.0205	370.0000
25.0405	338.0000
25.0605	360.0000
25.0805	386.0000
25.1005	381.0000
25.1205	365.0000
25.1405	393.0000
25.1605	345.0000
25.1805	376.0000
25.2005	343.0000
25.2205	291.0000
25.2405	260.0000
25.2605	289.0000
25.2805	287.0000
25.3005	292.0000
25.3205	299.0000
25.3405	265.0000
25.3605	298.0000
25.3805	298.0000
25.4005	315.0000
25.4205	324.0000
25.4405	350.0000
25.4605	403.0000
25.4805	416.0000
25.5005	466.0000
25.5205	410.0000
25.5405	395.0000
25.5605	394.0000
25.5805	354.0000
25.6005	329.0000
25.6205	316.0000
25.6405	308.0000
25.6605	254.0000
25.6805	311.0000
25.7005	257.0000
25.7205	239.0000
25.7405	221.0000
25.7605	234.0000
25.7805	245.0000
25.8005	233.0000
25.8205	239.0000
25.8405	219.0000
25.8605	270.0000
25.8805	229.0000
25.9005	225.0000
25.9205	217.0000
25.9405	203.0000
25.9605	223.0000
25.9805	225.0000
26.0005	219.0000
26.0205	248.0000
26.0405	227.0000
26.0605	230.0000
26.0805	226.0000
26.1005	214.0000
26.1205	203.0000
26.1405	240.0000
26.1605	279.0000
26.1805	266.0000
26.2005	231.0000
26.2205	299.0000
26.2405	309.0000
26.2605	307.0000
26.2805	359.0000
26.3005	417.0000
26.3205	416.0000
26.3405	506.0000
26.3605	537.0000
26.3805	554.0000
26.4005	540.0000
26.4205	536.0000
26.4405	560.0000
26.4605	580.0000
26.4805	637.0000
26.5005	738.0000
26.5205	970.0000
26.5405	1221.0000
26.5605	2058.0000
26.5805	4043.0000
26.6005	7047.0000
26.6205	10282.0000
26.6405	10116.0000
26.6605	7435.0000
26.6805	6362.0000
26.7006	6143.0000
26.7206	4287.0000
26.7406	2192.0000
26.7606	1402.0000
26.7806	1258.0000
26.8006	986.0000
26.8206	956.0000
26.8406	809.0000
26.8606	602.0000
26.8806	494.0000
26.9006	433.0000
26.9206	385.0000
26.9406	353.0000
26.9606	317.0000
26.9806	302.0000
27.0006	286.0000
27.0206	250.0000
27.0406	299.0000
27.0606	258.0000
27.0806	255.0000
27.1006	224.0000
27.1206	235.0000
27.1406	235.0000
27.1606	222.0000
27.1806	271.0000
27.2006	279.0000
27.2206	296.0000
27.2406	302.0000
27.2606	257.0000
27.2806	233.0000
27.3006	244.0000
27.3206	230.0000
27.3406	239.0000
27.3606	225.0000
27.3806	236.0000
27.4006	267.0000
27.4206	277.0000
27.4406	248.0000
27.4606	231.0000
27.4806	252.0000
27.5006	268.0000
27.5206	242.0000
27.5406	241.0000
27.5606	225.0000
27.5806	221.0000
27.6006	215.0000
27.6206	210.0000
27.6406	221.0000
27.6606	232.0000
27.6806	242.0000
27.7006	230.0000
27.7206	245.0000
27.7406	253.0000
27.7606	278.0000
27.7806	294.0000
27.8006	340.0000
27.8206	314.0000
27.8406	375.0000
27.8606	378.0000
27.8806	408.0000
27.9006	379.0000
27.9206	342.0000
27.9406	338.0000
27.9606	271.0000
27.9806	298.0000
28.0006	273.0000
28.0206	250.0000
28.0406	238.0000
28.0606	238.0000
28.0806	217.0000
28.1006	247.0000
28.1206	223.0000
28.1406	207.0000
28.1606	236.0000
28.1806	181.0000
28.2006	208.0000
28.2206	214.0000
28.2406	216.0000
28.2606	206.0000
28.2806	202.0000
28.3006	211.0000
28.3206	211.0000
28.3406	191.0000
28.3606	157.0000
28.3806	205.0000
28.4006	205.0000
28.4206	188.0000
28.4406	226.0000
28.4606	225.0000
28.4806	232.0000
28.5006	231.0000
28.5206	306.0000
28.5406	402.0000
28.5606	422.0000
28.5806	346.0000
28.6006	334.0000
28.6206	353.0000
28.6406	304.0000
28.6606	233.0000
28.6806	258.0000
28.7006	222.0000
28.7206	188.0000
28.7406	181.0000
28.7606	188.0000
28.7806	194.0000
28.8006	202.0000
28.8206	164.0000
28.8406	191.0000
28.8606	191.0000
28.8806	175.0000
28.9006	150.0000
28.9206	176.0000
28.9406	149.0000
28.9606	169.0000
28.9806	192.0000
29.0006	186.0000
29.0206	177.0000
29.0406	198.0000
29.0606	180.0000
29.0806	195.0000
29.1006	189.0000
29.1206	202.0000
29.1406	177.0000
29.1606	171.0000
29.1806	168.0000
29.2006	165.0000
29.2206	149.0000
29.2406	166.0000
29.2606	173.0000
29.2806	202.0000
29.3006	168.0000
29.3206	161.0000
29.3406	169.0000
29.3606	176.0000
29.3806	167.0000
29.4006	192.0000
29.4206	186.0000
29.4406	172.0000
29.4606	209.0000
29.4806	178.0000
29.5006	202.0000
29.5206	231.0000
29.5406	194.0000
29.5606	216.0000
29.5806	210.0000
29.6006	234.0000
29.6206	258.0000
29.6406	204.0000
29.6606	212.0000
29.6806	210.0000
29.7006	271.0000
29.7206	218.0000
29.7406	281.0000
29.7606	277.0000
29.7806	319.0000
29.8006	325.0000
29.8206	342.0000
29.8406	415.0000
29.8606	424.0000
29.8806	461.0000
29.9006	468.0000
29.9206	486.0000
29.9406	453.0000
29.9606	465.0000
29.9806	423.0000
30.0006	352.0000
30.0206	358.0000
30.0406	302.0000
30.0606	292.0000
30.0806	248.0000
30.1006	244.0000
30.1206	238.0000
30.1406	228.0000
30.1606	219.0000
30.1806	255.0000
30.2006	225.0000
30.2206	215.0000
30.2406	189.0000
30.2606	185.0000
30.2806	182.0000
30.3006	198.0000
30.3206	187.0000
30.3406	203.0000
30.3606	197.0000
30.3806	206.0000
30.4006	255.0000
30.4206	223.0000
30.4406	201.0000
30.4606	189.0000
30.4806	183.0000
30.5006	173.0000
30.5206	169.0000
30.5406	179.0000
30.5606	160.0000
30.5806	156.0000
30.6006	155.0000
30.6206	157.0000
30.6407	149.0000
30.6607	167.0000
30.6807	142.0000
30.7007	146.0000
30.7207	177.0000
30.7407	171.0000
30.7607	159.0000
30.7807	133.0000
30.8007	173.0000
30.8207	167.0000
30.8407	173.0000
30.8607	164.0000
30.8807	160.0000
30.9007	193.0000
30.9207	192.0000
30.9407	143.0000
30.9607	177.0000
30.9807	176.0000
31.0007	158.0000
31.0207	163.0000
31.0407	189.0000
31.0607	163.0000
31.0807	191.0000
31.1007	192.0000
31.1207	208.0000
31.1407	209.0000
31.1607	212.0000
31.1807	263.0000
31.2007	301.0000
31.2207	275.0000
31.2407	321.0000
31.2607	287.0000
31.2807	294.0000
31.3007	282.0000
31.3207	269.0000
31.3407	231.0000
31.3607	203.0000
31.3807	208.0000
31.4007	220.0000
31.4207	200.0000
31.4407	179.0000
31.4607	183.0000
31.4807	176.0000
31.5007	166.0000
31.5207	192.0000
31.5407	172.0000
31.5607	184.0000
31.5807	173.0000
31.6007	152.0000
31.6207	153.0000
31.6407	149.0000
31.6607	172.0000
31.6807	189.0000
31.7007	149.0000
31.7207	163.0000
31.7407	152.0000
31.7607	167.0000
31.7807	137.0000
31.8007	164.0000
31.8207	176.0000
31.8407	196.0000
31.8607	228.0000
31.8807	215.0000
31.9007	209.0000
31.9207	226.0000
31.9407	219.0000
31.9607	225.0000
31.9807	266.0000
32.0007	244.0000
32.0207	272.0000
32.0407	267.0000
32.0607	244.0000
32.0807	260.0000
32.1007	232.0000
32.1207	240.0000
32.1407	220.0000
32.1607	211.0000
32.1807	232.0000
32.2007	221.0000
32.2207	193.0000
32.2407	218.0000
32.2607	174.0000
32.2807	175.0000
32.3007	171.0000
32.3207	196.0000
32.3407	160.0000
32.3607	136.0000
32.3807	175.0000
32.4007	167.0000
32.4207	155.0000
32.4407	173.0000
32.4607	140.0000
32.4807	160.0000
32.5007	173.0000
32.5207	175.0000
32.5407	164.0000
32.5607	161.0000
32.5807	158.0000
32.6007	179.0000
32.6207	177.0000
32.6407	159.0000
32.6607	168.0000
32.6807	170.0000
32.7007	204.0000
32.7207	196.0000
32.7407	224.0000
32.7607	200.0000
32.7807	217.0000
32.8007	206.0000
32.8207	212.0000
32.8407	232.0000
32.8607	192.0000
32.8807	217.0000
32.9007	233.0000
32.9207	253.0000
32.9407	241.0000
32.9607	252.0000
32.9807	250.0000
33.0007	325.0000
33.0207	322.0000
33.0407	351.0000
33.0607	453.0000
33.0807	508.0000
33.1007	461.0000
33.1207	418.0000
33.1407	465.0000
33.1607	466.0000
33.1807	453.0000
33.2007	455.0000
33.2207	447.0000
33.2407	433.0000
33.2607	430.0000
33.2807	375.0000
33.3007	412.0000
33.3207	402.0000
33.3407	380.0000
33.3607	378.0000
33.3807	355.0000
33.4007	369.0000
33.4207	322.0000
33.4407	296.0000
33.4607	322.0000
33.4807	274.0000
33.5007	267.0000
33.5207	251.0000
33.5407	273.0000
33.5607	230.0000
33.5807	249.0000
33.6007	245.0000
33.6207	222.0000
33.6407	243.0000
33.6607	215.0000
33.6807	209.0000
33.7007	247.0000
33.7207	219.0000
33.7407	207.0000
33.7607	199.0000
33.7807	193.0000
33.8007	206.0000
33.8207	208.0000
33.8407	174.0000
33.8607	171.0000
33.8807	207.0000
33.9007	190.0000
33.9207	180.0000
33.9407	191.0000
33.9607	167.0000
33.9807	189.0000
34.0007	206.0000
34.0207	188.0000
34.0407	173.0000
34.0607	188.0000
34.0807	202.0000
34.1007	229.0000
34.1207	217.0000
34.1407	196.0000
34.1607	185.0000
34.1807	203.0000
34.2007	200.0000
34.2207	210.0000
34.2407	205.0000
34.2607	217.0000
34.2807	235.0000
34.3007	224.0000
34.3207	248.0000
34.3407	226.0000
34.3607	272.0000
34.3807	289.0000
34.4007	279.0000
34.4207	288.0000
34.4407	290.0000
34.4607	335.0000
34.4807	378.0000
34.5007	319.0000
34.5207	392.0000
34.5407	404.0000
34.5607	474.0000
34.5808	436.0000
34.6008	474.0000
34.6208	444.0000
34.6408	470.0000
34.6608	503.0000
34.6808	464.0000
34.7008	471.0000
34.7208	494.0000
34.7408	520.0000
34.7608	547.0000
34.7808	542.0000
34.8008	494.0000
34.8208	531.0000
34.8408	529.0000
34.8608	496.0000
34.8808	564.0000
34.9008	516.0000
34.9208	543.0000
34.9408	547.0000
34.9608	614.0000
34.9808	570.0000
35.0008	586.0000
35.0208	539.0000
35.0408	599.0000
35.0608	555.0000
35.0808	521.0000
35.1008	493.0000
35.1208	460.0000
35.1408	415.0000
35.1608	412.0000
35.1808	312.0000
35.2008	376.0000
35.2208	353.0000
35.2408	290.0000
35.2608	319.0000
35.2808	289.0000
35.3008	300.0000
35.3208	312.0000
35.3408	334.0000
35.3608	317.0000
35.3808	345.0000
35.4008	297.0000
35.4208	304.0000
35.4408	346.0000
35.4608	301.0000
35.4808	296.0000
35.5008	329.0000
35.5208	277.0000
35.5408	269.0000
35.5608	265.0000
35.5808	290.0000
35.6008	297.0000
35.6208	304.0000
35.6408	278.0000
35.6608	294.0000
35.6808	283.0000
35.7008	275.0000
35.7208	301.0000
35.7408	273.0000
35.7608	305.0000
35.7808	292.0000
35.8008	339.0000
35.8208	298.0000
35.8408	358.0000
35.8608	304.0000
35.8808	312.0000
35.9008	318.0000
35.9208	367.0000
35.9408	369.0000
35.9608	367.0000
35.9808	378.0000
36.0008	395.0000
36.0208	396.0000
36.0408	357.0000
36.0608	400.0000
36.0808	391.0000
36.1008	402.0000
36.1208	369.0000
36.1408	346.0000
36.1608	342.0000
36.1808	352.0000
36.2008	394.0000
36.2208	340.0000
36.2408	356.0000
36.2608	362.0000
36.2808	381.0000
36.3008	416.0000
36.3208	367.0000
36.3408	391.0000
36.3608	412.0000
36.3808	432.0000
36.4008	444.0000
36.4208	477.0000
36.4408	559.0000
36.4608	616.0000
36.4808	724.0000
36.5008	987.0000
36.5208	1236.0000
36.5408	1226.0000
36.5608	1019.0000
36.5808	957.0000
36.6008	988.0000
36.6208	1142.0000
36.6408	1057.0000
36.6608	943.0000
36.6808	769.0000
36.7008	750.0000
36.7208	728.0000
36.7408	758.0000
36.7608	788.0000
36.7808	652.0000
36.8008	705.0000
36.8208	705.0000
36.8408	660.0000
36.8608	637.0000
36.8808	596.0000
36.9008	570.0000
36.9208	520.0000
36.9408	504.0000
36.9608	487.0000
36.9808	469.0000
37.0008	469.0000
37.0208	411.0000
37.0408	405.0000
37.0608	374.0000
37.0808	373.0000
37.1008	374.0000
37.1208	353.0000
37.1408	333.0000
37.1608	308.0000
37.1808	331.0000
37.2008	297.0000
37.2208	291.0000
37.2408	300.0000
37.2608	274.0000
37.2808	303.0000
37.3008	280.0000
37.3208	288.0000
37.3408	295.0000
37.3608	297.0000
37.3808	287.0000
37.4008	304.0000
37.4208	304.0000
37.4408	289.0000
37.4608	286.0000
37.4808	296.0000
37.5008	282.0000
37.5208	311.0000
37.5408	260.0000
37.5608	271.0000
37.5808	279.0000
37.6008	270.0000
37.6208	288.0000
37.6408	299.0000
37.6608	303.0000
37.6808	273.0000
37.7008	306.0000
37.7208	315.0000
37.7408	341.0000
37.7608	319.0000
37.7808	327.0000
37.8008	348.0000
37.8208	301.0000
37.8408	298.0000
37.8608	289.0000
37.8808	296.0000
37.9008	270.0000
37.9208	272.0000
37.9408	234.0000
37.9608	269.0000
37.9808	267.0000
38.0008	224.0000
38.0208	241.0000
38.0408	219.0000
38.0608	232.0000
38.0808	228.0000
38.1008	230.0000
38.1208	196.0000
38.1408	237.0000
38.1608	228.0000
38.1808	248.0000
38.2008	208.0000
38.2208	218.0000
38.2408	244.0000
38.2608	226.0000
38.2808	232.0000
38.3008	252.0000
38.3208	251.0000
38.3408	238.0000
38.3608	248.0000
38.3808	252.0000
38.4008	257.0000
38.4208	266.0000
38.4408	279.0000
38.4608	328.0000
38.4808	289.0000
38.5008	263.0000
38.5209	236.0000
38.5409	238.0000
38.5609	273.0000
38.5809	243.0000
38.6009	207.0000
38.6209	228.0000
38.6409	243.0000
38.6609	221.0000
38.6809	240.0000
38.7009	249.0000
38.7209	247.0000
38.7409	242.0000
38.7609	209.0000
38.7809	216.0000
38.8009	214.0000
38.8209	233.0000
38.8409	209.0000
38.8609	208.0000
38.8809	198.0000
38.9009	163.0000
38.9209	165.0000
38.9409	189.0000
38.9609	186.0000
38.9809	190.0000
39.0009	187.0000
39.0209	213.0000
39.0409	198.0000
39.0609	192.0000
39.0809	196.0000
39.1009	213.0000
39.1209	235.0000
39.1409	213.0000
39.1609	246.0000
39.1809	233.0000
39.2009	210.0000
39.2209	220.0000
39.2409	202.0000
39.2609	200.0000
39.2809	227.0000
39.3009	201.0000
39.3209	191.0000
39.3409	250.0000
39.3609	230.0000
39.3809	265.0000
39.4009	388.0000
39.4209	542.0000
39.4409	761.0000
39.4609	835.0000
39.4809	605.0000
39.5009	378.0000
39.5209	446.0000
39.5409	537.0000
39.5609	580.0000
39.5809	431.0000
39.6009	275.0000
39.6209	285.0000
39.6409	230.0000
39.6609	231.0000
39.6809	216.0000
39.7009	175.0000
39.7209	208.0000
39.7409	215.0000
39.7609	207.0000
39.7809	218.0000
39.8009	210.0000
39.8209	195.0000
39.8409	216.0000
39.8609	233.0000
39.8809	238.0000
39.9009	269.0000
39.9209	254.0000
39.9409	260.0000
39.9609	326.0000
39.9809	317.0000
40.0009	291.0000
40.0209	291.0000
40.0409	307.0000
40.0609	292.0000
40.0809	308.0000
40.1009	316.0000
40.1209	299.0000
40.1409	282.0000
40.1609	313.0000
40.1809	268.0000
40.2009	325.0000
40.2209	352.0000
40.2409	456.0000
40.2609	596.0000
40.2809	642.0000
40.3009	563.0000
40.3209	386.0000
40.3409	373.0000
40.3609	451.0000
40.3809	473.0000
40.4009	407.0000
40.4209	321.0000
40.4409	262.0000
40.4609	225.0000
40.4809	246.0000
40.5009	220.0000
40.5209	206.0000
40.5409	197.0000
40.5609	206.0000
40.5809	194.0000
40.6009	211.0000
40.6209	212.0000
40.6409	218.0000
40.6609	239.0000
40.6809	196.0000
40.7009	193.0000
40.7209	197.0000
40.7409	219.0000
40.7609	222.0000
40.7809	213.0000
40.8009	206.0000
40.8209	218.0000
40.8409	249.0000
40.8609	238.0000
40.8809	250.0000
40.9009	242.0000
40.9209	252.0000
40.9409	246.0000
40.9609	229.0000
40.9809	275.0000
41.0009	229.0000
41.0209	270.0000
41.0409	256.0000
41.0609	256.0000
41.0809	244.0000
41.1009	281.0000
41.1209	267.0000
41.1409	281.0000
41.1609	267.0000
41.1809	284.0000
41.2009	321.0000
41.2209	305.0000
41.2409	294.0000
41.2609	298.0000
41.2809	311.0000
41.3009	271.0000
41.3209	294.0000
41.3409	286.0000
41.3609	262.0000
41.3809	283.0000
41.4009	242.0000
41.4209	240.0000
41.4409	248.0000
41.4609	230.0000
41.4809	231.0000
41.5009	204.0000
41.5209	201.0000
41.5409	178.0000
41.5609	215.0000
41.5809	225.0000
41.6009	180.0000
41.6209	179.0000
41.6409	184.0000
41.6609	202.0000
41.6809	197.0000
41.7009	205.0000
41.7209	186.0000
41.7409	212.0000
41.7609	200.0000
41.7809	223.0000
41.8009	174.0000
41.8209	185.0000
41.8409	186.0000
41.8609	202.0000
41.8809	193.0000
41.9009	157.0000
41.9209	181.0000
41.9409	165.0000
41.9609	165.0000
41.9809	167.0000
42.0009	189.0000
42.0209	231.0000
42.0409	194.0000
42.0609	180.0000
42.0809	206.0000
42.1009	186.0000
42.1209	199.0000
42.1409	202.0000
42.1609	175.0000
42.1809	172.0000
42.2009	181.0000
42.2209	201.0000
42.2409	201.0000
42.2609	175.0000
42.2809	220.0000
42.3009	209.0000
42.3209	212.0000
42.3409	252.0000
42.3609	329.0000
42.3809	402.0000
42.4009	631.0000
42.4209	783.0000
42.4409	815.0000
42.4610	641.0000
42.4810	468.0000
42.5010	432.0000
42.5210	478.0000
42.5410	570.0000
42.5610	520.0000
42.5810	360.0000
42.6010	249.0000
42.6210	210.0000
42.6410	197.0000
42.6610	188.0000
42.6810	136.0000
42.7010	167.0000
42.7210	149.0000
42.7410	141.0000
42.7610	154.0000
42.7810	147.0000
42.8010	159.0000
42.8210	133.0000
42.8410	140.0000
42.8610	123.0000
42.8810	127.0000
42.9010	141.0000
42.9210	142.0000
42.9410	128.0000
42.9610	136.0000
42.9810	160.0000
43.0010	128.0000
43.0210	117.0000
43.0410	145.0000
43.0610	120.0000
43.0810	137.0000
43.1010	133.0000
43.1210	142.0000
43.1410	138.0000
43.1610	144.0000
43.1810	123.0000
43.2010	122.0000
43.2210	131.0000
43.2410	139.0000
43.2610	129.0000
43.2810	128.0000
43.3010	121.0000
43.3210	111.0000
43.3410	122.0000
43.3610	134.0000
43.3810	123.0000
43.4010	119.0000
43.4210	137.0000
43.4410	146.0000
43.4610	115.0000
43.4810	131.0000
43.5010	132.0000
43.5210	142.0000
43.5410	134.0000
43.5610	137.0000
43.5810	119.0000
43.6010	132.0000
43.6210	123.0000
43.6410	121.0000
43.6610	135.0000
43.6810	119.0000
43.7010	142.0000
43.7210	125.0000
43.7410	141.0000
43.7610	124.0000
43.7810	140.0000
43.8010	122.0000
43.8210	140.0000
43.8410	126.0000
43.8610	133.0000
43.8810	150.0000
43.9010	135.0000
43.9210	151.0000
43.9410	140.0000
43.9610	143.0000
43.9810	127.0000
44.0010	136.0000
44.0210	137.0000
44.0410	151.0000
44.0610	142.0000
44.0810	136.0000
44.1010	137.0000
44.1210	129.0000
44.1410	144.0000
44.1610	140.0000
44.1810	136.0000
44.2010	123.0000
44.2210	145.0000
44.2410	138.0000
44.2610	152.0000
44.2810	153.0000
44.3010	184.0000
44.3210	151.0000
44.3410	153.0000
44.3610	140.0000
44.3810	151.0000
44.4010	134.0000
44.4210	146.0000
44.4410	142.0000
44.4610	154.0000
44.4810	140.0000
44.5010	133.0000
44.5210	121.0000
44.5410	139.0000
44.5610	157.0000
44.5810	114.0000
44.6010	142.0000
44.6210	163.0000
44.6410	125.0000
44.6610	147.0000
44.6810	123.0000
44.7010	127.0000
44.7210	130.0000
44.7410	141.0000
44.7610	129.0000
44.7810	140.0000
44.8010	136.0000
44.8210	151.0000
44.8410	155.0000
44.8610	135.0000
44.8810	144.0000
44.9010	200.0000
44.9210	224.0000
44.9410	195.0000
44.9610	161.0000
44.9810	171.0000
45.0010	177.0000
45.0210	181.0000
45.0410	163.0000
45.0610	189.0000
45.0810	201.0000
45.1010	183.0000
45.1210	185.0000
45.1410	213.0000
45.1610	196.0000
45.1810	203.0000
45.2010	184.0000
45.2210	233.0000
45.2410	197.0000
45.2610	263.0000
45.2810	277.0000
45.3010	263.0000
45.3210	293.0000
45.3410	312.0000
45.3610	327.0000
45.3810	327.0000
45.4010	345.0000
45.4210	311.0000
45.4410	311.0000
45.4610	327.0000
45.4810	294.0000
45.5010	266.0000
45.5210	267.0000
45.5410	274.0000
45.5610	215.0000
45.5810	209.0000
45.6010	219.0000
45.6210	224.0000
45.6410	201.0000
45.6610	200.0000
45.6810	220.0000
45.7010	229.0000
45.7210	271.0000
45.7410	405.0000
45.7610	533.0000
45.7810	549.0000
45.8010	409.0000
45.8210	296.0000
45.8410	249.0000
45.8610	289.0000
45.8810	325.0000
45.9010	378.0000
45.9210	323.0000
45.9410	221.0000
45.9610	187.0000
45.9810	187.0000
46.0010	200.0000
46.0210	175.0000
46.0410	184.0000
46.0610	192.0000
46.0810	195.0000
46.1010	191.0000
46.1210	164.0000
46.1410	155.0000
46.1610	165.0000
46.1810	150.0000
46.2010	165.0000
46.2210	114.0000
46.2410	134.0000
46.2610	152.0000
46.2810	139.0000
46.3010	132.0000
46.3210	125.0000
46.3410	136.0000
46.3610	133.0000
46.3810	136.0000
46.4011	147.0000
46.4211	139.0000
46.4411	123.0000
46.4611	134.0000
46.4811	138.0000
46.5011	138.0000
46.5211	152.0000
46.5411	130.0000
46.5611	140.0000
46.5811	124.0000
46.6011	133.0000
46.6211	144.0000
46.6411	147.0000
46.6611	138.0000
46.6811	132.0000
46.7011	133.0000
46.7211	160.0000
46.7411	125.0000
46.7611	139.0000
46.7811	129.0000
46.8011	159.0000
46.8211	150.0000
46.8411	136.0000
46.8611	120.0000
46.8811	147.0000
46.9011	141.0000
46.9211	134.0000
46.9411	157.0000
46.9611	133.0000
46.9811	134.0000
47.0011	121.0000
47.0211	144.0000
47.0411	140.0000
47.0611	112.0000
47.0811	126.0000
47.1011	138.0000
47.1211	150.0000
47.1411	140.0000
47.1611	132.0000
47.1811	148.0000
47.2011	148.0000
47.2211	126.0000
47.2411	149.0000
47.2611	143.0000
47.2811	173.0000
47.3011	175.0000
47.3211	144.0000
47.3411	155.0000
47.3611	162.0000
47.3811	174.0000
47.4011	169.0000
47.4211	158.0000
47.4411	165.0000
47.4611	152.0000
47.4811	163.0000
47.5011	147.0000
47.5211	157.0000
47.5411	153.0000
47.5611	156.0000
47.5811	123.0000
47.6011	131.0000
47.6211	154.0000
47.6411	130.0000
47.6611	143.0000
47.6811	148.0000
47.7011	148.0000
47.7211	153.0000
47.7411	140.0000
47.7611	134.0000
47.7811	115.0000
47.8011	142.0000
47.8211	120.0000
47.8411	118.0000
47.8611	122.0000
47.8811	126.0000
47.9011	126.0000
47.9211	131.0000
47.9411	168.0000
47.9611	152.0000
47.9811	140.0000
48.0011	125.0000
48.0211	150.0000
48.0411	156.0000
48.0611	156.0000
48.0811	134.0000
48.1011	138.0000
48.1211	152.0000
48.1411	136.0000
48.1611	120.0000
48.1811	156.0000
48.2011	144.0000
48.2211	139.0000
48.2411	130.0000
48.2611	152.0000
48.2811	126.0000
48.3011	139.0000
48.3211	115.0000
48.3411	121.0000
48.3611	137.0000
48.3811	124.0000
48.4011	118.0000
48.4211	126.0000
48.4411	133.0000
48.4611	125.0000
48.4811	129.0000
48.5011	115.0000
48.5211	107.0000
48.5411	125.0000
48.5611	113.0000
48.5811	124.0000
48.6011	126.0000
48.6211	134.0000
48.6411	124.0000
48.6611	120.0000
48.6811	104.0000
48.7011	128.0000
48.7211	135.0000
48.7411	133.0000
48.7611	141.0000
48.7811	154.0000
48.8011	141.0000
48.8211	126.0000
48.8411	149.0000
48.8611	138.0000
48.8811	134.0000
48.9011	135.0000
48.9211	142.0000
48.9411	117.0000
48.9611	134.0000
48.9811	119.0000
49.0011	109.0000
49.0211	123.0000
49.0411	112.0000
49.0611	103.0000
49.0811	120.0000
49.1011	111.0000
49.1211	130.0000
49.1411	117.0000
49.1611	126.0000
49.1811	138.0000
49.2011	139.0000
49.2211	126.0000
49.2411	125.0000
49.2611	140.0000
49.2811	122.0000
49.3011	97.0000
49.3211	129.0000
49.3411	140.0000
49.3611	130.0000
49.3811	130.0000
49.4011	108.0000
49.4211	117.0000
49.4411	127.0000
49.4611	142.0000
49.4811	104.0000
49.5011	122.0000
49.5211	126.0000
49.5411	112.0000
49.5611	124.0000
49.5811	121.0000
49.6011	131.0000
49.6211	152.0000
49.6411	105.0000
49.6611	140.0000
49.6811	146.0000
49.7011	116.0000
49.7211	111.0000
49.7411	124.0000
49.7611	129.0000
49.7811	129.0000
49.8011	133.0000
49.8211	139.0000
49.8411	149.0000
49.8611	132.0000
49.8811	144.0000
49.9011	150.0000
49.9211	177.0000
49.9411	152.0000
49.9611	180.0000
49.9811	185.0000
50.0011	212.0000
50.0211	234.0000
50.0411	277.0000
50.0611	468.0000
50.0811	756.0000
50.1011	1196.0000
50.1211	1519.0000
50.1411	1285.0000
50.1611	722.0000
50.1811	482.0000
50.2011	455.0000
50.2211	648.0000
50.2411	893.0000
50.2611	871.0000
50.2811	664.0000
50.3011	413.0000
50.3211	294.0000
50.3411	199.0000
50.3612	188.0000
50.3812	187.0000
50.4012	175.0000
50.4212	168.0000
50.4412	165.0000
50.4612	152.0000
50.4812	157.0000
50.5012	162.0000
50.5212	160.0000
50.5412	176.0000
50.5612	187.0000
50.5812	179.0000
50.6012	229.0000
50.6212	212.0000
50.6412	218.0000
50.6612	177.0000
50.6812	192.0000
50.7012	177.0000
50.7212	175.0000
50.7412	186.0000
50.7612	170.0000
50.7812	172.0000
50.8012	171.0000
50.8212	159.0000
50.8412	158.0000
50.8612	169.0000
50.8812	149.0000
50.9012	174.0000
50.9212	153.0000
50.9412	148.0000
50.9612	131.0000
50.9812	147.0000
51.0012	153.0000
51.0212	154.0000
51.0412	144.0000
51.0612	153.0000
51.0812	138.0000
51.1012	144.0000
51.1212	122.0000
51.1412	144.0000
51.1612	113.0000
51.1812	130.0000
51.2012	139.0000
51.2212	138.0000
51.2412	112.0000
51.2612	146.0000
51.2812	122.0000
51.3012	127.0000
51.3212	148.0000
51.3412	139.0000
51.3612	154.0000
51.3812	134.0000
51.4012	130.0000
51.4212	160.0000
51.4412	138.0000
51.4612	114.0000
51.4812	129.0000
51.5012	137.0000
51.5212	145.0000
51.5412	136.0000
51.5612	139.0000
51.5812	141.0000
51.6012	137.0000
51.6212	128.0000
51.6412	153.0000
51.6612	121.0000
51.6812	115.0000
51.7012	141.0000
51.7212	137.0000
51.7412	106.0000
51.7612	128.0000
51.7812	118.0000
51.8012	110.0000
51.8212	134.0000
51.8412	130.0000
51.8612	123.0000
51.8812	111.0000
51.9012	120.0000
51.9212	132.0000
51.9412	111.0000
51.9612	129.0000
51.9812	135.0000
52.0012	122.0000
52.0212	134.0000
52.0412	128.0000
52.0612	143.0000
52.0812	151.0000
52.1012	124.0000
52.1212	107.0000
52.1412	136.0000
52.1612	142.0000
52.1812	126.0000
52.2012	132.0000
52.2212	119.0000
52.2412	114.0000
52.2612	125.0000
52.2812	114.0000
52.3012	135.0000
52.3212	145.0000
52.3412	140.0000
52.3612	153.0000
52.3812	124.0000
52.4012	150.0000
52.4212	154.0000
52.4412	160.0000
52.4612	153.0000
52.4812	162.0000
52.5012	148.0000
52.5212	157.0000
52.5412	143.0000
52.5612	152.0000
52.5812	174.0000
52.6012	171.0000
52.6212	155.0000
52.6412	143.0000
52.6612	161.0000
52.6812	154.0000
52.7012	190.0000
52.7212	150.0000
52.7412	174.0000
52.7612	180.0000
52.7812	175.0000
52.8012	201.0000
52.8212	213.0000
52.8412	190.0000
52.8612	208.0000
52.8812	193.0000
52.9012	215.0000
52.9212	212.0000
52.9412	237.0000
52.9612	227.0000
52.9812	245.0000
53.0012	250.0000
53.0212	265.0000
53.0412	256.0000
53.0612	242.0000
53.0812	256.0000
53.1012	296.0000
53.1212	296.0000
53.1412	294.0000
53.1612	329.0000
53.1812	291.0000
53.2012	333.0000
53.2212	345.0000
53.2412	353.0000
53.2612	338.0000
53.2812	335.0000
53.3012	334.0000
53.3212	329.0000
53.3412	323.0000
53.3612	339.0000
53.3812	276.0000
53.4012	303.0000
53.4212	294.0000
53.4412	300.0000
53.4612	332.0000
53.4812	267.0000
53.5012	302.0000
53.5212	265.0000
53.5412	270.0000
53.5612	276.0000
53.5812	296.0000
53.6012	230.0000
53.6212	266.0000
53.6412	287.0000
53.6612	235.0000
53.6812	243.0000
53.7012	238.0000
53.7212	253.0000
53.7412	235.0000
53.7612	222.0000
53.7812	202.0000
53.8012	208.0000
53.8212	231.0000
53.8412	197.0000
53.8612	231.0000
53.8812	227.0000
53.9012	224.0000
53.9212	226.0000
53.9412	211.0000
53.9612	247.0000
53.9812	191.0000
54.0012	235.0000
54.0212	221.0000
54.0412	222.0000
54.0612	198.0000
54.0812	228.0000
54.1012	200.0000
54.1212	204.0000
54.1412	240.0000
54.1612	254.0000
54.1812	252.0000
54.2012	237.0000
54.2212	215.0000
54.2412	245.0000
54.2612	239.0000
54.2812	238.0000
54.3013	251.0000
54.3213	252.0000
54.3413	242.0000
54.3613	231.0000
54.3813	240.0000
54.4013	228.0000
54.4213	243.0000
54.4413	234.0000
54.4613	226.0000
54.4813	216.0000
54.5013	185.0000
54.5213	246.0000
54.5413	215.0000
54.5613	184.0000
54.5813	231.0000
54.6013	218.0000
54.6213	204.0000
54.6413	227.0000
54.6613	210.0000
54.6813	211.0000
54.7013	216.0000
54.7213	189.0000
54.7413	237.0000
54.7613	253.0000
54.7813	277.0000
54.8013	318.0000
54.8213	401.0000
54.8413	519.0000
54.8613	503.0000
54.8813	429.0000
54.9013	330.0000
54.9213	283.0000
54.9413	277.0000
54.9613	323.0000
54.9813	364.0000
55.0013	364.0000
55.0213	324.0000
55.0413	295.0000
55.0613	256.0000
55.0813	248.0000
55.1013	213.0000
55.1213	209.0000
55.1413	210.0000
55.1613	212.0000
55.1813	252.0000
55.2013	240.0000
55.2213	206.0000
55.2413	214.0000
55.2613	276.0000
55.2813	334.0000
55.3013	367.0000
55.3213	346.0000
55.3413	257.0000
55.3613	240.0000
55.3813	236.0000
55.4013	238.0000
55.4213	256.0000
55.4413	290.0000
55.4613	276.0000
55.4813	239.0000
55.5013	209.0000
55.5213	218.0000
55.5413	224.0000
55.5613	224.0000
55.5813	184.0000
55.6013	201.0000
55.6213	218.0000
55.6413	221.0000
55.6613	232.0000
55.6813	253.0000
55.7013	247.0000
55.7213	242.0000
55.7413	246.0000
55.7613	248.0000
55.7813	237.0000
55.8013	197.0000
55.8213	237.0000
55.8413	212.0000
55.8613	219.0000
55.8813	225.0000
55.9013	208.0000
55.9213	222.0000
55.9413	225.0000
55.9613	206.0000
55.9813	184.0000
56.0013	207.0000
56.0213	175.0000
56.0413	195.0000
56.0613	186.0000
56.0813	212.0000
56.1013	192.0000
56.1213	182.0000
56.1413	160.0000
56.1613	166.0000
56.1813	187.0000
56.2013	185.0000
56.2213	149.0000
56.2413	147.0000
56.2613	160.0000
56.2813	166.0000
56.3013	156.0000
56.3213	176.0000
56.3413	160.0000
56.3613	167.0000
56.3813	177.0000
56.4013	163.0000
56.4213	147.0000
56.4413	195.0000
56.4613	178.0000
56.4813	183.0000
56.5013	185.0000
56.5213	164.0000
56.5413	187.0000
56.5613	140.0000
56.5813	166.0000
56.6013	157.0000
56.6213	161.0000
56.6413	172.0000
56.6613	148.0000
56.6813	164.0000
56.7013	153.0000
56.7213	164.0000
56.7413	165.0000
56.7613	159.0000
56.7813	167.0000
56.8013	155.0000
56.8213	181.0000
56.8413	188.0000
56.8613	170.0000
56.8813	177.0000
56.9013	145.0000
56.9213	149.0000
56.9413	178.0000
56.9613	178.0000
56.9813	147.0000
57.0013	180.0000
57.0213	165.0000
57.0413	135.0000
57.0613	161.0000
57.0813	168.0000
57.1013	168.0000
57.1213	157.0000
57.1413	158.0000
57.1613	173.0000
57.1813	162.0000
57.2013	180.0000
57.2213	185.0000
57.2413	178.0000
57.2613	145.0000
57.2813	166.0000
57.3013	150.0000
57.3213	176.0000
57.3413	188.0000
57.3613	191.0000
57.3813	201.0000
57.4013	176.0000
57.4213	179.0000
57.4413	201.0000
57.4613	192.0000
57.4813	167.0000
57.5013	193.0000
57.5213	182.0000
57.5413	191.0000
57.5613	163.0000
57.5813	182.0000
57.6013	174.0000
57.6213	205.0000
57.6413	189.0000
57.6613	175.0000
57.6813	200.0000
57.7013	169.0000
57.7213	170.0000
57.7413	185.0000
57.7613	167.0000
57.7813	190.0000
57.8013	166.0000
57.8213	167.0000
57.8413	151.0000
57.8613	149.0000
57.8813	191.0000
57.9013	150.0000
57.9213	157.0000
57.9413	163.0000
57.9613	158.0000
57.9813	167.0000
58.0013	142.0000
58.0213	162.0000
58.0413	144.0000
58.0613	168.0000
58.0813	149.0000
58.1013	153.0000
58.1213	147.0000
58.1413	145.0000
58.1613	158.0000
58.1813	161.0000
58.2013	163.0000
58.2213	153.0000
58.2414	136.0000
58.2614	155.0000
58.2814	145.0000
58.3014	177.0000
58.3214	167.0000
58.3414	146.0000
58.3614	162.0000
58.3814	152.0000
58.4014	187.0000
58.4214	143.0000
58.4414	162.0000
58.4614	173.0000
58.4814	149.0000
58.5014	159.0000
58.5214	149.0000
58.5414	149.0000
58.5614	180.0000
58.5814	156.0000
58.6014	169.0000
58.6214	178.0000
58.6414	185.0000
58.6614	152.0000
58.6814	174.0000
58.7014	148.0000
58.7214	179.0000
58.7414	187.0000
58.7614	160.0000
58.7814	191.0000
58.8014	172.0000
58.8214	209.0000
58.8414	190.0000
58.8614	213.0000
58.8814	201.0000
58.9014	223.0000
58.9214	219.0000
58.9414	233.0000
58.9614	222.0000
58.9814	233.0000
59.0014	279.0000
59.0214	270.0000
59.0414	240.0000
59.0614	269.0000
59.0814	256.0000
59.1014	254.0000
59.1214	259.0000
59.1414	251.0000
59.1614	248.0000
59.1814	269.0000
59.2014	241.0000
59.2214	239.0000
59.2414	230.0000
59.2614	219.0000
59.2814	257.0000
59.3014	214.0000
59.3214	234.0000
59.3414	215.0000
59.3614	189.0000
59.3814	244.0000
59.4014	221.0000
59.4214	214.0000
59.4414	205.0000
59.4614	183.0000
59.4814	205.0000
59.5014	206.0000
59.5214	193.0000
59.5414	193.0000
59.5614	188.0000
59.5814	179.0000
59.6014	191.0000
59.6214	185.0000
59.6414	201.0000
59.6614	199.0000
59.6814	199.0000
59.7014	167.0000
59.7214	180.0000
59.7414	190.0000
59.7614	190.0000
59.7814	207.0000
59.8014	204.0000
59.8214	232.0000
59.8414	269.0000
59.8614	363.0000
59.8814	500.0000
59.9014	685.0000
59.9214	861.0000
59.9414	962.0000
59.9614	722.0000
59.9814	528.0000
60.0014	427.0000
60.0214	383.0000
60.0414	388.0000
60.0614	516.0000
60.0814	561.0000
60.1014	614.0000
60.1214	563.0000
60.1414	384.0000
60.1614	324.0000
60.1814	277.0000
60.2014	273.0000
60.2214	224.0000
60.2414	216.0000
60.2614	201.0000
60.2814	206.0000
60.3014	223.0000
60.3214	192.0000
60.3414	203.0000
60.3614	190.0000
60.3814	184.0000
60.4014	195.0000
60.4214	180.0000
60.4414	188.0000
60.4614	193.0000
60.4814	189.0000
60.5014	183.0000
60.5214	204.0000
60.5414	191.0000
60.5614	174.0000
60.5814	174.0000
60.6014	173.0000
60.6214	152.0000
60.6414	208.0000
60.6614	181.0000
60.6814	177.0000
60.7014	178.0000
60.7214	180.0000
60.7414	195.0000
60.7614	172.0000
60.7814	203.0000
60.8014	201.0000
60.8214	191.0000
60.8414	194.0000
60.8614	184.0000
60.8814	185.0000
60.9014	167.0000
60.9214	203.0000
60.9414	196.0000
60.9614	211.0000
60.9814	197.0000
61.0014	188.0000
61.0214	168.0000
61.0414	174.0000
61.0614	181.0000
61.0814	193.0000
61.1014	183.0000
61.1214	199.0000
61.1414	179.0000
61.1614	187.0000
61.1814	212.0000
61.2014	208.0000
61.2214	211.0000
61.2414	218.0000
61.2614	206.0000
61.2814	197.0000
61.3014	228.0000
61.3214	239.0000
61.3414	230.0000
61.3614	211.0000
61.3814	243.0000
61.4014	242.0000
61.4214	234.0000
61.4414	270.0000
61.4614	266.0000
61.4814	270.0000
61.5014	257.0000
61.5214	243.0000
61.5414	246.0000
61.5614	270.0000
61.5814	290.0000
61.6014	260.0000
61.6214	300.0000
61.6414	263.0000
61.6614	241.0000
61.6814	265.0000
61.7014	308.0000
61.7214	266.0000
61.7414	267.0000
61.7614	294.0000
61.7814	268.0000
61.8014	272.0000
61.8214	259.0000
61.8414	249.0000
61.8614	272.0000
61.8814	221.0000
61.9014	245.0000
61.9214	259.0000
61.9414	243.0000
61.9614	239.0000
61.9814	208.0000
62.0014	227.0000
62.0214	223.0000
62.0414	219.0000
62.0614	201.0000
62.0814	206.0000
62.1014	185.0000
62.1214	211.0000
62.1414	183.0000
62.1614	177.0000
62.1815	192.0000
62.2015	176.0000
62.2215	173.0000
62.2415	190.0000
62.2615	177.0000
62.2815	185.0000
62.3015	243.0000
62.3215	190.0000
62.3415	192.0000
62.3615	174.0000
62.3815	193.0000
62.4015	174.0000
62.4215	175.0000
62.4415	168.0000
62.4615	173.0000
62.4815	210.0000
62.5015	171.0000
62.5215	152.0000
62.5415	173.0000
62.5615	185.0000
62.5815	169.0000
62.6015	172.0000
62.6215	144.0000
62.6415	167.0000
62.6615	176.0000
62.6815	167.0000
62.7015	186.0000
62.7215	147.0000
62.7415	143.0000
62.7615	179.0000
62.7815	162.0000
62.8015	151.0000
62.8215	134.0000
62.8415	176.0000
62.8615	172.0000
62.8815	155.0000
62.9015	167.0000
62.9215	150.0000
62.9415	169.0000
62.9615	184.0000
62.9815	151.0000
63.0015	164.0000
63.0215	166.0000
63.0415	175.0000
63.0615	162.0000
63.0815	170.0000
63.1015	153.0000
63.1215	178.0000
63.1415	188.0000
63.1615	174.0000
63.1815	158.0000
63.2015	183.0000
63.2215	190.0000
63.2415	192.0000
63.2615	184.0000
63.2815	171.0000
63.3015	167.0000
63.3215	195.0000
63.3415	173.0000
63.3615	165.0000
63.3815	176.0000
63.4015	176.0000
63.4215	188.0000
63.4415	177.0000
63.4615	182.0000
63.4815	168.0000
63.5015	187.0000
63.5215	161.0000
63.5415	180.0000
63.5615	140.0000
63.5815	180.0000
63.6015	172.0000
63.6215	175.0000
63.6415	164.0000
63.6615	172.0000
63.6815	167.0000
63.7015	184.0000
63.7215	167.0000
63.7415	183.0000
63.7615	171.0000
63.7815	191.0000
63.8015	182.0000
63.8215	191.0000
63.8415	175.0000
63.8615	204.0000
63.8815	205.0000
63.9015	211.0000
63.9215	213.0000
63.9415	274.0000
63.9615	279.0000
63.9815	316.0000
64.0015	377.0000
64.0215	382.0000
64.0415	302.0000
64.0615	257.0000
64.0815	268.0000
64.1015	221.0000
64.1215	256.0000
64.1415	240.0000
64.1615	236.0000
64.1815	246.0000
64.2015	248.0000
64.2215	232.0000
64.2415	217.0000
64.2615	198.0000
64.2815	191.0000
64.3015	175.0000
64.3215	179.0000
64.3415	172.0000
64.3615	147.0000
64.3815	151.0000
64.4015	168.0000
64.4215	136.0000
64.4415	153.0000
64.4615	143.0000
64.4815	153.0000
64.5015	151.0000
64.5215	158.0000
64.5415	142.0000
64.5615	156.0000
64.5815	139.0000
64.6015	172.0000
64.6215	162.0000
64.6415	137.0000
64.6615	156.0000
64.6815	133.0000
64.7015	166.0000
64.7215	144.0000
64.7415	170.0000
64.7615	160.0000
64.7815	163.0000
64.8015	175.0000
64.8215	167.0000
64.8415	139.0000
64.8615	146.0000
64.8815	137.0000
64.9015	169.0000
64.9215	159.0000
64.9415	182.0000
64.9615	175.0000
64.9815	142.0000
65.0015	145.0000
65.0215	143.0000
65.0415	144.0000
65.0615	144.0000
65.0815	148.0000
65.1015	139.0000
65.1215	151.0000
65.1415	155.0000
65.1615	135.0000
65.1815	134.0000
65.2015	153.0000
65.2215	126.0000
65.2415	135.0000
65.2615	167.0000
65.2815	159.0000
65.3015	147.0000
65.3215	142.0000
65.3415	154.0000
65.3615	131.0000
65.3815	130.0000
65.4015	157.0000
65.4215	147.0000
65.4415	151.0000
65.4615	150.0000
65.4815	151.0000
65.5015	150.0000
65.5215	158.0000
65.5415	185.0000
65.5615	147.0000
65.5815	152.0000
65.6015	141.0000
65.6215	177.0000
65.6415	158.0000
65.6615	166.0000
65.6815	164.0000
65.7015	166.0000
65.7215	187.0000
65.7415	219.0000
65.7615	192.0000
65.7815	179.0000
65.8015	164.0000
65.8215	180.0000
65.8415	156.0000
65.8615	161.0000
65.8815	175.0000
65.9015	181.0000
65.9215	193.0000
65.9415	176.0000
65.9615	195.0000
65.9815	133.0000
66.0015	170.0000
66.0215	140.0000
66.0415	141.0000
66.0615	132.0000
66.0815	156.0000
66.1015	127.0000
66.1216	179.0000
66.1416	147.0000
66.1616	146.0000
66.1816	144.0000
66.2016	131.0000
66.2216	124.0000
66.2416	126.0000
66.2616	124.0000
66.2816	135.0000
66.3016	123.0000
66.3216	142.0000
66.3416	147.0000
66.3616	148.0000
66.3816	129.0000
66.4016	121.0000
66.4216	129.0000
66.4416	120.0000
66.4616	112.0000
66.4816	134.0000
66.5016	129.0000
66.5216	114.0000
66.5416	145.0000
66.5616	126.0000
66.5816	158.0000
66.6016	136.0000
66.6216	149.0000
66.6416	138.0000
66.6616	139.0000
66.6816	139.0000
66.7016	133.0000
66.7216	136.0000
66.7416	144.0000
66.7616	123.0000
66.7816	122.0000
66.8016	124.0000
66.8216	145.0000
66.8416	145.0000
66.8616	130.0000
66.8816	123.0000
66.9016	128.0000
66.9216	124.0000
66.9416	146.0000
66.9616	133.0000
66.9816	147.0000
67.0016	141.0000
67.0216	135.0000
67.0416	143.0000
67.0616	129.0000
67.0816	143.0000
67.1016	150.0000
67.1216	124.0000
67.1416	147.0000
67.1616	160.0000
67.1816	144.0000
67.2016	169.0000
67.2216	145.0000
67.2416	160.0000
67.2616	143.0000
67.2816	159.0000
67.3016	149.0000
67.3216	157.0000
67.3416	147.0000
67.3616	149.0000
67.3816	159.0000
67.4016	160.0000
67.4216	152.0000
67.4416	138.0000
67.4616	127.0000
67.4816	158.0000
67.5016	136.0000
67.5216	144.0000
67.5416	157.0000
67.5616	142.0000
67.5816	179.0000
67.6016	179.0000
67.6216	191.0000
67.6416	269.0000
67.6616	356.0000
67.6816	472.0000
67.7016	549.0000
67.7216	571.0000
67.7416	502.0000
67.7616	344.0000
67.7816	290.0000
67.8016	249.0000
67.8216	232.0000
67.8416	227.0000
67.8616	268.0000
67.8816	348.0000
67.9016	425.0000
67.9216	365.0000
67.9416	332.0000
67.9616	270.0000
67.9816	206.0000
68.0016	235.0000
68.0216	232.0000
68.0416	260.0000
68.0616	359.0000
68.0816	490.0000
68.1016	610.0000
68.1216	674.0000
68.1416	544.0000
68.1616	423.0000
68.1816	319.0000
68.2016	330.0000
68.2216	337.0000
68.2416	390.0000
68.2616	508.0000
68.2816	605.0000
68.3016	598.0000
68.3216	547.0000
68.3416	422.0000
68.3616	304.0000
68.3816	282.0000
68.4016	252.0000
68.4216	270.0000
68.4416	253.0000
68.4616	291.0000
68.4816	290.0000
68.5016	292.0000
68.5216	246.0000
68.5416	211.0000
68.5616	197.0000
68.5816	172.0000
68.6016	158.0000
68.6216	151.0000
68.6416	145.0000
68.6616	151.0000
68.6816	156.0000
68.7016	169.0000
68.7216	162.0000
68.7416	167.0000
68.7616	158.0000
68.7816	174.0000
68.8016	179.0000
68.8216	177.0000
68.8416	193.0000
68.8616	183.0000
68.8816	170.0000
68.9016	175.0000
68.9216	160.0000
68.9416	190.0000
68.9616	199.0000
68.9816	188.0000
69.0016	186.0000
69.0216	188.0000
69.0416	193.0000
69.0616	178.0000
69.0816	184.0000
69.1016	180.0000
69.1216	165.0000
69.1416	185.0000
69.1616	186.0000
69.1816	206.0000
69.2016	201.0000
69.2216	163.0000
69.2416	185.0000
69.2616	192.0000
69.2816	175.0000
69.3016	199.0000
69.3216	195.0000
69.3416	176.0000
69.3616	197.0000
69.3816	186.0000
69.4016	181.0000
69.4216	210.0000
69.4416	196.0000
69.4616	224.0000
69.4816	175.0000
69.5016	193.0000
69.5216	188.0000
69.5416	205.0000
69.5616	170.0000
69.5816	190.0000
69.6016	173.0000
69.6216	160.0000
69.6416	156.0000
69.6616	171.0000
69.6816	175.0000
69.7016	157.0000
69.7216	154.0000
69.7416	147.0000
69.7616	166.0000
69.7816	160.0000
69.8016	169.0000
69.8216	146.0000
69.8416	146.0000
69.8616	132.0000
69.8816	142.0000
69.9016	162.0000
69.9216	164.0000
69.9416	160.0000
69.9616	147.0000
69.9816	161.0000
70.0016	156.0000
70.0216	155.0000
70.0416	137.0000
70.0617	143.0000
70.0817	153.0000
70.1017	149.0000
70.1217	152.0000
70.1417	164.0000
70.1617	152.0000
70.1817	168.0000
70.2017	144.0000
70.2217	158.0000
70.2417	153.0000
70.2617	151.0000
70.2817	146.0000
70.3017	135.0000
70.3217	162.0000
70.3417	166.0000
70.3617	166.0000
70.3817	128.0000
70.4017	154.0000
70.4217	140.0000
70.4417	154.0000
70.4617	124.0000
70.4817	155.0000
70.5017	142.0000
70.5217	102.0000
70.5417	149.0000
70.5617	137.0000
70.5817	133.0000
70.6017	117.0000
70.6217	113.0000
70.6417	126.0000
70.6617	142.0000
70.6817	110.0000
70.7017	133.0000
70.7217	117.0000
70.7417	117.0000
70.7617	133.0000
70.7817	139.0000
70.8017	111.0000
70.8217	119.0000
70.8417	117.0000
70.8617	134.0000
70.8817	130.0000
70.9017	129.0000
70.9217	109.0000
70.9417	133.0000
70.9617	135.0000
70.9817	156.0000
71.0017	130.0000
71.0217	135.0000
71.0417	138.0000
71.0617	138.0000
71.0817	134.0000
71.1017	140.0000
71.1217	114.0000
71.1417	124.0000
71.1617	140.0000
71.1817	152.0000
71.2017	141.0000
71.2217	166.0000
71.2417	151.0000
71.2617	158.0000
71.2817	160.0000
71.3017	153.0000
71.3217	157.0000
71.3417	139.0000
71.3617	148.0000
71.3817	157.0000
71.4017	141.0000
71.4217	162.0000
71.4417	174.0000
71.4617	144.0000
71.4817	178.0000
71.5017	175.0000
71.5217	154.0000
71.5417	166.0000
71.5617	160.0000
71.5817	168.0000
71.6017	163.0000
71.6217	150.0000
71.6417	181.0000
71.6617	156.0000
71.6817	168.0000
71.7017	142.0000
71.7217	148.0000
71.7417	131.0000
71.7617	157.0000
71.7817	128.0000
71.8017	154.0000
71.8217	164.0000
71.8417	148.0000
71.8617	148.0000
71.8817	144.0000
71.9017	143.0000
71.9217	152.0000
71.9417	166.0000
71.9617	146.0000
71.9817	170.0000
72.0017	152.0000
72.0217	164.0000
72.0417	139.0000
72.0617	149.0000
72.0817	138.0000
72.1017	133.0000
72.1217	148.0000
72.1417	115.0000
72.1617	151.0000
72.1817	175.0000
72.2017	143.0000
72.2217	149.0000
72.2417	154.0000
72.2617	134.0000
72.2817	161.0000
72.3017	138.0000
72.3217	159.0000
72.3417	154.0000
72.3617	158.0000
72.3817	139.0000
72.4017	149.0000
72.4217	127.0000
72.4417	131.0000
72.4617	141.0000
72.4817	140.0000
72.5017	148.0000
72.5217	134.0000
72.5417	151.0000
72.5617	150.0000
72.5817	133.0000
72.6017	152.0000
72.6217	158.0000
72.6417	117.0000
72.6617	124.0000
72.6817	146.0000
72.7017	160.0000
72.7217	143.0000
72.7417	168.0000
72.7617	146.0000
72.7817	140.0000
72.8017	159.0000
72.8217	180.0000
72.8417	157.0000
72.8617	163.0000
72.8817	165.0000
72.9017	168.0000
72.9217	147.0000
72.9417	177.0000
72.9617	155.0000
72.9817	187.0000
73.0017	172.0000
73.0217	194.0000
73.0417	144.0000
73.0617	173.0000
73.0817	165.0000
73.1017	153.0000
73.1217	174.0000
73.1417	153.0000
73.1617	185.0000
73.1817	167.0000
73.2017	157.0000
73.2217	154.0000
73.2417	165.0000
73.2617	170.0000
73.2817	169.0000
73.3017	160.0000
73.3217	152.0000
73.3417	150.0000
73.3617	183.0000
73.3817	210.0000
73.4017	224.0000
73.4217	268.0000
73.4417	258.0000
73.4617	266.0000
73.4817	210.0000
73.5017	183.0000
73.5217	174.0000
73.5417	157.0000
73.5617	163.0000
73.5817	159.0000
73.6017	173.0000
73.6217	170.0000
73.6417	208.0000
73.6617	222.0000
73.6817	179.0000
73.7017	172.0000
73.7217	155.0000
73.7417	127.0000
73.7617	133.0000
73.7817	132.0000
73.8017	132.0000
73.8217	147.0000
73.8417	142.0000
73.8617	128.0000
73.8817	105.0000
73.9017	120.0000
73.9217	119.0000
73.9417	146.0000
73.9617	129.0000
73.9817	141.0000
74.0018	129.0000
74.0218	145.0000
74.0418	138.0000
74.0618	146.0000
74.0818	118.0000
74.1018	127.0000
74.1218	124.0000
74.1418	127.0000
74.1618	139.0000
74.1818	115.0000
74.2018	130.0000
74.2218	148.0000
74.2418	104.0000
74.2618	140.0000
74.2818	131.0000
74.3018	138.0000
74.3218	120.0000
74.3418	127.0000
74.3618	122.0000
74.3818	125.0000
74.4018	134.0000
74.4218	115.0000
74.4418	116.0000
74.4618	130.0000
74.4818	117.0000
74.5018	117.0000
74.5218	124.0000
74.5418	122.0000
74.5618	126.0000
74.5818	118.0000
74.6018	129.0000
74.6218	125.0000
74.6418	134.0000
74.6618	123.0000
74.6818	120.0000
74.7018	142.0000
74.7218	130.0000
74.7418	127.0000
74.7618	128.0000
74.7818	116.0000
74.8018	159.0000
74.8218	121.0000
74.8418	128.0000
74.8618	118.0000
74.8818	117.0000
74.9018	132.0000
74.9218	125.0000
74.9418	128.0000
74.9618	155.0000
74.9818	138.0000
75.0018	134.0000
75.0218	99.0000
75.0418	126.0000
75.0618	132.0000
75.0818	129.0000
75.1018	102.0000
75.1218	107.0000
75.1418	117.0000
75.1618	117.0000
75.1818	119.0000
75.2018	107.0000
75.2218	124.0000
75.2418	107.0000
75.2618	102.0000
75.2818	118.0000
75.3018	121.0000
75.3218	120.0000
75.3418	112.0000
75.3618	134.0000
75.3818	129.0000
75.4018	128.0000
75.4218	141.0000
75.4418	114.0000
75.4618	128.0000
75.4818	141.0000
75.5018	116.0000
75.5218	137.0000
75.5418	150.0000
75.5618	200.0000
75.5818	236.0000
75.6018	292.0000
75.6218	338.0000
75.6418	324.0000
75.6618	241.0000
75.6818	193.0000
75.7018	188.0000
75.7218	149.0000
75.7418	156.0000
75.7618	192.0000
75.7818	174.0000
75.8018	211.0000
75.8218	239.0000
75.8418	232.0000
75.8618	239.0000
75.8818	197.0000
75.9018	176.0000
75.9218	161.0000
75.9418	114.0000
75.9618	113.0000
75.9818	118.0000
76.0018	130.0000
76.0218	134.0000
76.0418	132.0000
76.0618	129.0000
76.0818	137.0000
76.1018	117.0000
76.1218	136.0000
76.1418	138.0000
76.1618	137.0000
76.1818	118.0000
76.2018	130.0000
76.2218	125.0000
76.2418	152.0000
76.2618	126.0000
76.2818	118.0000
76.3018	159.0000
76.3218	144.0000
76.3418	119.0000
76.3618	124.0000
76.3818	144.0000
76.4018	132.0000
76.4218	124.0000
76.4418	139.0000
76.4618	128.0000
76.4818	128.0000
76.5018	118.0000
76.5218	142.0000
76.5418	136.0000
76.5618	130.0000
76.5818	127.0000
76.6018	159.0000
76.6218	129.0000
76.6418	126.0000
76.6618	149.0000
76.6818	108.0000
76.7018	115.0000
76.7218	131.0000
76.7418	120.0000
76.7618	120.0000
76.7818	151.0000
76.8018	121.0000
76.8218	142.0000
76.8418	131.0000
76.8618	128.0000
76.8818	124.0000
76.9018	135.0000
76.9218	117.0000
76.9418	113.0000
76.9618	106.0000
76.9818	120.0000
77.0018	149.0000
77.0218	113.0000
77.0418	123.0000
77.0618	133.0000
77.0818	113.0000
77.1018	130.0000
77.1218	125.0000
77.1418	109.0000
77.1618	124.0000
77.1818	108.0000
77.2018	107.0000
77.2218	117.0000
77.2418	119.0000
77.2618	124.0000
77.2818	130.0000
77.3018	137.0000
77.3218	121.0000
77.3418	139.0000
77.3618	128.0000
77.3818	127.0000
77.4018	127.0000
77.4218	108.0000
77.4418	113.0000
77.4618	122.0000
77.4818	133.0000
77.5018	131.0000
77.5218	137.0000
77.5418	143.0000
77.5618	154.0000
77.5818	149.0000
77.6018	193.0000
77.6218	221.0000
77.6418	223.0000
77.6618	188.0000
77.6818	179.0000
77.7018	151.0000
77.7218	145.0000
77.7418	153.0000
77.7618	114.0000
77.7818	128.0000
77.8018	138.0000
77.8218	140.0000
77.8418	166.0000
77.8618	155.0000
77.8818	160.0000
77.9018	161.0000
77.9218	107.0000
77.9418	118.0000
77.9619	117.0000
77.9819	124.0000
78.0019	107.0000
78.0219	110.0000
78.0419	120.0000
78.0619	113.0000
78.0819	117.0000
78.1019	126.0000
78.1219	97.0000
78.1419	125.0000
78.1619	116.0000
78.1819	101.0000
78.2019	83.0000
78.2219	108.0000
78.2419	103.0000
78.2619	100.0000
78.2819	111.0000
78.3019	108.0000
78.3219	98.0000
78.3419	114.0000
78.3619	111.0000
78.3819	118.0000
78.4019	119.0000
78.4219	104.0000
78.4419	88.0000
78.4619	104.0000
78.4819	129.0000
78.5019	108.0000
78.5219	104.0000
78.5419	98.0000
78.5619	92.0000
78.5819	106.0000
78.6019	117.0000
78.6219	106.0000
78.6419	98.0000
78.6619	99.0000
78.6819	103.0000
78.7019	104.0000
78.7219	97.0000
78.7419	91.0000
78.7619	95.0000
78.7819	100.0000
78.8019	88.0000
78.8219	103.0000
78.8419	98.0000
78.8619	97.0000
78.8819	94.0000
78.9019	89.0000
78.9219	106.0000
78.9419	113.0000
78.9619	105.0000
78.9819	105.0000
79.0019	99.0000
79.0219	111.0000
79.0419	105.0000
79.0619	110.0000
79.0819	88.0000
79.1019	82.0000
79.1219	101.0000
79.1419	102.0000
79.1619	88.0000
79.1819	97.0000
79.2019	91.0000
79.2219	109.0000
79.2419	97.0000
79.2619	88.0000
79.2819	95.0000
79.3019	109.0000
79.3219	98.0000
79.3419	103.0000
79.3619	96.0000
79.3819	124.0000
79.4019	107.0000
79.4219	106.0000
79.4419	101.0000
79.4619	140.0000
79.4819	122.0000
79.5019	101.0000
79.5219	112.0000
79.5419	116.0000
79.5619	103.0000
79.5819	104.0000
79.6019	107.0000
79.6219	104.0000
79.6419	104.0000
79.6619	115.0000
79.6819	124.0000
79.7019	110.0000
79.7219	147.0000
79.7419	173.0000
79.7619	178.0000
79.7819	206.0000
79.8019	269.0000
79.8219	350.0000
79.8419	426.0000
79.8619	389.0000
79.8819	344.0000
79.9019	296.0000
79.9219	237.0000
79.9419	215.0000
79.9619	193.0000
79.9819	211.0000
80.0019	211.0000
80.0219	195.0000
80.0419	272.0000
80.0619	245.0000
80.0819	266.0000
80.1019	264.0000
80.1219	251.0000
80.1419	211.0000
80.1619	186.0000
80.1819	143.0000
80.2019	155.0000
80.2219	142.0000
80.2419	183.0000
80.2619	147.0000
80.2819	125.0000
80.3019	131.0000
80.3219	143.0000
80.3419	138.0000
80.3619	113.0000
80.3819	102.0000
80.4019	125.0000
80.4219	100.0000
80.4419	118.0000
80.4619	109.0000
80.4819	100.0000
80.5019	120.0000
80.5219	133.0000
80.5419	103.0000
80.5619	119.0000
80.5819	97.0000
80.6019	105.0000
80.6219	101.0000
80.6419	101.0000
80.6619	102.0000
80.6819	125.0000
80.7019	112.0000
80.7219	110.0000
80.7419	100.0000
80.7619	102.0000
80.7819	105.0000
80.8019	108.0000
80.8219	126.0000
80.8419	81.0000
80.8619	97.0000
80.8819	112.0000
80.9019	94.0000
80.9219	111.0000
80.9419	105.0000
80.9619	122.0000
80.9819	94.0000
81.0019	128.0000
81.0219	121.0000
81.0419	142.0000
81.0619	154.0000
81.0819	169.0000
81.1019	212.0000
81.1219	241.0000
81.1419	261.0000
81.1619	205.0000
81.1819	194.0000
81.2019	185.0000
81.2219	155.0000
81.2419	123.0000
81.2619	137.0000
81.2819	143.0000
81.3019	146.0000
81.3219	158.0000
81.3419	183.0000
81.3619	223.0000
81.3819	264.0000
81.4019	302.0000
81.4219	332.0000
81.4419	395.0000
81.4619	317.0000
81.4819	316.0000
81.5019	259.0000
81.5219	195.0000
81.5419	182.0000
81.5619	151.0000
81.5819	149.0000
81.6019	160.0000
81.6219	162.0000
81.6419	169.0000
81.6619	189.0000
81.6819	223.0000
81.7019	227.0000
81.7219	220.0000
81.7419	195.0000
81.7619	155.0000
81.7819	150.0000
81.8019	119.0000
81.8219	135.0000
81.8419	111.0000
81.8619	104.0000
81.8819	94.0000
81.9020	110.0000
81.9220	100.0000
81.9420	92.0000
81.9620	96.0000
81.9820	101.0000
82.0020	83.0000
82.0220	115.0000
82.0420	106.0000
82.0620	105.0000
82.0820	98.0000
82.1020	92.0000
82.1220	109.0000
82.1420	101.0000
82.1620	83.0000
82.1820	109.0000
82.2020	99.0000
82.2220	113.0000
82.2420	91.0000
82.2620	91.0000
82.2820	109.0000
82.3020	86.0000
82.3220	107.0000
82.3420	87.0000
82.3620	116.0000
82.3820	84.0000
82.4020	110.0000
82.4220	89.0000
82.4420	96.0000
82.4620	92.0000
82.4820	104.0000
82.5020	102.0000
82.5220	99.0000
82.5420	93.0000
82.5620	86.0000
82.5820	99.0000
82.6020	82.0000
82.6220	91.0000
82.6420	78.0000
82.6620	92.0000
82.6820	95.0000
82.7020	82.0000
82.7220	109.0000
82.7420	86.0000
82.7620	100.0000
82.7820	87.0000
82.8020	89.0000
82.8220	90.0000
82.8420	95.0000
82.8620	100.0000
82.8820	89.0000
82.9020	82.0000
82.9220	88.0000
82.9420	109.0000
82.9620	96.0000
82.9820	104.0000
83.0020	97.0000
83.0220	111.0000
83.0420	113.0000
83.0620	113.0000
83.0820	109.0000
83.1020	87.0000
83.1220	103.0000
83.1420	101.0000
83.1620	82.0000
83.1820	91.0000
83.2020	102.0000
83.2220	100.0000
83.2420	105.0000
83.2620	89.0000
83.2820	104.0000
83.3020	107.0000
83.3220	97.0000
83.3420	88.0000
83.3620	95.0000
83.3820	124.0000
83.4020	89.0000
83.4220	104.0000
83.4420	83.0000
83.4620	107.0000
83.4820	114.0000
83.5020	100.0000
83.5220	97.0000
83.5420	101.0000
83.5620	102.0000
83.5820	100.0000
83.6020	102.0000
83.6220	104.0000
83.6420	116.0000
83.6620	120.0000
83.6820	123.0000
83.7020	113.0000
83.7220	154.0000
83.7420	164.0000
83.7620	194.0000
83.7820	266.0000
83.8020	224.0000
83.8220	238.0000
83.8420	175.0000
83.8620	187.0000
83.8820	144.0000
83.9020	110.0000
83.9220	139.0000
83.9420	123.0000
83.9620	131.0000
83.9820	137.0000
84.0020	150.0000
84.0220	138.0000
84.0420	187.0000
84.0620	166.0000
84.0820	164.0000
84.1020	142.0000
84.1220	138.0000
84.1420	118.0000
84.1620	158.0000
84.1820	96.0000
84.2020	109.0000
84.2220	109.0000
84.2420	107.0000
84.2620	116.0000
84.2820	108.0000
84.3020	129.0000
84.3220	99.0000
84.3420	93.0000
84.3620	94.0000
84.3820	116.0000
84.4020	106.0000
84.4220	97.0000
84.4420	103.0000
84.4620	117.0000
84.4820	103.0000
84.5020	106.0000
84.5220	95.0000
84.5420	113.0000
84.5620	118.0000
84.5820	121.0000
84.6020	96.0000
84.6220	116.0000
84.6420	85.0000
84.6620	102.0000
84.6820	110.0000
84.7020	106.0000
84.7220	94.0000
84.7420	94.0000
84.7620	104.0000
84.7820	94.0000
84.8020	97.0000
84.8220	81.0000
84.8420	87.0000
84.8620	92.0000
84.8820	105.0000
84.9020	118.0000
84.9220	111.0000
84.9420	105.0000
84.9620	116.0000
84.9820	106.0000
85.0020	106.0000
85.0220	94.0000
85.0420	93.0000
85.0620	112.0000
85.0820	95.0000
85.1020	99.0000
85.1220	114.0000
85.1420	104.0000
85.1620	104.0000
85.1820	111.0000
85.2020	93.0000
85.2220	90.0000
85.2420	103.0000
85.2620	95.0000
85.2820	83.0000
85.3020	98.0000
85.3220	89.0000
85.3420	103.0000
85.3620	97.0000
85.3820	111.0000
85.4020	97.0000
85.4220	92.0000
85.4420	89.0000
85.4620	103.0000
85.4820	106.0000
85.5020	92.0000
85.5220	99.0000
85.5420	75.0000
85.5620	94.0000
85.5820	121.0000
85.6020	109.0000
85.6220	97.0000
85.6420	92.0000
85.6620	95.0000
85.6820	113.0000
85.7020	97.0000
85.7220	93.0000
85.7420	101.0000
85.7620	102.0000
85.7820	98.0000
85.8020	95.0000
85.8220	88.0000
85.8421	95.0000
85.8621	121.0000
85.8821	116.0000
85.9021	111.0000
85.9221	102.0000
85.9421	90.0000
85.9621	103.0000
85.9821	92.0000
86.0021	133.0000
86.0221	114.0000
86.0421	114.0000
86.0621	121.0000
86.0821	105.0000
86.1021	109.0000
86.1221	103.0000
86.1421	100.0000
86.1621	117.0000
86.1821	125.0000
86.2021	101.0000
86.2221	116.0000
86.2421	123.0000
86.2621	113.0000
86.2821	116.0000
86.3021	128.0000
86.3221	121.0000
86.3421	108.0000
86.3621	107.0000
86.3821	110.0000
86.4021	118.0000
86.4221	95.0000
86.4421	115.0000
86.4621	119.0000
86.4821	91.0000
86.5021	111.0000
86.5221	106.0000
86.5421	128.0000
86.5621	99.0000
86.5821	118.0000
86.6021	95.0000
86.6221	118.0000
86.6421	130.0000
86.6621	127.0000
86.6821	103.0000
86.7021	121.0000
86.7221	122.0000
86.7421	128.0000
86.7621	119.0000
86.7821	102.0000
86.8021	118.0000
86.8221	107.0000
86.8421	115.0000
86.8621	93.0000
86.8821	117.0000
86.9021	108.0000
86.9221	95.0000
86.9421	119.0000
86.9621	111.0000
86.9821	109.0000
87.0021	95.0000
87.0221	103.0000
87.0421	103.0000
87.0621	105.0000
87.0821	117.0000
87.1021	135.0000
87.1221	90.0000
87.1421	102.0000
87.1621	102.0000
87.1821	82.0000
87.2021	104.0000
87.2221	91.0000
87.2421	101.0000
87.2621	93.0000
87.2821	105.0000
87.3021	97.0000
87.3221	110.0000
87.3421	111.0000
87.3621	109.0000
87.3821	112.0000
87.4021	130.0000
87.4221	123.0000
87.4421	109.0000
87.4621	111.0000
87.4821	122.0000
87.5021	99.0000
87.5221	122.0000
87.5421	81.0000
87.5621	106.0000
87.5821	97.0000
87.6021	117.0000
87.6221	106.0000
87.6421	102.0000
87.6621	115.0000
87.6821	105.0000
87.7021	110.0000
87.7221	127.0000
87.7421	112.0000
87.7621	86.0000
87.7821	107.0000
87.8021	93.0000
87.8221	118.0000
87.8421	98.0000
87.8621	110.0000
87.8821	92.0000
87.9021	106.0000
87.9221	119.0000
87.9421	107.0000
87.9621	82.0000
87.9821	96.0000
88.0021	91.0000
88.0221	97.0000
88.0421	82.0000
88.0621	78.0000
88.0821	89.0000
88.1021	92.0000
88.1221	83.0000
88.1421	68.0000
88.1621	93.0000
88.1821	81.0000
88.2021	97.0000
88.2221	81.0000
88.2421	85.0000
88.2621	106.0000
88.2821	93.0000
88.3021	93.0000
88.3221	76.0000
88.3421	85.0000
88.3621	75.0000
88.3821	83.0000
88.4021	93.0000
88.4221	88.0000
88.4421	96.0000
88.4621	109.0000
88.4821	84.0000
88.5021	107.0000
88.5221	93.0000
88.5421	120.0000
88.5621	90.0000
88.5821	103.0000
88.6021	105.0000
88.6221	116.0000
88.6421	103.0000
88.6621	75.0000
88.6821	93.0000
88.7021	100.0000
88.7221	105.0000
88.7421	96.0000
88.7621	92.0000
88.7821	96.0000
88.8021	101.0000
88.8221	116.0000
88.8421	99.0000
88.8621	93.0000
88.8821	87.0000
88.9021	87.0000
88.9221	94.0000
88.9421	89.0000
88.9621	78.0000
88.9821	108.0000
89.0021	94.0000
89.0221	101.0000
89.0421	95.0000
89.0621	82.0000
89.0821	89.0000
89.1021	93.0000
89.1221	96.0000
89.1421	96.0000
89.1621	98.0000
89.1821	77.0000
89.2021	94.0000
89.2221	84.0000
89.2421	108.0000
89.2621	103.0000
89.2821	93.0000
89.3021	96.0000
89.3221	85.0000
89.3421	109.0000
89.3621	98.0000
89.3821	104.0000
89.4021	104.0000
89.4221	93.0000
89.4421	81.0000
89.4621	91.0000
89.4821	89.0000
89.5021	104.0000
89.5221	85.0000
89.5421	102.0000
89.5621	89.0000
89.5821	93.0000
89.6021	96.0000
89.6221	98.0000
89.6421	84.0000
89.6621	85.0000
89.6821	94.0000
89.7021	93.0000
89.7221	85.0000
89.7421	76.0000
89.7621	89.0000
89.7822	80.0000
89.8022	97.0000
89.8222	98.0000
89.8422	96.0000
89.8622	80.0000
89.8822	101.0000
89.9022	88.0000
89.9222	96.0000
89.9422	106.0000
89.9622	100.0000
89.9822	89.0000
90.0022	104.0000
