    10.0000       326
    10.0200       370
    10.0400       348
    10.0600       342
    10.0800       354
    10.1000       358
    10.1200       358
    10.1400       338
    10.1600       364
    10.1800       356
    10.2000       344
    10.2200       350
    10.2400       356
    10.2600       356
    10.2800       356
    10.3000       332
    10.3200       350
    10.3400       342
    10.3600       344
    10.3800       338
    10.4000       302
    10.4200       350
    10.4400       332
    10.4600       314
    10.4800       316
    10.5000       328
    10.5200       386
    10.5400       330
    10.5600       294
    10.5800       318
    10.6000       332
    10.6200       318
    10.6400       304
    10.6600       348
    10.6800       332
    10.7000       334
    10.7200       348
    10.7400       368
    10.7600       314
    10.7800       342
    10.8000       358
    10.8200       326
    10.8400       324
    10.8600       312
    10.8800       334
    10.9000       330
    10.9200       320
    10.9400       302
    10.9600       318
    10.9800       330
    11.0000       318
    11.0200       328
    11.0400       350
    11.0600       328
    11.0800       322
    11.1000       296
    11.1200       340
    11.1400       330
    11.1600       262
    11.1800       294
    11.2000       282
    11.2200       346
    11.2400       322
    11.2600       330
    11.2800       344
    11.3000       338
    11.3200       298
    11.3400       324
    11.3600       334
    11.3800       286
    11.4000       292
    11.4200       344
    11.4400       318
    11.4600       300
    11.4800       310
    11.5000       322
    11.5200       278
    11.5400       284
    11.5600       286
    11.5800       310
    11.6000       300
    11.6200       296
    11.6400       302
    11.6600       316
    11.6800       320
    11.7000       316
    11.7200       318
    11.7400       316
    11.7600       308
    11.7800       300
    11.8000       298
    11.8200       274
    11.8400       308
    11.8600       298
    11.8800       298
    11.9000       266
    11.9200       318
    11.9400       300
    11.9600       306
    11.9800       274
    12.0000       310
    12.0200       294
    12.0400       300
    12.0600       302
    12.0800       296
    12.1000       326
    12.1200       324
    12.1400       320
    12.1600       334
    12.1800       314
    12.2000       332
    12.2200       358
    12.2400       314
    12.2600       302
    12.2800       300
    12.3000       310
    12.3200       292
    12.3400       296
    12.3600       286
    12.3800       300
    12.4000       272
    12.4200       312
    12.4400       334
    12.4600       298
    12.4800       266
    12.5000       300
    12.5200       288
    12.5400       284
    12.5600       276
    12.5800       262
    12.6000       312
    12.6200       294
    12.6400       278
    12.6600       284
    12.6800       310
    12.7000       300
    12.7200       296
    12.7400       274
    12.7600       284
    12.7800       270
    12.8000       258
    12.8200       276
    12.8400       288
    12.8600       276
    12.8800       266
    12.9000       302
    12.9200       236
    12.9400       264
    12.9600       280
    12.9800       254
    13.0000       284
    13.0200       296
    13.0400       272
    13.0600       300
    13.0800       268
    13.1000       256
    13.1200       304
    13.1400       262
    13.1600       266
    13.1800       264
    13.2000       304
    13.2200       246
    13.2400       268
    13.2600       262
    13.2800       258
    13.3000       262
    13.3200       266
    13.3400       294
    13.3600       256
    13.3800       258
    13.4000       264
    13.4200       262
    13.4400       282
    13.4600       266
    13.4800       268
    13.5000       256
    13.5200       270
    13.5400       252
    13.5600       274
    13.5800       262
    13.6000       262
    13.6200       288
    13.6400       248
    13.6600       260
    13.6800       250
    13.7000       244
    13.7200       260
    13.7400       254
    13.7600       220
    13.7800       258
    13.8000       256
    13.8200       280
    13.8400       232
    13.8600       230
    13.8800       244
    13.9000       236
    13.9200       264
    13.9400       290
    13.9600       236
    13.9800       278
    14.0000       256
    14.0200       234
    14.0400       246
    14.0600       242
    14.0800       256
    14.1000       256
    14.1200       232
    14.1400       232
    14.1600       202
    14.1800       228
    14.2000       256
    14.2200       246
    14.2400       250
    14.2600       246
    14.2800       236
    14.3000       254
    14.3200       200
    14.3400       262
    14.3600       264
    14.3800       210
    14.4000       242
    14.4200       244
    14.4400       260
    14.4600       222
    14.4800       254
    14.5000       228
    14.5200       238
    14.5400       244
    14.5600       258
    14.5800       236
    14.6000       222
    14.6200       244
    14.6400       254
    14.6600       242
    14.6800       212
    14.7000       250
    14.7200       248
    14.7400       236
    14.7600       240
    14.7800       268
    14.8000       244
    14.8200       204
    14.8400       252
    14.8600       264
    14.8800       242
    14.9000       220
    14.9200       234
    14.9400       248
    14.9600       260
    14.9800       260
    15.0000       244
    15.0200       240
    15.0400       226
    15.0600       276
    15.0800       242
    15.1000       294
    15.1200       240
    15.1400       242
    15.1600       278
    15.1800       258
    15.2000       262
    15.2200       248
    15.2400       252
    15.2600       246
    15.2800       242
    15.3000       256
    15.3200       252
    15.3400       234
    15.3600       248
    15.3800       194
    15.4000       278
    15.4200       264
    15.4400       228
    15.4600       250
    15.4800       214
    15.5000       242
    15.5200       248
    15.5400       246
    15.5600       244
    15.5800       256
    15.6000       222
    15.6200       234
    15.6400       228
    15.6600       224
    15.6800       226
    15.7000       250
    15.7200       250
    15.7400       224
    15.7600       250
    15.7800       220
    15.8000       266
    15.8200       232
    15.8400       260
    15.8600       234
    15.8800       264
    15.9000       226
    15.9200       190
    15.9400       212
    15.9600       244
    15.9800       242
    16.0000       214
    16.0200       244
    16.0400       230
    16.0600       240
    16.0800       224
    16.1000       204
    16.1200       238
    16.1400       216
    16.1600       230
    16.1800       214
    16.2000       234
    16.2200       232
    16.2400       212
    16.2600       190
    16.2800       190
    16.3000       248
    16.3200       200
    16.3400       206
    16.3600       234
    16.3800       218
    16.4000       218
    16.4200       228
    16.4400       180
    16.4600       214
    16.4800       188
    16.5000       238
    16.5200       216
    16.5400       232
    16.5600       212
    16.5800       218
    16.6000       232
    16.6200       216
    16.6400       214
    16.6600       196
    16.6800       196
    16.7000       220
    16.7200       232
    16.7400       230
    16.7600       188
    16.7800       236
    16.8000       208
    16.8200       220
    16.8400       202
    16.8600       212
    16.8800       220
    16.9000       216
    16.9200       236
    16.9400       232
    16.9600       218
    16.9800       248
    17.0000       232
    17.0200       238
    17.0400       238
    17.0600       272
    17.0800       238
    17.1000       270
    17.1200       282
    17.1400       240
    17.1600       250
    17.1800       286
    17.2000       258
    17.2200       232
    17.2400       292
    17.2600       248
    17.2800       278
    17.3000       264
    17.3200       244
    17.3400       274
    17.3600       258
    17.3800       256
    17.4000       252
    17.4200       256
    17.4400       246
    17.4600       234
    17.4800       226
    17.5000       212
    17.5200       214
    17.5400       246
    17.5600       230
    17.5800       212
    17.6000       208
    17.6200       218
    17.6400       224
    17.6600       222
    17.6800       216
    17.7000       216
    17.7200       212
    17.7400       204
    17.7600       226
    17.7800       206
    17.8000       200
    17.8200       204
    17.8400       218
    17.8600       202
    17.8800       212
    17.9000       206
    17.9200       202
    17.9400       208
    17.9600       224
    17.9800       178
    18.0000       198
    18.0200       184
    18.0400       186
    18.0600       204
    18.0800       200
    18.1000       202
    18.1200       208
    18.1400       204
    18.1600       202
    18.1800       192
    18.2000       224
    18.2200       220
    18.2400       220
    18.2600       202
    18.2800       224
    18.3000       182
    18.3200       198
    18.3400       198
    18.3600       204
    18.3800       248
    18.4000       206
    18.4200       212
    18.4400       206
    18.4600       254
    18.4800       232
    18.5000       200
    18.5200       240
    18.5400       202
    18.5600       214
    18.5800       244
    18.6000       208
    18.6200       226
    18.6400       210
    18.6600       230
    18.6800       206
    18.7000       214
    18.7200       234
    18.7400       240
    18.7600       268
    18.7800       236
    18.8000       274
    18.8200       262
    18.8400       242
    18.8600       268
    18.8800       254
    18.9000       278
    18.9200       262
    18.9400       252
    18.9600       276
    18.9800       290
    19.0000       290
    19.0200       286
    19.0400       292
    19.0600       318
    19.0800       306
    19.1000       402
    19.1200       398
    19.1400       402
    19.1600       414
    19.1800       482
    19.2000       540
    19.2200       592
    19.2400       686
    19.2600       752
    19.2800       796
    19.3000       844
    19.3200      1014
    19.3400      1208
    19.3600      1350
    19.3800      1520
    19.4000      1758
    19.4200      2098
    19.4400      2458
    19.4600      2888
    19.4800      3300
    19.5000      3756
    19.5200      4166
    19.5400      4270
    19.5600      4254
    19.5800      3988
    19.6000      3512
    19.6200      2956
    19.6400      2370
    19.6600      1842
    19.6800      1504
    19.7000      1274
    19.7200      1178
    19.7400      1198
    19.7600      1218
    19.7800      1254
    19.8000      1264
    19.8200      1480
    19.8400      1608
    19.8600      1866
    19.8800      2050
    19.9000      2282
    19.9200      2686
    19.9400      3126
    19.9600      3262
    19.9800      3380
    20.0000      3308
    20.0200      3248
    20.0400      2910
    20.0600      2524
    20.0800      2002
    20.1000      1602
    20.1200      1232
    20.1400       944
    20.1600       836
    20.1800       746
    20.2000       632
    20.2200       578
    20.2400       524
    20.2600       492
    20.2800       472
    20.3000       458
    20.3200       428
    20.3400       422
    20.3600       378
    20.3800       392
    20.4000       364
    20.4200       314
    20.4400       306
    20.4600       286
    20.4800       298
    20.5000       280
    20.5200       284
    20.5400       256
    20.5600       276
    20.5800       254
    20.6000       238
    20.6200       220
    20.6400       260
    20.6600       228
    20.6800       236
    20.7000       246
    20.7200       254
    20.7400       190
    20.7600       234
    20.7800       226
    20.8000       236
    20.8200       228
    20.8400       230
    20.8600       234
    20.8800       220
    20.9000       222
    20.9200       252
    20.9400       248
    20.9600       270
    20.9800       292
    21.0000       282
    21.0200       288
    21.0400       276
    21.0600       280
    21.0800       314
    21.1000       306
    21.1200       318
    21.1400       378
    21.1600       324
    21.1800       324
    21.2000       358
    21.2200       376
    21.2400       354
    21.2600       378
    21.2800       344
    21.3000       326
    21.3200       306
    21.3400       316
    21.3600       270
    21.3800       270
    21.4000       246
    21.4200       258
    21.4400       246
    21.4600       224
    21.4800       246
    21.5000       236
    21.5200       202
    21.5400       194
    21.5600       206
    21.5800       194
    21.6000       230
    21.6200       196
    21.6400       170
    21.6600       194
    21.6800       228
    21.7000       222
    21.7200       198
    21.7400       194
    21.7600       198
    21.7800       194
    21.8000       180
    21.8200       202
    21.8400       202
    21.8600       208
    21.8800       214
    21.9000       194
    21.9200       212
    21.9400       186
    21.9600       186
    21.9800       194
    22.0000       214
    22.0200       216
    22.0400       216
    22.0600       218
    22.0800       190
    22.1000       208
    22.1200       222
    22.1400       224
    22.1600       228
    22.1800       254
    22.2000       244
    22.2200       254
    22.2400       254
    22.2600       230
    22.2800       270
    22.3000       254
    22.3200       270
    22.3400       264
    22.3600       300
    22.3800       288
    22.4000       342
    22.4200       346
    22.4400       426
    22.4600       412
    22.4800       490
    22.5000       534
    22.5200       578
    22.5400       656
    22.5600       742
    22.5800       812
    22.6000       946
    22.6200      1118
    22.6400      1274
    22.6600      1556
    22.6800      1746
    22.7000      2068
    22.7200      2424
    22.7400      2846
    22.7600      3378
    22.7800      3848
    22.8000      4608
    22.8200      5332
    22.8400      5820
    22.8600      6124
    22.8800      6234
    22.9000      5966
    22.9200      5090
    22.9400      4336
    22.9600      3446
    22.9800      2682
    23.0000      2084
    23.0200      1680
    23.0400      1360
    23.0600      1284
    23.0800      1078
    23.1000       946
    23.1200       940
    23.1400       864
    23.1600       802
    23.1800       748
    23.2000       732
    23.2200       640
    23.2400       640
    23.2600       550
    23.2800       548
    23.3000       512
    23.3200       482
    23.3400       404
    23.3600       430
    23.3800       402
    23.4000       374
    23.4200       322
    23.4400       322
    23.4600       346
    23.4800       286
    23.5000       320
    23.5200       292
    23.5400       262
    23.5600       290
    23.5800       290
    23.6000       304
    23.6200       280
    23.6400       262
    23.6600       240
    23.6800       294
    23.7000       260
    23.7200       254
    23.7400       228
    23.7600       282
    23.7800       288
    23.8000       260
    23.8200       270
    23.8400       246
    23.8600       216
    23.8800       244
    23.9000       256
    23.9200       290
    23.9400       244
    23.9600       264
    23.9800       258
    24.0000       256
    24.0200       282
    24.0400       274
    24.0600       306
    24.0800       304
    24.1000       312
    24.1200       284
    24.1400       280
    24.1600       280
    24.1800       260
    24.2000       278
    24.2200       264
    24.2400       310
    24.2600       304
    24.2800       328
    24.3000       346
    24.3200       402
    24.3400       390
    24.3600       384
    24.3800       428
    24.4000       454
    24.4200       466
    24.4400       520
    24.4600       486
    24.4800       492
    24.5000       504
    24.5200       488
    24.5400       530
    24.5600       434
    24.5800       412
    24.6000       392
    24.6200       392
    24.6400       328
    24.6600       324
    24.6800       340
    24.7000       304
    24.7200       314
    24.7400       274
    24.7600       286
    24.7800       262
    24.8000       282
    24.8200       250
    24.8400       236
    24.8600       222
    24.8800       242
    24.9000       250
    24.9200       234
    24.9400       214
    24.9600       248
    24.9800       222
    25.0000       268
    25.0200       256
    25.0400       250
    25.0600       222
    25.0800       256
    25.1000       260
    25.1200       220
    25.1400       260
    25.1600       266
    25.1800       272
    25.2000       248
    25.2200       292
    25.2400       292
    25.2600       310
    25.2800       330
    25.3000       358
    25.3200       350
    25.3400       396
    25.3600       378
    25.3800       422
    25.4000       462
    25.4200       534
    25.4400       584
    25.4600       692
    25.4800       786
    25.5000       838
    25.5200       948
    25.5400      1174
    25.5600      1256
    25.5800      1354
    25.6000      1352
    25.6200      1402
    25.6400      1210
    25.6600      1128
    25.6800      1034
    25.7000       888
    25.7200       730
    25.7400       582
    25.7600       508
    25.7800       486
    25.8000       392
    25.8200       384
    25.8400       348
    25.8600       320
    25.8800       308
    25.9000       290
    25.9200       258
    25.9400       266
    25.9600       316
    25.9800       228
    26.0000       270
    26.0200       278
    26.0400       302
    26.0600       310
    26.0800       240
    26.1000       294
    26.1200       274
    26.1400       278
    26.1600       296
    26.1800       286
    26.2000       300
    26.2200       330
    26.2400       358
    26.2600       376
    26.2800       372
    26.3000       374
    26.3200       382
    26.3400       426
    26.3600       430
    26.3800       454
    26.4000       426
    26.4200       478
    26.4400       444
    26.4600       500
    26.4800       514
    26.5000       514
    26.5200       532
    26.5400       502
    26.5600       530
    26.5800       542
    26.6000       550
    26.6200       482
    26.6400       538
    26.6600       514
    26.6800       498
    26.7000       468
    26.7200       482
    26.7400       434
    26.7600       434
    26.7800       366
    26.8000       344
    26.8200       392
    26.8400       314
    26.8600       298
    26.8800       290
    26.9000       286
    26.9200       290
    26.9400       304
    26.9600       264
    26.9800       276
    27.0000       248
    27.0200       260
    27.0400       230
    27.0600       274
    27.0800       276
    27.1000       264
    27.1200       252
    27.1400       250
    27.1600       276
    27.1800       248
    27.2000       300
    27.2200       260
    27.2400       266
    27.2600       268
    27.2800       236
    27.3000       248
    27.3200       274
    27.3400       296
    27.3600       292
    27.3800       290
    27.4000       278
    27.4200       280
    27.4400       346
    27.4600       300
    27.4800       316
    27.5000       358
    27.5200       318
    27.5400       318
    27.5600       300
    27.5800       292
    27.6000       278
    27.6200       296
    27.6400       292
    27.6600       322
    27.6800       262
    27.7000       298
    27.7200       252
    27.7400       276
    27.7600       302
    27.7800       302
    27.8000       284
    27.8200       294
    27.8400       348
    27.8600       370
    27.8800       370
    27.9000       390
    27.9200       452
    27.9400       492
    27.9600       600
    27.9800       566
    28.0000       620
    28.0200       698
    28.0400       764
    28.0600       912
    28.0800      1048
    28.1000      1186
    28.1200      1512
    28.1400      1720
    28.1600      1996
    28.1800      2266
    28.2000      2644
    28.2200      3136
    28.2400      3496
    28.2600      3636
    28.2800      3684
    28.3000      3620
    28.3200      3256
    28.3400      2786
    28.3600      2434
    28.3800      2012
    28.4000      1614
    28.4200      1328
    28.4400      1036
    28.4600       860
    28.4800       748
    28.5000       624
    28.5200       536
    28.5400       522
    28.5600       450
    28.5800       392
    28.6000       354
    28.6200       320
    28.6400       342
    28.6600       314
    28.6800       300
    28.7000       298
    28.7200       274
    28.7400       268
    28.7600       226
    28.7800       248
    28.8000       248
    28.8200       248
    28.8400       246
    28.8600       206
    28.8800       218
    28.9000       210
    28.9200       200
    28.9400       218
    28.9600       230
    28.9800       214
    29.0000       202
    29.0200       228
    29.0400       194
    29.0600       238
    29.0800       190
    29.1000       200
    29.1200       226
    29.1400       208
    29.1600       192
    29.1800       198
    29.2000       224
    29.2200       232
    29.2400       224
    29.2600       214
    29.2800       198
    29.3000       238
    29.3200       214
    29.3400       214
    29.3600       214
    29.3800       198
    29.4000       220
    29.4200       218
    29.4400       188
    29.4600       250
    29.4800       212
    29.5000       246
    29.5200       208
    29.5400       220
    29.5600       236
    29.5800       234
    29.6000       240
    29.6200       248
    29.6400       240
    29.6600       222
    29.6800       218
    29.7000       244
    29.7200       204
    29.7400       202
    29.7600       236
    29.7800       216
    29.8000       238
    29.8200       216
    29.8400       230
    29.8600       212
    29.8800       222
    29.9000       216
    29.9200       230
    29.9400       250
    29.9600       216
    29.9800       228
    30.0000       252
    30.0200       284
    30.0400       286
    30.0600       286
    30.0800       294
    30.1000       310
    30.1200       342
    30.1400       332
    30.1600       346
    30.1800       384
    30.2000       362
    30.2200       388
    30.2400       392
    30.2600       422
    30.2800       438
    30.3000       410
    30.3200       390
    30.3400       416
    30.3600       368
    30.3800       392
    30.4000       370
    30.4200       336
    30.4400       302
    30.4600       394
    30.4800       314
    30.5000       352
    30.5200       360
    30.5400       362
    30.5600       374
    30.5800       388
    30.6000       344
    30.6200       382
    30.6400       396
    30.6600       346
    30.6800       342
    30.7000       354
    30.7200       318
    30.7400       380
    30.7600       328
    30.7800       286
    30.8000       296
    30.8200       308
    30.8400       282
    30.8600       276
    30.8800       278
    30.9000       284
    30.9200       288
    30.9400       266
    30.9600       298
    30.9800       250
    31.0000       276
    31.0200       274
    31.0400       250
    31.0600       290
    31.0800       230
    31.1000       292
    31.1200       276
    31.1400       276
    31.1600       274
    31.1800       288
    31.2000       272
    31.2200       272
    31.2400       274
    31.2600       296
    31.2800       276
    31.3000       280
    31.3200       296
    31.3400       298
    31.3600       294
    31.3800       284
    31.4000       300
    31.4200       348
    31.4400       342
    31.4600       332
    31.4800       334
    31.5000       330
    31.5200       394
    31.5400       408
    31.5600       414
    31.5800       436
    31.6000       458
    31.6200       530
    31.6400       510
    31.6600       572
    31.6800       650
    31.7000       702
    31.7200       744
    31.7400       776
    31.7600       904
    31.7800       982
    31.8000      1112
    31.8200      1210
    31.8400      1428
    31.8600      1606
    31.8800      1850
    31.9000      2146
    31.9200      2420
    31.9400      2662
    31.9600      3102
    31.9800      3336
    32.0000      3310
    32.0200      3296
    32.0400      3056
    32.0600      2902
    32.0800      2620
    32.1000      2356
    32.1200      2004
    32.1400      1892
    32.1600      1686
    32.1800      1602
    32.2000      1570
    32.2200      1550
    32.2400      1696
    32.2600      1696
    32.2800      1912
    32.3000      2046
    32.3200      2348
    32.3400      2632
    32.3600      2912
    32.3800      3502
    32.4000      4048
    32.4200      4720
    32.4400      5712
    32.4600      6632
    32.4800      7560
    32.5000      8876
    32.5200      9632
    32.5400     10640
    32.5600     11022
    32.5800     10838
    32.6000     10200
    32.6200      9380
    32.6400      8494
    32.6600      7256
    32.6800      6290
    32.7000      5174
    32.7200      4236
    32.7400      3556
    32.7600      3006
    32.7800      2432
    32.8000      2114
    32.8200      1880
    32.8400      1724
    32.8600      1606
    32.8800      1542
    32.9000      1392
    32.9200      1380
    32.9400      1398
    32.9600      1466
    32.9800      1638
    33.0000      1636
    33.0200      1672
    33.0400      1880
    33.0600      2104
    33.0800      2168
    33.1000      2326
    33.1200      2330
    33.1400      2056
    33.1600      1946
    33.1800      1640
    33.2000      1532
    33.2200      1258
    33.2400      1052
    33.2600       940
    33.2800       820
    33.3000       682
    33.3200       636
    33.3400       576
    33.3600       502
    33.3800       484
    33.4000       452
    33.4200       420
    33.4400       358
    33.4600       414
    33.4800       348
    33.5000       338
    33.5200       328
    33.5400       348
    33.5600       268
    33.5800       314
    33.6000       288
    33.6200       310
    33.6400       232
    33.6600       272
    33.6800       266
    33.7000       228
    33.7200       280
    33.7400       248
    33.7600       236
    33.7800       236
    33.8000       230
    33.8200       236
    33.8400       248
    33.8600       236
    33.8800       228
    33.9000       240
    33.9200       236
    33.9400       236
    33.9600       240
    33.9800       224
    34.0000       258
    34.0200       248
    34.0400       246
    34.0600       258
    34.0800       256
    34.1000       234
    34.1200       254
    34.1400       240
    34.1600       232
    34.1800       246
    34.2000       242
    34.2200       244
    34.2400       238
    34.2600       252
    34.2800       232
    34.3000       238
    34.3200       242
    34.3400       256
    34.3600       224
    34.3800       246
    34.4000       240
    34.4200       228
    34.4400       260
    34.4600       244
    34.4800       240
    34.5000       220
    34.5200       258
    34.5400       244
    34.5600       262
    34.5800       238
    34.6000       286
    34.6200       240
    34.6400       258
    34.6600       262
    34.6800       270
    34.7000       262
    34.7200       282
    34.7400       240
    34.7600       264
    34.7800       238
    34.8000       278
    34.8200       252
    34.8400       258
    34.8600       256
    34.8800       272
    34.9000       244
    34.9200       282
    34.9400       268
    34.9600       248
    34.9800       252
    35.0000       262
    35.0200       276
    35.0400       280
    35.0600       242
    35.0800       278
    35.1000       280
    35.1200       244
    35.1400       244
    35.1600       272
    35.1800       254
    35.2000       276
    35.2200       264
    35.2400       234
    35.2600       224
    35.2800       262
    35.3000       256
    35.3200       234
    35.3400       246
    35.3600       230
    35.3800       248
    35.4000       296
    35.4200       232
    35.4400       246
    35.4600       274
    35.4800       234
    35.5000       240
    35.5200       252
    35.5400       254
    35.5600       276
    35.5800       274
    35.6000       280
    35.6200       282
    35.6400       266
    35.6600       298
    35.6800       264
    35.7000       332
    35.7200       282
    35.7400       280
    35.7600       352
    35.7800       314
    35.8000       340
    35.8200       328
    35.8400       328
    35.8600       332
    35.8800       374
    35.9000       376
    35.9200       368
    35.9400       422
    35.9600       422
    35.9800       454
    36.0000       570
    36.0200       554
    36.0400       594
    36.0600       638
    36.0800       722
    36.1000       790
    36.1200       836
    36.1400       880
    36.1600       876
    36.1800       850
    36.2000       804
    36.2200       750
    36.2400       724
    36.2600       680
    36.2800       588
    36.3000       578
    36.3200       560
    36.3400       454
    36.3600       460
    36.3800       466
    36.4000       406
    36.4200       470
    36.4400       418
    36.4600       436
    36.4800       416
    36.5000       442
    36.5200       438
    36.5400       444
    36.5600       514
    36.5800       488
    36.6000       522
    36.6200       610
    36.6400       642
    36.6600       690
    36.6800       798
    36.7000       882
    36.7200       982
    36.7400      1136
    36.7600      1276
    36.7800      1432
    36.8000      1604
    36.8200      1830
    36.8400      2054
    36.8600      2486
    36.8800      2640
    36.9000      2716
    36.9200      2618
    36.9400      2586
    36.9600      2406
    36.9800      2098
    37.0000      1934
    37.0200      1682
    37.0400      1556
    37.0600      1390
    37.0800      1196
    37.1000      1098
    37.1200       906
    37.1400       860
    37.1600       798
    37.1800       706
    37.2000       692
    37.2200       594
    37.2400       590
    37.2600       588
    37.2800       586
    37.3000       580
    37.3200       554
    37.3400       512
    37.3600       556
    37.3800       516
    37.4000       472
    37.4200       512
    37.4400       452
    37.4600       474
    37.4800       448
    37.5000       498
    37.5200       476
    37.5400       462
    37.5600       506
    37.5800       452
    37.6000       490
    37.6200       560
    37.6400       512
    37.6600       534
    37.6800       582
    37.7000       600
    37.7200       614
    37.7400       656
    37.7600       694
    37.7800       740
    37.8000       840
    37.8200       846
    37.8400      1018
    37.8600      1118
    37.8800      1280
    37.9000      1490
    37.9200      1738
    37.9400      1874
    37.9600      2210
    37.9800      2420
    38.0000      2500
    38.0200      2652
    38.0400      2770
    38.0600      2602
    38.0800      2496
    38.1000      2318
    38.1200      2144
    38.1400      2092
    38.1600      2022
    38.1800      1770
    38.2000      1666
    38.2200      1696
    38.2400      1676
    38.2600      1714
    38.2800      1846
    38.3000      1840
    38.3200      2150
    38.3400      2244
    38.3600      2594
    38.3800      2898
    38.4000      3322
    38.4200      3946
    38.4400      4278
    38.4600      4676
    38.4800      4940
    38.5000      5042
    38.5200      5312
    38.5400      5072
    38.5600      5048
    38.5800      4812
    38.6000      4660
    38.6200      4730
    38.6400      4470
    38.6600      4286
    38.6800      4434
    38.7000      4470
    38.7200      4464
    38.7400      4346
    38.7600      4416
    38.7800      3950
    38.8000      3828
    38.8200      3452
    38.8400      3142
    38.8600      2854
    38.8800      2456
    38.9000      2114
    38.9200      1882
    38.9400      1598
    38.9600      1430
    38.9800      1216
    39.0000      1124
    39.0200      1060
    39.0400       982
    39.0600       888
    39.0800       860
    39.1000       844
    39.1200       790
    39.1400       712
    39.1600       754
    39.1800       714
    39.2000       736
    39.2200       656
    39.2400       714
    39.2600       676
    39.2800       676
    39.3000       696
    39.3200       668
    39.3400       664
    39.3600       714
    39.3800       666
    39.4000       760
    39.4200       836
    39.4400       798
    39.4600       910
    39.4800       940
    39.5000      1048
    39.5200      1214
    39.5400      1232
    39.5600      1554
    39.5800      1700
    39.6000      1946
    39.6200      2350
    39.6400      2474
    39.6600      2772
    39.6800      2946
    39.7000      3030
    39.7200      2976
    39.7400      2892
    39.7600      2544
    39.7800      2442
    39.8000      2206
    39.8200      1934
    39.8400      1712
    39.8600      1482
    39.8800      1184
    39.9000      1100
    39.9200       950
    39.9400       848
    39.9600       786
    39.9800       722
    40.0000       644
    40.0200       598
    40.0400       612
    40.0600       612
    40.0800       570
    40.1000       602
    40.1200       520
    40.1400       540
    40.1600       528
    40.1800       480
    40.2000       498
    40.2200       526
    40.2400       536
    40.2600       544
    40.2800       552
    40.3000       592
    40.3200       584
    40.3400       684
    40.3600       706
    40.3800       706
    40.4000       704
    40.4200       804
    40.4400       874
    40.4600       944
    40.4800      1178
    40.5000      1202
    40.5200      1292
    40.5400      1386
    40.5600      1498
    40.5800      1704
    40.6000      1638
    40.6200      1732
    40.6400      1642
    40.6600      1636
    40.6800      1592
    40.7000      1450
    40.7200      1292
    40.7400      1250
    40.7600      1110
    40.7800      1002
    40.8000       892
    40.8200       830
    40.8400       756
    40.8600       680
    40.8800       630
    40.9000       576
    40.9200       502
    40.9400       530
    40.9600       508
    40.9800       476
    41.0000       480
    41.0200       480
    41.0400       450
    41.0600       478
    41.0800       464
    41.1000       444
    41.1200       442
    41.1400       452
    41.1600       432
    41.1800       468
    41.2000       464
    41.2200       468
    41.2400       526
    41.2600       504
    41.2800       532
    41.3000       504
    41.3200       520
    41.3400       492
    41.3600       522
    41.3800       528
    41.4000       548
    41.4200       532
    41.4400       538
    41.4600       478
    41.4800       514
    41.5000       488
    41.5200       590
    41.5400       542
    41.5600       562
    41.5800       582
    41.6000       634
    41.6200       672
    41.6400       746
    41.6600       728
    41.6800       774
    41.7000       890
    41.7200       984
    41.7400      1124
    41.7600      1242
    41.7800      1362
    41.8000      1588
    41.8200      1848
    41.8400      1952
    41.8600      2128
    41.8800      2200
    41.9000      2380
    41.9200      2322
    41.9400      2334
    41.9600      2256
    41.9800      2132
    42.0000      1922
    42.0200      1696
    42.0400      1548
    42.0600      1412
    42.0800      1222
    42.1000      1046
    42.1200       982
    42.1400       872
    42.1600       830
    42.1800       772
    42.2000       704
    42.2200       592
    42.2400       632
    42.2600       574
    42.2800       536
    42.3000       510
    42.3200       508
    42.3400       452
    42.3600       440
    42.3800       430
    42.4000       462
    42.4200       466
    42.4400       428
    42.4600       410
    42.4800       426
    42.5000       380
    42.5200       434
    42.5400       408
    42.5600       370
    42.5800       386
    42.6000       376
    42.6200       414
    42.6400       408
    42.6600       430
    42.6800       424
    42.7000       374
    42.7200       426
    42.7400       414
    42.7600       446
    42.7800       424
    42.8000       446
    42.8200       488
    42.8400       522
    42.8600       526
    42.8800       536
    42.9000       618
    42.9200       630
    42.9400       688
    42.9600       688
    42.9800       812
    43.0000       826
    43.0200       996
    43.0400      1072
    43.0600      1256
    43.0800      1332
    43.1000      1578
    43.1200      1798
    43.1400      1996
    43.1600      2156
    43.1800      2320
    43.2000      2260
    43.2200      2306
    43.2400      2248
    43.2600      2186
    43.2800      1984
    43.3000      1840
    43.3200      1734
    43.3400      1530
    43.3600      1346
    43.3800      1290
    43.4000      1070
    43.4200       938
    43.4400       858
    43.4600       798
    43.4800       682
    43.5000       706
    43.5200       656
    43.5400       608
    43.5600       524
    43.5800       570
    43.6000       516
    43.6200       532
    43.6400       562
    43.6600       576
    43.6800       628
    43.7000       658
    43.7200       674
    43.7400       710
    43.7600       778
    43.7800       836
    43.8000       832
    43.8200       888
    43.8400       842
    43.8600       852
    43.8800       858
    43.9000       848
    43.9200       802
    43.9400       746
    43.9600       720
    43.9800       692
    44.0000       640
    44.0200       602
    44.0400       542
    44.0600       508
    44.0800       490
    44.1000       506
    44.1200       424
    44.1400       434
    44.1600       456
    44.1800       452
    44.2000       408
    44.2200       412
    44.2400       408
    44.2600       392
    44.2800       378
    44.3000       398
    44.3200       406
    44.3400       422
    44.3600       444
    44.3800       378
    44.4000       386
    44.4200       412
    44.4400       400
    44.4600       362
    44.4800       390
    44.5000       398
    44.5200       382
    44.5400       360
    44.5600       408
    44.5800       398
    44.6000       374
    44.6200       406
    44.6400       382
    44.6600       320
    44.6800       364
    44.7000       378
    44.7200       338
    44.7400       362
    44.7600       342
    44.7800       354
    44.8000       378
    44.8200       338
    44.8400       396
    44.8600       398
    44.8800       360
    44.9000       388
    44.9200       420
    44.9400       440
    44.9600       364
    44.9800       456
    45.0000       444
    45.0200       450
    45.0400       482
    45.0600       482
    45.0800       472
    45.1000       510
    45.1200       468
    45.1400       462
    45.1600       470
    45.1800       446
    45.2000       508
    45.2200       440
    45.2400       448
    45.2600       438
    45.2800       462
    45.3000       444
    45.3200       392
    45.3400       444
    45.3600       390
    45.3800       472
    45.4000       444
    45.4200       398
    45.4400       414
    45.4600       418
    45.4800       468
    45.5000       434
    45.5200       412
    45.5400       424
    45.5600       470
    45.5800       432
    45.6000       464
    45.6200       426
    45.6400       484
    45.6600       494
    45.6800       480
    45.7000       524
    45.7200       500
    45.7400       492
    45.7600       536
    45.7800       522
    45.8000       494
    45.8200       492
    45.8400       568
    45.8600       524
    45.8800       544
    45.9000       562
    45.9200       596
    45.9400       574
    45.9600       586
    45.9800       658
    46.0000       610
    46.0200       594
    46.0400       630
    46.0600       642
    46.0800       620
    46.1000       686
    46.1200       726
    46.1400       718
    46.1600       722
    46.1800       820
    46.2000       794
    46.2200       846
    46.2400       962
    46.2600       992
    46.2800      1048
    46.3000      1104
    46.3200      1218
    46.3400      1332
    46.3600      1446
    46.3800      1520
    46.4000      1718
    46.4200      2054
    46.4400      2200
    46.4600      2474
    46.4800      2848
    46.5000      3092
    46.5200      3380
    46.5400      4070
    46.5600      4566
    46.5800      5592
    46.6000      6296
    46.6200      7274
    46.6400      8194
    46.6600      9262
    46.6800     10064
    46.7000     10634
    46.7200     11020
    46.7400     10822
    46.7600     10816
    46.7800     10176
    46.8000      9562
    46.8200      9124
    46.8400      8404
    46.8600      8038
    46.8800      7426
    46.9000      6840
    46.9200      6486
    46.9400      5992
    46.9600      5696
    46.9800      5446
    47.0000      5310
    47.0200      4962
    47.0400      4764
    47.0600      4386
    47.0800      4092
    47.1000      3854
    47.1200      3622
    47.1400      3142
    47.1600      2956
    47.1800      2632
    47.2000      2324
    47.2200      1964
    47.2400      1866
    47.2600      1622
    47.2800      1458
    47.3000      1394
    47.3200      1256
    47.3400      1230
    47.3600      1084
    47.3800       966
    47.4000       956
    47.4200       920
    47.4400       898
    47.4600       842
    47.4800       826
    47.5000       778
    47.5200       760
    47.5400       740
    47.5600       738
    47.5800       696
    47.6000       706
    47.6200       768
    47.6400       670
    47.6600       734
    47.6800       750
    47.7000       814
    47.7200       792
    47.7400       846
    47.7600       916
    47.7800       940
    47.8000       966
    47.8200      1062
    47.8400      1100
    47.8600      1014
    47.8800      1070
    47.9000      1030
    47.9200      1000
    47.9400       928
    47.9600       880
    47.9800       950
    48.0000       926
    48.0200       896
    48.0400       874
    48.0600       844
    48.0800       854
    48.1000       820
    48.1200       942
    48.1400       886
    48.1600       960
    48.1800       984
    48.2000      1034
    48.2200      1048
    48.2400      1026
    48.2600      1076
    48.2800       996
    48.3000       898
    48.3200       910
    48.3400       878
    48.3600       858
    48.3800       708
    48.4000       722
    48.4200       692
    48.4400       634
    48.4600       628
    48.4800       556
    48.5000       480
    48.5200       474
    48.5400       518
    48.5600       488
    48.5800       440
    48.6000       478
    48.6200       462
    48.6400       402
    48.6600       406
    48.6800       432
    48.7000       410
    48.7200       434
    48.7400       386
    48.7600       396
    48.7800       382
    48.8000       366
    48.8200       356
    48.8400       358
    48.8600       360
    48.8800       356
    48.9000       338
    48.9200       380
    48.9400       360
    48.9600       324
    48.9800       356
    49.0000       304
    49.0200       356
    49.0400       318
    49.0600       286
    49.0800       322
    49.1000       310
    49.1200       308
    49.1400       346
    49.1600       312
    49.1800       294
    49.2000       270
    49.2200       340
    49.2400       356
    49.2600       314
    49.2800       308
    49.3000       282
    49.3200       284
    49.3400       304
    49.3600       302
    49.3800       276
    49.4000       340
    49.4200       312
    49.4400       292
    49.4600       264
    49.4800       334
    49.5000       316
    49.5200       292
    49.5400       314
    49.5600       296
    49.5800       328
    49.6000       326
    49.6200       340
    49.6400       318
    49.6600       332
    49.6800       340
    49.7000       320
    49.7200       344
    49.7400       292
    49.7600       336
    49.7800       330
    49.8000       342
    49.8200       328
    49.8400       326
    49.8600       334
    49.8800       330
    49.9000       318
    49.9200       328
    49.9400       342
    49.9600       342
    49.9800       368
    50.0000       364
    50.0200       368
    50.0400       378
    50.0600       402
    50.0800       412
    50.1000       432
    50.1200       398
    50.1400       384
    50.1600       440
    50.1800       470
    50.2000       462
    50.2200       546
    50.2400       508
    50.2600       496
    50.2800       492
    50.3000       536
    50.3200       530
    50.3400       490
    50.3600       536
    50.3800       522
    50.4000       518
    50.4200       506
    50.4400       486
    50.4600       498
    50.4800       508
    50.5000       458
    50.5200       510
    50.5400       478
    50.5600       496
    50.5800       448
    50.6000       490
    50.6200       518
    50.6400       480
    50.6600       456
    50.6800       492
    50.7000       516
    50.7200       504
    50.7400       546
    50.7600       554
    50.7800       588
    50.8000       636
    50.8200       702
    50.8400       738
    50.8600       782
    50.8800       814
    50.9000       836
    50.9200       938
    50.9400       898
    50.9600       912
    50.9800       894
    51.0000       864
    51.0200       842
    51.0400       802
    51.0600       730
    51.0800       754
    51.1000       650
    51.1200       712
    51.1400       624
    51.1600       606
    51.1800       592
    51.2000       612
    51.2200       598
    51.2400       590
    51.2600       604
    51.2800       598
    51.3000       616
    51.3200       634
    51.3400       730
    51.3600       732
    51.3800       736
    51.4000       760
    51.4200       762
    51.4400       820
    51.4600       830
    51.4800       744
    51.5000       768
    51.5200       772
    51.5400       732
    51.5600       798
    51.5800       734
    51.6000       748
    51.6200       664
    51.6400       722
    51.6600       748
    51.6800       698
    51.7000       802
    51.7200       790
    51.7400       834
    51.7600       884
    51.7800      1004
    51.8000      1060
    51.8200      1138
    51.8400      1158
    51.8600      1254
    51.8800      1134
    51.9000      1144
    51.9200      1146
    51.9400      1128
    51.9600      1062
    51.9800      1086
    52.0000      1116
    52.0200      1096
    52.0400      1006
    52.0600       950
    52.0800       918
    52.1000       898
    52.1200       824
    52.1400       800
    52.1600       772
    52.1800       796
    52.2000       666
    52.2200       744
    52.2400       706
    52.2600       716
    52.2800       670
    52.3000       694
    52.3200       696
    52.3400       690
    52.3600       728
    52.3800       784
    52.4000       876
    52.4200       896
    52.4400       968
    52.4600      1016
    52.4800      1136
    52.5000      1296
    52.5200      1374
    52.5400      1404
    52.5600      1556
    52.5800      1630
    52.6000      1652
    52.6200      1702
    52.6400      1676
    52.6600      1712
    52.6800      1674
    52.7000      1684
    52.7200      1590
    52.7400      1504
    52.7600      1400
    52.7800      1380
    52.8000      1224
    52.8200      1154
    52.8400      1072
    52.8600      1038
    52.8800       984
    52.9000       986
    52.9200       924
    52.9400       846
    52.9600       902
    52.9800       850
    53.0000       910
    53.0200       896
    53.0400       968
    53.0600       952
    53.0800      1066
    53.1000      1188
    53.1200      1224
    53.1400      1422
    53.1600      1520
    53.1800      1694
    53.2000      1840
    53.2200      2038
    53.2400      2078
    53.2600      2194
    53.2800      2370
    53.3000      2124
    53.3200      2118
    53.3400      2066
    53.3600      1910
    53.3800      1796
    53.4000      1670
    53.4200      1574
    53.4400      1428
    53.4600      1340
    53.4800      1202
    53.5000      1040
    53.5200       916
    53.5400       816
    53.5600       754
    53.5800       726
    53.6000       640
    53.6200       600
    53.6400       524
    53.6600       508
    53.6800       516
    53.7000       462
    53.7200       422
    53.7400       424
    53.7600       404
    53.7800       384
    53.8000       362
    53.8200       356
    53.8400       364
    53.8600       356
    53.8800       342
    53.9000       346
    53.9200       362
    53.9400       346
    53.9600       338
    53.9800       324
    54.0000       342
    54.0200       340
    54.0400       300
    54.0600       314
    54.0800       312
    54.1000       318
    54.1200       320
    54.1400       352
    54.1600       288
    54.1800       344
    54.2000       344
    54.2200       348
    54.2400       362
    54.2600       358
    54.2800       334
    54.3000       350
    54.3200       368
    54.3400       408
    54.3600       380
    54.3800       362
    54.4000       402
    54.4200       424
    54.4400       476
    54.4600       456
    54.4800       518
    54.5000       536
    54.5200       532
    54.5400       610
    54.5600       644
    54.5800       606
    54.6000       672
    54.6200       768
    54.6400       724
    54.6600       734
    54.6800       760
    54.7000       860
    54.7200       958
    54.7400       956
    54.7600       946
    54.7800       946
    54.8000       984
    54.8200       936
    54.8400       858
    54.8600       848
    54.8800       850
    54.9000       752
    54.9200       746
    54.9400       714
    54.9600       658
    54.9800       648
    55.0000       564
    55.0200       520
    55.0400       522
    55.0600       456
    55.0800       470
    55.1000       448
    55.1200       428
    55.1400       432
    55.1600       444
    55.1800       454
    55.2000       424
    55.2200       406
    55.2400       394
    55.2600       426
    55.2800       412
    55.3000       394
    55.3200       420
    55.3400       402
    55.3600       416
    55.3800       408
    55.4000       406
    55.4200       408
    55.4400       440
    55.4600       414
    55.4800       434
    55.5000       486
    55.5200       468
    55.5400       502
    55.5600       546
    55.5800       562
    55.6000       616
    55.6200       638
    55.6400       790
    55.6600       818
    55.6800       880
    55.7000       898
    55.7200       992
    55.7400      1122
    55.7600      1124
    55.7800      1166
    55.8000      1074
    55.8200      1058
    55.8400      1040
    55.8600       992
    55.8800       942
    55.9000       880
    55.9200       816
    55.9400       756
    55.9600       764
    55.9800       640
    56.0000       586
    56.0200       574
    56.0400       528
    56.0600       504
    56.0800       446
    56.1000       434
    56.1200       450
    56.1400       384
    56.1600       408
    56.1800       388
    56.2000       404
    56.2200       384
    56.2400       378
    56.2600       340
    56.2800       350
    56.3000       332
    56.3200       360
    56.3400       302
    56.3600       294
    56.3800       322
    56.4000       330
    56.4200       284
    56.4400       346
    56.4600       312
    56.4800       324
    56.5000       324
    56.5200       278
    56.5400       296
    56.5600       306
    56.5800       308
    56.6000       304
    56.6200       366
    56.6400       344
    56.6600       342
    56.6800       330
    56.7000       364
    56.7200       334
    56.7400       388
    56.7600       386
    56.7800       394
    56.8000       370
    56.8200       412
    56.8400       364
    56.8600       374
    56.8800       392
    56.9000       444
    56.9200       420
    56.9400       440
    56.9600       492
    56.9800       498
    57.0000       534
    57.0200       510
    57.0400       580
    57.0600       564
    57.0800       628
    57.1000       672
    57.1200       734
    57.1400       740
    57.1600       834
    57.1800       902
    57.2000       960
    57.2200      1134
    57.2400      1232
    57.2600      1362
    57.2800      1536
    57.3000      1604
    57.3200      1894
    57.3400      1914
    57.3600      1930
    57.3800      2052
    57.4000      2050
    57.4200      2114
    57.4400      2076
    57.4600      1982
    57.4800      1944
    57.5000      1948
    57.5200      1914
    57.5400      1826
    57.5600      1770
    57.5800      1870
    57.6000      1772
    57.6200      1860
    57.6400      1924
    57.6600      1968
    57.6800      1958
    57.7000      2086
    57.7200      2152
    57.7400      2152
    57.7600      2174
    57.7800      2116
    57.8000      2050
    57.8200      1952
    57.8400      1912
    57.8600      1828
    57.8800      1682
    57.9000      1636
    57.9200      1536
    57.9400      1514
    57.9600      1306
    57.9800      1324
    58.0000      1188
    58.0200      1118
    58.0400      1050
    58.0600      1004
    58.0800       958
    58.1000       886
    58.1200       880
    58.1400       896
    58.1600       984
    58.1800       972
    58.2000       950
    58.2200       986
    58.2400      1068
    58.2600      1062
    58.2800      1136
    58.3000      1154
    58.3200      1284
    58.3400      1430
    58.3600      1446
    58.3800      1608
    58.4000      1716
    58.4200      1874
    58.4400      2026
    58.4600      2162
    58.4800      2296
    58.5000      2438
    58.5200      2648
    58.5400      2742
    58.5600      2882
    58.5800      3028
    58.6000      3012
    58.6200      3224
    58.6400      3302
    58.6600      3548
    58.6800      3788
    58.7000      4034
    58.7200      4022
    58.7400      4084
    58.7600      4070
    58.7800      4042
    58.8000      3902
    58.8200      3836
    58.8400      3698
    58.8600      3438
    58.8800      3378
    58.9000      3254
    58.9200      2876
    58.9400      2696
    58.9600      2544
    58.9800      2372
    59.0000      2118
    59.0200      1804
    59.0400      1728
    59.0600      1496
    59.0800      1436
    59.1000      1262
    59.1200      1106
    59.1400      1030
    59.1600       988
    59.1800       916
    59.2000       840
    59.2200       836
    59.2400       724
    59.2600       710
    59.2800       650
    59.3000       616
    59.3200       574
    59.3400       608
    59.3600       586
    59.3800       548
    59.4000       568
    59.4200       538
    59.4400       500
    59.4600       534
    59.4800       490
    59.5000       478
    59.5200       448
    59.5400       438
    59.5600       422
    59.5800       448
    59.6000       392
    59.6200       414
    59.6400       382
    59.6600       378
    59.6800       380
    59.7000       408
    59.7200       418
    59.7400       368
    59.7600       370
    59.7800       352
    59.8000       412
    59.8200       364
    59.8400       358
    59.8600       370
    59.8800       366
    59.9000       344
    59.9200       366
    59.9400       298
    59.9600       362
    59.9800       378
    60.0000       334
    60.0200       362
    60.0400       322
    60.0600       360
    60.0800       350
    60.1000       300
    60.1200       338
    60.1400       322
    60.1600       336
    60.1800       332
    60.2000       318
    60.2200       328
    60.2400       350
    60.2600       316
    60.2800       300
    60.3000       336
    60.3200       338
    60.3400       332
    60.3600       346
    60.3800       368
    60.4000       340
    60.4200       348
    60.4400       352
    60.4600       368
    60.4800       322
    60.5000       370
    60.5200       322
    60.5400       310
    60.5600       354
    60.5800       370
    60.6000       336
    60.6200       330
    60.6400       322
    60.6600       330
    60.6800       364
    60.7000       336
    60.7200       352
    60.7400       344
    60.7600       348
    60.7800       374
    60.8000       340
    60.8200       402
    60.8400       352
    60.8600       382
    60.8800       412
    60.9000       402
    60.9200       438
    60.9400       388
    60.9600       444
    60.9800       426
    61.0000       488
    61.0200       466
    61.0400       556
    61.0600       526
    61.0800       572
    61.1000       580
    61.1200       596
    61.1400       590
    61.1600       594
    61.1800       592
    61.2000       594
    61.2200       572
    61.2400       530
    61.2600       540
    61.2800       592
    61.3000       578
    61.3200       586
    61.3400       562
    61.3600       554
    61.3800       578
    61.4000       550
    61.4200       520
    61.4400       580
    61.4600       596
    61.4800       644
    61.5000       582
    61.5200       594
    61.5400       626
    61.5600       632
    61.5800       612
    61.6000       580
    61.6200       616
    61.6400       620
    61.6600       538
    61.6800       554
    61.7000       572
    61.7200       544
    61.7400       526
    61.7600       542
    61.7800       548
    61.8000       498
    61.8200       548
    61.8400       510
    61.8600       530
    61.8800       542
    61.9000       574
    61.9200       576
    61.9400       576
    61.9600       562
    61.9800       588
    62.0000       640
    62.0200       584
    62.0400       614
    62.0600       654
    62.0800       610
    62.1000       592
    62.1200       644
    62.1400       660
    62.1600       650
    62.1800       588
    62.2000       616
    62.2200       592
    62.2400       632
    62.2600       594
    62.2800       592
    62.3000       598
    62.3200       546
    62.3400       572
    62.3600       544
    62.3800       530
    62.4000       574
    62.4200       526
    62.4400       492
    62.4600       458
    62.4800       468
    62.5000       436
    62.5200       476
    62.5400       450
    62.5600       412
    62.5800       436
    62.6000       388
    62.6200       398
    62.6400       388
    62.6600       330
    62.6800       316
    62.7000       344
    62.7200       284
    62.7400       292
    62.7600       322
    62.7800       314
    62.8000       316
    62.8200       280
    62.8400       306
    62.8600       290
    62.8800       306
    62.9000       256
    62.9200       270
    62.9400       252
    62.9600       252
    62.9800       266
    63.0000       264
    63.0200       266
    63.0400       226
    63.0600       262
    63.0800       256
    63.1000       246
    63.1200       236
    63.1400       238
    63.1600       250
    63.1800       240
    63.2000       278
    63.2200       258
    63.2400       238
    63.2600       232
    63.2800       236
    63.3000       240
    63.3200       248
    63.3400       248
    63.3600       258
    63.3800       234
    63.4000       240
    63.4200       240
    63.4400       240
    63.4600       268
    63.4800       260
    63.5000       266
    63.5200       254
    63.5400       266
    63.5600       260
    63.5800       286
    63.6000       262
    63.6200       298
    63.6400       286
    63.6600       346
    63.6800       334
    63.7000       350
    63.7200       348
    63.7400       394
    63.7600       412
    63.7800       424
    63.8000       474
    63.8200       544
    63.8400       534
    63.8600       492
    63.8800       550
    63.9000       506
    63.9200       514
    63.9400       532
    63.9600       464
    63.9800       472
    64.0000       430
    64.0200       436
    64.0400       438
    64.0600       402
    64.0800       368
    64.1000       376
    64.1200       334
    64.1400       348
    64.1600       300
    64.1800       292
    64.2000       318
    64.2200       258
    64.2400       258
    64.2600       252
    64.2800       280
    64.3000       256
    64.3200       240
    64.3400       254
    64.3600       240
    64.3800       246
    64.4000       238
    64.4200       270
    64.4400       244
    64.4600       204
    64.4800       222
    64.5000       236
    64.5200       228
    64.5400       244
    64.5600       236
    64.5800       216
    64.6000       248
    64.6200       206
    64.6400       210
    64.6600       230
    64.6800       228
    64.7000       226
    64.7200       210
    64.7400       238
    64.7600       212
    64.7800       212
    64.8000       216
    64.8200       216
    64.8400       246
    64.8600       246
    64.8800       252
    64.9000       252
    64.9200       240
    64.9400       246
    64.9600       256
    64.9800       260
    65.0000       260
    65.0200       306
    65.0400       280
    65.0600       306
    65.0800       326
    65.1000       338
    65.1200       332
    65.1400       372
    65.1600       388
    65.1800       392
    65.2000       414
    65.2200       460
    65.2400       422
    65.2600       458
    65.2800       420
    65.3000       498
    65.3200       464
    65.3400       498
    65.3600       506
    65.3800       476
    65.4000       468
    65.4200       478
    65.4400       452
    65.4600       380
    65.4800       404
    65.5000       404
    65.5200       396
    65.5400       338
    65.5600       344
    65.5800       322
    65.6000       298
    65.6200       284
    65.6400       292
    65.6600       292
    65.6800       304
    65.7000       266
    65.7200       278
    65.7400       280
    65.7600       254
    65.7800       250
    65.8000       266
    65.8200       234
    65.8400       232
    65.8600       232
    65.8800       246
    65.9000       240
    65.9200       270
    65.9400       232
    65.9600       230
    65.9800       230
    66.0000       248
    66.0200       248
    66.0400       242
    66.0600       240
    66.0800       282
    66.1000       236
    66.1200       252
    66.1400       234
    66.1600       260
    66.1800       232
    66.2000       252
    66.2200       298
    66.2400       254
    66.2600       248
    66.2800       250
    66.3000       272
    66.3200       308
    66.3400       262
    66.3600       300
    66.3800       246
    66.4000       294
    66.4200       298
    66.4400       322
    66.4600       318
    66.4800       334
    66.5000       340
    66.5200       368
    66.5400       398
    66.5600       386
    66.5800       414
    66.6000       438
    66.6200       444
    66.6400       376
    66.6600       438
    66.6800       504
    66.7000       500
    66.7200       488
    66.7400       538
    66.7600       598
    66.7800       572
    66.8000       652
    66.8200       690
    66.8400       690
    66.8600       674
    66.8800       698
    66.9000       728
    66.9200       740
    66.9400       718
    66.9600       682
    66.9800       674
    67.0000       626
    67.0200       642
    67.0400       618
    67.0600       572
    67.0800       568
    67.1000       540
    67.1200       534
    67.1400       502
    67.1600       488
    67.1800       470
    67.2000       474
    67.2200       450
    67.2400       370
    67.2600       368
    67.2800       358
    67.3000       372
    67.3200       358
    67.3400       352
    67.3600       340
    67.3800       338
    67.4000       346
    67.4200       290
    67.4400       312
    67.4600       334
    67.4800       318
    67.5000       314
    67.5200       328
    67.5400       302
    67.5600       346
    67.5800       304
    67.6000       346
    67.6200       346
    67.6400       314
    67.6600       366
    67.6800       364
    67.7000       386
    67.7200       388
    67.7400       388
    67.7600       390
    67.7800       440
    67.8000       424
    67.8200       434
    67.8400       444
    67.8600       480
    67.8800       532
    67.9000       594
    67.9200       600
    67.9400       660
    67.9600       712
    67.9800       804
    68.0000       796
    68.0200       908
    68.0400       978
    68.0600      1060
    68.0800      1166
    68.1000      1254
    68.1200      1278
    68.1400      1396
    68.1600      1378
    68.1800      1430
    68.2000      1518
    68.2200      1464
    68.2400      1470
    68.2600      1522
    68.2800      1504
    68.3000      1454
    68.3200      1392
    68.3400      1286
    68.3600      1318
    68.3800      1192
    68.4000      1160
    68.4200      1074
    68.4400      1064
    68.4600       970
    68.4800       948
    68.5000       850
    68.5200       864
    68.5400       814
    68.5600       788
    68.5800       820
    68.6000       768
    68.6200       754
    68.6400       764
    68.6600       724
    68.6800       688
    68.7000       690
    68.7200       648
    68.7400       632
    68.7600       620
    68.7800       634
    68.8000       538
    68.8200       524
    68.8400       482
    68.8600       510
    68.8800       470
    68.9000       460
    68.9200       438
    68.9400       456
    68.9600       426
    68.9800       414
    69.0000       406
    69.0200       384
    69.0400       436
    69.0600       430
    69.0800       382
    69.1000       394
    69.1200       414
    69.1400       358
    69.1600       402
    69.1800       404
    69.2000       394
    69.2200       414
    69.2400       434
    69.2600       490
    69.2800       478
    69.3000       490
    69.3200       544
    69.3400       586
    69.3600       538
    69.3800       620
    69.4000       648
    69.4200       596
    69.4400       676
    69.4600       634
    69.4800       640
    69.5000       606
    69.5200       622
    69.5400       600
    69.5600       560
    69.5800       532
    69.6000       522
    69.6200       524
    69.6400       472
    69.6600       438
    69.6800       460
    69.7000       422
    69.7200       420
    69.7400       418
    69.7600       350
    69.7800       332
    69.8000       322
    69.8200       296
    69.8400       324
    69.8600       288
    69.8800       324
    69.9000       262
    69.9200       252
    69.9400       280
    69.9600       246
    69.9800       266
    70.0000       222
    70.0200       278
    70.0400       250
    70.0600       236
    70.0800       256
    70.1000       198
    70.1200       228
    70.1400       238
    70.1600       228
    70.1800       252
    70.2000       208
    70.2200       210
    70.2400       212
    70.2600       248
    70.2800       220
    70.3000       224
    70.3200       222
    70.3400       212
    70.3600       234
    70.3800       228
    70.4000       218
    70.4200       230
    70.4400       228
    70.4600       210
    70.4800       246
    70.5000       238
    70.5200       220
    70.5400       260
    70.5600       270
    70.5800       274
    70.6000       278
    70.6200       306
    70.6400       268
    70.6600       268
    70.6800       272
    70.7000       246
    70.7200       286
    70.7400       272
    70.7600       268
    70.7800       246
    70.8000       246
    70.8200       244
    70.8400       226
    70.8600       270
    70.8800       250
    70.9000       242
    70.9200       220
    70.9400       218
    70.9600       246
    70.9800       222
    71.0000       230
    71.0200       258
    71.0400       274
    71.0600       250
    71.0800       272
    71.1000       260
    71.1200       268
    71.1400       286
    71.1600       318
    71.1800       324
    71.2000       300
    71.2200       324
    71.2400       340
    71.2600       346
    71.2800       396
    71.3000       382
    71.3200       402
    71.3400       486
    71.3600       476
    71.3800       516
    71.4000       562
    71.4200       588
    71.4400       650
    71.4600       696
    71.4800       650
    71.5000       716
    71.5200       750
    71.5400       766
    71.5600       746
    71.5800       702
    71.6000       748
    71.6200       682
    71.6400       764
    71.6600       762
    71.6800       686
    71.7000       728
    71.7200       706
    71.7400       728
    71.7600       668
    71.7800       674
    71.8000       680
    71.8200       612
    71.8400       644
    71.8600       630
    71.8800       604
    71.9000       600
    71.9200       584
    71.9400       562
    71.9600       558
    71.9800       542
    72.0000       536
    72.0200       538
    72.0400       524
    72.0600       492
    72.0800       484
    72.1000       496
    72.1200       486
    72.1400       494
    72.1600       488
    72.1800       544
    72.2000       542
    72.2200       538
    72.2400       568
    72.2600       560
    72.2800       544
    72.3000       520
    72.3200       562
    72.3400       532
    72.3600       550
    72.3800       470
    72.4000       530
    72.4200       498
    72.4400       508
    72.4600       460
    72.4800       450
    72.5000       472
    72.5200       436
    72.5400       448
    72.5600       444
    72.5800       400
    72.6000       426
    72.6200       374
    72.6400       342
    72.6600       346
    72.6800       338
    72.7000       360
    72.7200       330
    72.7400       306
    72.7600       304
    72.7800       288
    72.8000       302
    72.8200       314
    72.8400       292
    72.8600       326
    72.8800       318
    72.9000       300
    72.9200       274
    72.9400       312
    72.9600       314
    72.9800       302
    73.0000       320
    73.0200       286
    73.0400       300
    73.0600       314
    73.0800       286
    73.1000       278
    73.1200       258
    73.1400       270
    73.1600       254
    73.1800       256
    73.2000       290
    73.2200       278
    73.2400       242
    73.2600       244
    73.2800       196
    73.3000       208
    73.3200       218
    73.3400       180
    73.3600       220
    73.3800       222
    73.4000       208
    73.4200       224
    73.4400       210
    73.4600       204
    73.4800       210
    73.5000       234
    73.5200       192
    73.5400       226
    73.5600       190
    73.5800       212
    73.6000       204
    73.6200       214
    73.6400       240
    73.6600       180
    73.6800       218
    73.7000       214
    73.7200       222
    73.7400       238
    73.7600       220
    73.7800       220
    73.8000       228
    73.8200       240
    73.8400       236
    73.8600       196
    73.8800       282
    73.9000       256
    73.9200       212
    73.9400       224
    73.9600       290
    73.9800       274
    74.0000       254
    74.0200       276
    74.0400       262
    74.0600       250
    74.0800       318
    74.1000       284
    74.1200       302
    74.1400       312
    74.1600       324
    74.1800       304
    74.2000       300
    74.2200       306
    74.2400       340
    74.2600       312
    74.2800       314
    74.3000       266
    74.3200       276
    74.3400       278
    74.3600       254
    74.3800       288
    74.4000       298
    74.4200       242
    74.4400       248
    74.4600       240
    74.4800       230
    74.5000       272
    74.5200       200
    74.5400       216
    74.5600       202
    74.5800       204
    74.6000       214
    74.6200       226
    74.6400       220
    74.6600       204
    74.6800       192
    74.7000       216
    74.7200       184
    74.7400       192
    74.7600       180
    74.7800       166
    74.8000       180
    74.8200       194
    74.8400       204
    74.8600       176
    74.8800       188
    74.9000       202
    74.9200       178
    74.9400       204
    74.9600       182
    74.9800       214
    75.0000       186
    75.0200       202
    75.0400       200
    75.0600       164
    75.0800       172
    75.1000       188
    75.1200       168
    75.1400       224
    75.1600       198
    75.1800       196
    75.2000       188
    75.2200       190
    75.2400       202
    75.2600       188
    75.2800       176
    75.3000       214
    75.3200       218
    75.3400       220
    75.3600       214
    75.3800       228
    75.4000       204
    75.4200       210
    75.4400       214
    75.4600       208
    75.4800       222
    75.5000       212
    75.5200       212
    75.5400       232
    75.5600       260
    75.5800       232
    75.6000       240
    75.6200       228
    75.6400       294
    75.6600       298
    75.6800       288
    75.7000       304
    75.7200       334
    75.7400       342
    75.7600       348
    75.7800       364
    75.8000       408
    75.8200       398
    75.8400       404
    75.8600       394
    75.8800       410
    75.9000       410
    75.9200       388
    75.9400       330
    75.9600       370
    75.9800       396
    76.0000       362
    76.0200       354
    76.0400       316
    76.0600       388
    76.0800       336
    76.1000       348
    76.1200       336
    76.1400       344
    76.1600       332
    76.1800       358
    76.2000       302
    76.2200       328
    76.2400       320
    76.2600       282
    76.2800       302
    76.3000       330
    76.3200       318
    76.3400       340
    76.3600       332
    76.3800       370
    76.4000       382
    76.4200       336
    76.4400       322
    76.4600       350
    76.4800       362
    76.5000       350
    76.5200       372
    76.5400       336
    76.5600       380
    76.5800       394
    76.6000       370
    76.6200       398
    76.6400       390
    76.6600       398
    76.6800       452
    76.7000       408
    76.7200       424
    76.7400       398
    76.7600       432
    76.7800       390
    76.8000       384
    76.8200       374
    76.8400       390
    76.8600       368
    76.8800       398
    76.9000       356
    76.9200       334
    76.9400       330
    76.9600       304
    76.9800       346
    77.0000       364
    77.0200       330
    77.0400       310
    77.0600       326
    77.0800       328
    77.1000       324
    77.1200       340
    77.1400       324
    77.1600       346
    77.1800       304
    77.2000       360
    77.2200       330
    77.2400       356
    77.2600       392
    77.2800       372
    77.3000       362
    77.3200       404
    77.3400       420
    77.3600       450
    77.3800       452
    77.4000       486
    77.4200       584
    77.4400       590
    77.4600       588
    77.4800       654
    77.5000       688
    77.5200       730
    77.5400       802
    77.5600       802
    77.5800       862
    77.6000       930
    77.6200       990
    77.6400       962
    77.6600       956
    77.6800       984
    77.7000      1020
    77.7200       934
    77.7400       924
    77.7600       938
    77.7800       794
    77.8000       848
    77.8200       878
    77.8400       858
    77.8600       820
    77.8800       748
    77.9000       784
    77.9200       716
    77.9400       714
    77.9600       646
    77.9800       590
    78.0000       590
    78.0200       540
    78.0400       526
    78.0600       478
    78.0800       512
    78.1000       494
    78.1200       480
    78.1400       486
    78.1600       428
    78.1800       394
    78.2000       392
    78.2200       396
    78.2400       386
    78.2600       374
    78.2800       380
    78.3000       352
    78.3200       356
    78.3400       364
    78.3600       368
    78.3800       370
    78.4000       386
    78.4200       430
    78.4400       422
    78.4600       390
    78.4800       438
    78.5000       444
    78.5200       452
    78.5400       426
    78.5600       490
    78.5800       434
    78.6000       448
    78.6200       454
    78.6400       438
    78.6600       448
    78.6800       430
    78.7000       486
    78.7200       488
    78.7400       454
    78.7600       440
    78.7800       446
    78.8000       410
    78.8200       444
    78.8400       402
    78.8600       380
    78.8800       410
    78.9000       368
    78.9200       356
    78.9400       326
    78.9600       318
    78.9800       338
    79.0000       360
    79.0200       334
    79.0400       308
    79.0600       294
    79.0800       266
    79.1000       266
    79.1200       266
    79.1400       266
    79.1600       242
    79.1800       256
    79.2000       256
    79.2200       252
    79.2400       300
    79.2600       246
    79.2800       238
    79.3000       224
    79.3200       242
    79.3400       246
    79.3600       236
    79.3800       216
    79.4000       240
    79.4200       244
    79.4400       232
    79.4600       240
    79.4800       232
    79.5000       256
    79.5200       242
    79.5400       248
    79.5600       254
    79.5800       268
    79.6000       264
    79.6200       236
    79.6400       264
    79.6600       244
    79.6800       278
    79.7000       278
    79.7200       270
    79.7400       264
    79.7600       280
    79.7800       300
    79.8000       268
    79.8200       242
    79.8400       276
    79.8600       284
    79.8800       274
    79.9000       292
    79.9200       276
    79.9400       276
    79.9600       290
    79.9800       226
    80.0000       248
    80.0200       262
    80.0400       264
    80.0600       274
    80.0800       250
    80.1000       252
    80.1200       238
    80.1400       206
    80.1600       230
    80.1800       222
    80.2000       248
    80.2200       246
    80.2400       234
    80.2600       252
    80.2800       230
    80.3000       220
    80.3200       254
    80.3400       252
    80.3600       252
    80.3800       220
    80.4000       206
    80.4200       216
    80.4400       270
    80.4600       210
    80.4800       228
    80.5000       226
    80.5200       222
    80.5400       200
    80.5600       220
    80.5800       204
    80.6000       236
    80.6200       220
    80.6400       228
    80.6600       198
    80.6800       218
    80.7000       208
    80.7200       216
    80.7400       258
    80.7600       204
    80.7800       200
    80.8000       198
    80.8200       216
    80.8400       204
    80.8600       204
    80.8800       196
    80.9000       196
    80.9200       192
    80.9400       202
    80.9600       194
    80.9800       260
    81.0000       206
    81.0200       216
    81.0400       214
    81.0600       224
    81.0800       242
    81.1000       214
    81.1200       272
    81.1400       216
    81.1600       256
    81.1800       264
    81.2000       240
    81.2200       248
    81.2400       272
    81.2600       282
    81.2800       292
    81.3000       270
    81.3200       290
    81.3400       268
    81.3600       226
    81.3800       266
    81.4000       268
    81.4200       264
    81.4400       290
    81.4600       252
    81.4800       276
    81.5000       278
    81.5200       294
    81.5400       290
    81.5600       280
    81.5800       254
    81.6000       264
    81.6200       240
    81.6400       264
    81.6600       272
    81.6800       240
    81.7000       248
    81.7200       300
    81.7400       258
    81.7600       276
    81.7800       252
    81.8000       236
    81.8200       270
    81.8400       258
    81.8600       262
    81.8800       256
    81.9000       254
    81.9200       262
    81.9400       276
    81.9600       264
    81.9800       246
    82.0000       266
    82.0200       254
    82.0400       270
    82.0600       266
    82.0800       278
    82.1000       274
    82.1200       272
    82.1400       290
    82.1600       298
    82.1800       268
    82.2000       306
    82.2200       372
    82.2400       348
    82.2600       342
    82.2800       354
    82.3000       314
    82.3200       306
    82.3400       358
    82.3600       336
    82.3800       330
    82.4000       300
    82.4200       320
    82.4400       338
    82.4600       326
    82.4800       344
    82.5000       354
    82.5200       346
    82.5400       344
    82.5600       328
    82.5800       360
    82.6000       358
    82.6200       414
    82.6400       386
    82.6600       414
    82.6800       410
    82.7000       424
    82.7200       414
    82.7400       430
    82.7600       442
    82.7800       434
    82.8000       434
    82.8200       450
    82.8400       408
    82.8600       410
    82.8800       394
    82.9000       460
    82.9200       426
    82.9400       408
    82.9600       420
    82.9800       396
    83.0000       448
    83.0200       400
    83.0400       408
    83.0600       430
    83.0800       426
    83.1000       376
    83.1200       412
    83.1400       422
    83.1600       372
    83.1800       380
    83.2000       418
    83.2200       424
    83.2400       436
    83.2600       420
    83.2800       408
    83.3000       382
    83.3200       432
    83.3400       368
    83.3600       358
    83.3800       404
    83.4000       428
    83.4200       352
    83.4400       380
    83.4600       428
    83.4800       392
    83.5000       340
    83.5200       360
    83.5400       342
    83.5600       368
    83.5800       338
    83.6000       344
    83.6200       338
    83.6400       302
    83.6600       322
    83.6800       310
    83.7000       322
    83.7200       300
    83.7400       314
    83.7600       296
    83.7800       304
    83.8000       306
    83.8200       298
    83.8400       294
    83.8600       304
    83.8800       282
    83.9000       290
    83.9200       304
    83.9400       306
    83.9600       256
    83.9800       292
    84.0000       282
    84.0200       296
    84.0400       306
    84.0600       292
    84.0800       306
    84.1000       300
    84.1200       246
    84.1400       256
    84.1600       286
    84.1800       274
    84.2000       270
    84.2200       256
    84.2400       250
    84.2600       260
    84.2800       320
    84.3000       290
    84.3200       240
    84.3400       278
    84.3600       246
    84.3800       234
    84.4000       240
    84.4200       230
    84.4400       228
    84.4600       224
    84.4800       206
    84.5000       206
    84.5200       216
    84.5400       220
    84.5600       202
    84.5800       226
    84.6000       210
    84.6200       230
    84.6400       238
    84.6600       186
    84.6800       254
    84.7000       214
    84.7200       220
    84.7400       234
    84.7600       190
    84.7800       216
    84.8000       200
    84.8200       234
    84.8400       192
    84.8600       236
    84.8800       208
    84.9000       216
    84.9200       192
    84.9400       220
    84.9600       192
    84.9800       232
    85.0000       230
    85.0200       196
    85.0400       214
    85.0600       202
    85.0800       190
    85.1000       194
    85.1200       198
    85.1400       196
    85.1600       242
    85.1800       198
    85.2000       224
    85.2200       226
    85.2400       226
    85.2600       198
    85.2800       216
    85.3000       196
    85.3200       224
    85.3400       252
    85.3600       252
    85.3800       230
    85.4000       252
    85.4200       258
    85.4400       234
    85.4600       248
    85.4800       266
    85.5000       264
    85.5200       284
    85.5400       270
    85.5600       288
    85.5800       286
    85.6000       290
    85.6200       278
    85.6400       244
    85.6600       298
    85.6800       242
    85.7000       274
    85.7200       240
    85.7400       256
    85.7600       262
    85.7800       252
    85.8000       286
    85.8200       236
    85.8400       180
    85.8600       244
    85.8800       240
    85.9000       226
    85.9200       212
    85.9400       246
    85.9600       202
    85.9800       216
    86.0000       194
    86.0200       208
    86.0400       208
    86.0600       206
    86.0800       182
    86.1000       204
    86.1200       214
    86.1400       182
    86.1600       190
    86.1800       190
    86.2000       190
    86.2200       202
    86.2400       200
    86.2600       184
    86.2800       180
    86.3000       184
    86.3200       202
    86.3400       196
    86.3600       212
    86.3800       194
    86.4000       214
    86.4200       210
    86.4400       196
    86.4600       192
    86.4800       208
    86.5000       204
    86.5200       204
    86.5400       218
    86.5600       212
    86.5800       246
    86.6000       216
    86.6200       248
    86.6400       230
    86.6600       218
    86.6800       224
    86.7000       266
    86.7200       276
    86.7400       250
    86.7600       280
    86.7800       270
    86.8000       300
    86.8200       306
    86.8400       324
    86.8600       312
    86.8800       334
    86.9000       370
    86.9200       384
    86.9400       338
    86.9600       378
    86.9800       382
    87.0000       416
    87.0200       384
    87.0400       368
    87.0600       388
    87.0800       438
    87.1000       416
    87.1200       386
    87.1400       400
    87.1600       414
    87.1800       462
    87.2000       444
    87.2200       484
    87.2400       492
    87.2600       492
    87.2800       590
    87.3000       500
    87.3200       586
    87.3400       526
    87.3600       564
    87.3800       564
    87.4000       582
    87.4200       556
    87.4400       546
    87.4600       502
    87.4800       524
    87.5000       482
    87.5200       552
    87.5400       534
    87.5600       508
    87.5800       504
    87.6000       502
    87.6200       484
    87.6400       492
    87.6600       478
    87.6800       544
    87.7000       482
    87.7200       464
    87.7400       476
    87.7600       424
    87.7800       506
    87.8000       474
    87.8200       444
    87.8400       470
    87.8600       446
    87.8800       448
    87.9000       426
    87.9200       424
    87.9400       416
    87.9600       452
    87.9800       414
    88.0000       432
    88.0200       368
    88.0400       386
    88.0600       370
    88.0800       376
    88.1000       376
    88.1200       376
    88.1400       374
    88.1600       338
    88.1800       370
    88.2000       310
    88.2200       324
    88.2400       282
    88.2600       302
    88.2800       344
    88.3000       310
    88.3200       292
    88.3400       312
    88.3600       262
    88.3800       276
    88.4000       284
    88.4200       300
    88.4400       294
    88.4600       286
    88.4800       262
    88.5000       264
    88.5200       280
    88.5400       296
    88.5600       294
    88.5800       286
    88.6000       298
    88.6200       318
    88.6400       288
    88.6600       292
    88.6800       280
    88.7000       274
    88.7200       286
    88.7400       262
    88.7600       302
    88.7800       260
    88.8000       264
    88.8200       262
    88.8400       248
    88.8600       264
    88.8800       274
    88.9000       288
    88.9200       238
    88.9400       282
    88.9600       260
    88.9800       260
    89.0000       240
    89.0200       242
    89.0400       264
    89.0600       238
    89.0800       230
    89.1000       216
    89.1200       244
    89.1400       250
    89.1600       228
    89.1800       246
    89.2000       242
    89.2200       266
    89.2400       236
    89.2600       264
    89.2800       234
    89.3000       246
    89.3200       216
    89.3400       226
    89.3600       250
    89.3800       232
    89.4000       260
    89.4200       248
    89.4400       284
    89.4600       266
    89.4800       268
    89.5000       288
    89.5200       278
    89.5400       270
    89.5600       282
    89.5800       308
    89.6000       286
    89.6200       286
    89.6400       248
    89.6600       270
    89.6800       296
    89.7000       278
    89.7200       276
    89.7400       282
    89.7600       274
    89.7800       292
    89.8000       274
    89.8200       310
    89.8400       282
    89.8600       318
    89.8800       288
    89.9000       326
    89.9200       328
    89.9400       300
    89.9600       306
    89.9800       290
    90.0000       306
