    10.0000       366
    10.0200       350
    10.0400       340
    10.0600       328
    10.0800       368
    10.1000       342
    10.1200       370
    10.1400       366
    10.1600       344
    10.1800       334
    10.2000       364
    10.2200       372
    10.2400       370
    10.2600       338
    10.2800       378
    10.3000       346
    10.3200       354
    10.3400       356
    10.3600       322
    10.3800       322
    10.4000       334
    10.4200       328
    10.4400       308
    10.4600       310
    10.4800       320
    10.5000       342
    10.5200       310
    10.5400       324
    10.5600       296
    10.5800       340
    10.6000       326
    10.6200       328
    10.6400       316
    10.6600       330
    10.6800       322
    10.7000       312
    10.7200       302
    10.7400       370
    10.7600       310
    10.7800       346
    10.8000       306
    10.8200       300
    10.8400       318
    10.8600       322
    10.8800       338
    10.9000       308
    10.9200       346
    10.9400       320
    10.9600       286
    10.9800       326
    11.0000       332
    11.0200       366
    11.0400       314
    11.0600       310
    11.0800       312
    11.1000       292
    11.1200       304
    11.1400       324
    11.1600       320
    11.1800       318
    11.2000       318
    11.2200       312
    11.2400       310
    11.2600       276
    11.2800       322
    11.3000       312
    11.3200       320
    11.3400       324
    11.3600       312
    11.3800       318
    11.4000       334
    11.4200       328
    11.4400       288
    11.4600       318
    11.4800       298
    11.5000       318
    11.5200       324
    11.5400       304
    11.5600       292
    11.5800       334
    11.6000       312
    11.6200       282
    11.6400       312
    11.6600       306
    11.6800       292
    11.7000       342
    11.7200       300
    11.7400       278
    11.7600       280
    11.7800       288
    11.8000       276
    11.8200       314
    11.8400       302
    11.8600       296
    11.8800       288
    11.9000       302
    11.9200       308
    11.9400       282
    11.9600       298
    11.9800       300
    12.0000       276
    12.0200       344
    12.0400       290
    12.0600       280
    12.0800       276
    12.1000       298
    12.1200       292
    12.1400       302
    12.1600       310
    12.1800       262
    12.2000       258
    12.2200       292
    12.2400       288
    12.2600       300
    12.2800       300
    12.3000       336
    12.3200       300
    12.3400       288
    12.3600       276
    12.3800       300
    12.4000       236
    12.4200       290
    12.4400       272
    12.4600       280
    12.4800       294
    12.5000       272
    12.5200       294
    12.5400       236
    12.5600       308
    12.5800       288
    12.6000       280
    12.6200       272
    12.6400       272
    12.6600       270
    12.6800       306
    12.7000       308
    12.7200       262
    12.7400       248
    12.7600       280
    12.7800       284
    12.8000       238
    12.8200       282
    12.8400       258
    12.8600       268
    12.8800       264
    12.9000       272
    12.9200       278
    12.9400       230
    12.9600       284
    12.9800       268
    13.0000       228
    13.0200       252
    13.0400       266
    13.0600       266
    13.0800       288
    13.1000       290
    13.1200       264
    13.1400       286
    13.1600       280
    13.1800       272
    13.2000       268
    13.2200       262
    13.2400       260
    13.2600       248
    13.2800       266
    13.3000       274
    13.3200       256
    13.3400       248
    13.3600       240
    13.3800       246
    13.4000       238
    13.4200       286
    13.4400       238
    13.4600       274
    13.4800       278
    13.5000       268
    13.5200       272
    13.5400       248
    13.5600       248
    13.5800       240
    13.6000       272
    13.6200       278
    13.6400       302
    13.6600       254
    13.6800       232
    13.7000       276
    13.7200       240
    13.7400       284
    13.7600       262
    13.7800       256
    13.8000       276
    13.8200       244
    13.8400       246
    13.8600       240
    13.8800       246
    13.9000       240
    13.9200       244
    13.9400       258
    13.9600       242
    13.9800       210
    14.0000       246
    14.0200       234
    14.0400       228
    14.0600       222
    14.0800       252
    14.1000       234
    14.1200       252
    14.1400       242
    14.1600       248
    14.1800       234
    14.2000       250
    14.2200       246
    14.2400       242
    14.2600       252
    14.2800       244
    14.3000       240
    14.3200       232
    14.3400       232
    14.3600       236
    14.3800       226
    14.4000       262
    14.4200       236
    14.4400       210
    14.4600       248
    14.4800       228
    14.5000       262
    14.5200       228
    14.5400       242
    14.5600       216
    14.5800       242
    14.6000       252
    14.6200       238
    14.6400       232
    14.6600       242
    14.6800       262
    14.7000       226
    14.7200       212
    14.7400       258
    14.7600       240
    14.7800       222
    14.8000       240
    14.8200       238
    14.8400       236
    14.8600       232
    14.8800       228
    14.9000       218
    14.9200       232
    14.9400       212
    14.9600       212
    14.9800       240
    15.0000       232
    15.0200       250
    15.0400       230
    15.0600       236
    15.0800       238
    15.1000       254
    15.1200       238
    15.1400       214
    15.1600       274
    15.1800       228
    15.2000       240
    15.2200       244
    15.2400       208
    15.2600       228
    15.2800       208
    15.3000       218
    15.3200       218
    15.3400       210
    15.3600       250
    15.3800       216
    15.4000       230
    15.4200       248
    15.4400       196
    15.4600       198
    15.4800       218
    15.5000       210
    15.5200       214
    15.5400       202
    15.5600       194
    15.5800       236
    15.6000       252
    15.6200       238
    15.6400       224
    15.6600       218
    15.6800       228
    15.7000       216
    15.7200       224
    15.7400       222
    15.7600       206
    15.7800       212
    15.8000       236
    15.8200       206
    15.8400       208
    15.8600       202
    15.8800       204
    15.9000       208
    15.9200       220
    15.9400       216
    15.9600       196
    15.9800       228
    16.0000       212
    16.0200       236
    16.0400       186
    16.0600       234
    16.0800       222
    16.1000       196
    16.1200       192
    16.1400       214
    16.1600       222
    16.1800       214
    16.2000       214
    16.2200       232
    16.2400       198
    16.2600       222
    16.2800       232
    16.3000       204
    16.3200       218
    16.3400       224
    16.3600       218
    16.3800       214
    16.4000       218
    16.4200       206
    16.4400       202
    16.4600       208
    16.4800       176
    16.5000       192
    16.5200       230
    16.5400       220
    16.5600       216
    16.5800       204
    16.6000       210
    16.6200       206
    16.6400       212
    16.6600       212
    16.6800       200
    16.7000       188
    16.7200       228
    16.7400       236
    16.7600       224
    16.7800       218
    16.8000       206
    16.8200       180
    16.8400       222
    16.8600       222
    16.8800       216
    16.9000       224
    16.9200       204
    16.9400       206
    16.9600       216
    16.9800       212
    17.0000       206
    17.0200       212
    17.0400       244
    17.0600       202
    17.0800       196
    17.1000       184
    17.1200       224
    17.1400       216
    17.1600       222
    17.1800       180
    17.2000       230
    17.2200       210
    17.2400       242
    17.2600       194
    17.2800       186
    17.3000       196
    17.3200       196
    17.3400       216
    17.3600       242
    17.3800       212
    17.4000       226
    17.4200       214
    17.4400       206
    17.4600       234
    17.4800       184
    17.5000       190
    17.5200       226
    17.5400       206
    17.5600       188
    17.5800       240
    17.6000       186
    17.6200       204
    17.6400       210
    17.6600       222
    17.6800       208
    17.7000       196
    17.7200       218
    17.7400       220
    17.7600       218
    17.7800       214
    17.8000       214
    17.8200       208
    17.8400       226
    17.8600       176
    17.8800       210
    17.9000       200
    17.9200       232
    17.9400       208
    17.9600       210
    17.9800       190
    18.0000       210
    18.0200       188
    18.0400       180
    18.0600       226
    18.0800       196
    18.1000       214
    18.1200       214
    18.1400       196
    18.1600       226
    18.1800       216
    18.2000       196
    18.2200       206
    18.2400       194
    18.2600       216
    18.2800       226
    18.3000       194
    18.3200       222
    18.3400       194
    18.3600       228
    18.3800       198
    18.4000       198
    18.4200       214
    18.4400       200
    18.4600       216
    18.4800       202
    18.5000       216
    18.5200       182
    18.5400       206
    18.5600       218
    18.5800       226
    18.6000       226
    18.6200       216
    18.6400       210
    18.6600       222
    18.6800       232
    18.7000       236
    18.7200       216
    18.7400       224
    18.7600       206
    18.7800       246
    18.8000       228
    18.8200       236
    18.8400       226
    18.8600       256
    18.8800       234
    18.9000       244
    18.9200       298
    18.9400       312
    18.9600       296
    18.9800       298
    19.0000       300
    19.0200       346
    19.0400       380
    19.0600       440
    19.0800       372
    19.1000       478
    19.1200       476
    19.1400       512
    19.1600       542
    19.1800       624
    19.2000       686
    19.2200       784
    19.2400       822
    19.2600       964
    19.2800      1022
    19.3000      1146
    19.3200      1358
    19.3400      1598
    19.3600      1894
    19.3800      2112
    19.4000      2360
    19.4200      2750
    19.4400      3152
    19.4600      3602
    19.4800      4074
    19.5000      4416
    19.5200      4600
    19.5400      4532
    19.5600      4048
    19.5800      3542
    19.6000      2860
    19.6200      2360
    19.6400      1952
    19.6600      1664
    19.6800      1514
    19.7000      1406
    19.7200      1388
    19.7400      1384
    19.7600      1424
    19.7800      1572
    19.8000      1618
    19.8200      1764
    19.8400      1928
    19.8600      2200
    19.8800      2404
    19.9000      2640
    19.9200      2960
    19.9400      3206
    19.9600      3354
    19.9800      3444
    20.0000      3276
    20.0200      2964
    20.0400      2448
    20.0600      2124
    20.0800      1664
    20.1000      1334
    20.1200      1044
    20.1400       830
    20.1600       740
    20.1800       618
    20.2000       530
    20.2200       532
    20.2400       496
    20.2600       416
    20.2800       434
    20.3000       350
    20.3200       374
    20.3400       316
    20.3600       286
    20.3800       286
    20.4000       282
    20.4200       264
    20.4400       274
    20.4600       240
    20.4800       264
    20.5000       276
    20.5200       224
    20.5400       274
    20.5600       226
    20.5800       214
    20.6000       240
    20.6200       244
    20.6400       212
    20.6600       208
    20.6800       204
    20.7000       222
    20.7200       216
    20.7400       232
    20.7600       204
    20.7800       196
    20.8000       192
    20.8200       218
    20.8400       212
    20.8600       184
    20.8800       194
    20.9000       184
    20.9200       200
    20.9400       198
    20.9600       214
    20.9800       202
    21.0000       182
    21.0200       180
    21.0400       208
    21.0600       198
    21.0800       212
    21.1000       192
    21.1200       210
    21.1400       212
    21.1600       208
    21.1800       196
    21.2000       176
    21.2200       210
    21.2400       188
    21.2600       200
    21.2800       194
    21.3000       226
    21.3200       170
    21.3400       170
    21.3600       176
    21.3800       202
    21.4000       198
    21.4200       210
    21.4400       196
    21.4600       162
    21.4800       202
    21.5000       206
    21.5200       196
    21.5400       188
    21.5600       196
    21.5800       212
    21.6000       194
    21.6200       178
    21.6400       210
    21.6600       216
    21.6800       198
    21.7000       186
    21.7200       148
    21.7400       176
    21.7600       168
    21.7800       170
    21.8000       190
    21.8200       212
    21.8400       188
    21.8600       220
    21.8800       214
    21.9000       188
    21.9200       228
    21.9400       200
    21.9600       242
    21.9800       202
    22.0000       212
    22.0200       202
    22.0400       244
    22.0600       236
    22.0800       214
    22.1000       222
    22.1200       240
    22.1400       232
    22.1600       246
    22.1800       256
    22.2000       248
    22.2200       252
    22.2400       284
    22.2600       300
    22.2800       300
    22.3000       290
    22.3200       310
    22.3400       334
    22.3600       382
    22.3800       402
    22.4000       434
    22.4200       500
    22.4400       538
    22.4600       548
    22.4800       648
    22.5000       716
    22.5200       808
    22.5400       922
    22.5600      1058
    22.5800      1176
    22.6000      1344
    22.6200      1516
    22.6400      1784
    22.6600      2062
    22.6800      2380
    22.7000      2766
    22.7200      3094
    22.7400      3848
    22.7600      4320
    22.7800      4926
    22.8000      5502
    22.8200      5944
    22.8400      6158
    22.8600      6050
    22.8800      5488
    22.9000      4810
    22.9200      4102
    22.9400      3214
    22.9600      2650
    22.9800      2156
    23.0000      1760
    23.0200      1490
    23.0400      1376
    23.0600      1298
    23.0800      1278
    23.1000      1306
    23.1200      1318
    23.1400      1336
    23.1600      1346
    23.1800      1320
    23.2000      1202
    23.2200      1100
    23.2400       854
    23.2600       728
    23.2800       648
    23.3000       502
    23.3200       418
    23.3400       404
    23.3600       344
    23.3800       356
    23.4000       298
    23.4200       272
    23.4400       294
    23.4600       268
    23.4800       224
    23.5000       260
    23.5200       234
    23.5400       202
    23.5600       230
    23.5800       224
    23.6000       238
    23.6200       220
    23.6400       214
    23.6600       226
    23.6800       230
    23.7000       214
    23.7200       202
    23.7400       234
    23.7600       204
    23.7800       194
    23.8000       192
    23.8200       222
    23.8400       184
    23.8600       192
    23.8800       218
    23.9000       192
    23.9200       158
    23.9400       192
    23.9600       198
    23.9800       182
    24.0000       196
    24.0200       176
    24.0400       166
    24.0600       192
    24.0800       190
    24.1000       186
    24.1200       186
    24.1400       172
    24.1600       198
    24.1800       184
    24.2000       182
    24.2200       174
    24.2400       170
    24.2600       194
    24.2800       170
    24.3000       182
    24.3200       170
    24.3400       176
    24.3600       194
    24.3800       196
    24.4000       178
    24.4200       152
    24.4400       172
    24.4600       190
    24.4800       180
    24.5000       200
    24.5200       184
    24.5400       166
    24.5600       202
    24.5800       182
    24.6000       188
    24.6200       184
    24.6400       200
    24.6600       198
    24.6800       198
    24.7000       182
    24.7200       218
    24.7400       212
    24.7600       192
    24.7800       200
    24.8000       174
    24.8200       196
    24.8400       190
    24.8600       202
    24.8800       206
    24.9000       190
    24.9200       208
    24.9400       192
    24.9600       206
    24.9800       218
    25.0000       222
    25.0200       224
    25.0400       220
    25.0600       228
    25.0800       200
    25.1000       262
    25.1200       252
    25.1400       238
    25.1600       252
    25.1800       244
    25.2000       270
    25.2200       284
    25.2400       318
    25.2600       320
    25.2800       362
    25.3000       376
    25.3200       440
    25.3400       450
    25.3600       534
    25.3800       492
    25.4000       574
    25.4200       624
    25.4400       722
    25.4600       880
    25.4800       976
    25.5000      1078
    25.5200      1220
    25.5400      1262
    25.5600      1356
    25.5800      1402
    25.6000      1314
    25.6200      1276
    25.6400      1144
    25.6600      1014
    25.6800       892
    25.7000       748
    25.7200       606
    25.7400       594
    25.7600       472
    25.7800       434
    25.8000       384
    25.8200       372
    25.8400       396
    25.8600       382
    25.8800       346
    25.9000       396
    25.9200       360
    25.9400       378
    25.9600       358
    25.9800       328
    26.0000       296
    26.0200       280
    26.0400       278
    26.0600       250
    26.0800       222
    26.1000       250
    26.1200       220
    26.1400       204
    26.1600       240
    26.1800       204
    26.2000       216
    26.2200       200
    26.2400       224
    26.2600       206
    26.2800       218
    26.3000       206
    26.3200       200
    26.3400       192
    26.3600       188
    26.3800       184
    26.4000       198
    26.4200       180
    26.4400       206
    26.4600       186
    26.4800       206
    26.5000       190
    26.5200       190
    26.5400       194
    26.5600       188
    26.5800       180
    26.6000       200
    26.6200       178
    26.6400       180
    26.6600       174
    26.6800       188
    26.7000       196
    26.7200       174
    26.7400       204
    26.7600       204
    26.7800       190
    26.8000       194
    26.8200       180
    26.8400       194
    26.8600       204
    26.8800       190
    26.9000       176
    26.9200       200
    26.9400       176
    26.9600       176
    26.9800       178
    27.0000       178
    27.0200       202
    27.0400       178
    27.0600       192
    27.0800       210
    27.1000       184
    27.1200       202
    27.1400       182
    27.1600       164
    27.1800       186
    27.2000       208
    27.2200       156
    27.2400       178
    27.2600       196
    27.2800       176
    27.3000       220
    27.3200       186
    27.3400       170
    27.3600       182
    27.3800       202
    27.4000       208
    27.4200       196
    27.4400       186
    27.4600       202
    27.4800       202
    27.5000       224
    27.5200       210
    27.5400       214
    27.5600       176
    27.5800       200
    27.6000       216
    27.6200       218
    27.6400       258
    27.6600       224
    27.6800       222
    27.7000       284
    27.7200       238
    27.7400       268
    27.7600       266
    27.7800       286
    27.8000       312
    27.8200       350
    27.8400       350
    27.8600       372
    27.8800       410
    27.9000       440
    27.9200       484
    27.9400       516
    27.9600       570
    27.9800       614
    28.0000       692
    28.0200       768
    28.0400       754
    28.0600       896
    28.0800      1040
    28.1000      1238
    28.1200      1290
    28.1400      1462
    28.1600      1732
    28.1800      1860
    28.2000      2108
    28.2200      2168
    28.2400      2380
    28.2600      2436
    28.2800      2378
    28.3000      2302
    28.3200      2098
    28.3400      1860
    28.3600      1526
    28.3800      1430
    28.4000      1138
    28.4200      1018
    28.4400       794
    28.4600       706
    28.4800       608
    28.5000       562
    28.5200       524
    28.5400       416
    28.5600       438
    28.5800       416
    28.6000       372
    28.6200       330
    28.6400       296
    28.6600       314
    28.6800       338
    28.7000       280
    28.7200       264
    28.7400       234
    28.7600       248
    28.7800       230
    28.8000       234
    28.8200       222
    28.8400       196
    28.8600       198
    28.8800       212
    28.9000       220
    28.9200       222
    28.9400       208
    28.9600       214
    28.9800       198
    29.0000       220
    29.0200       196
    29.0400       208
    29.0600       222
    29.0800       190
    29.1000       200
    29.1200       200
    29.1400       210
    29.1600       192
    29.1800       204
    29.2000       210
    29.2200       200
    29.2400       194
    29.2600       174
    29.2800       176
    29.3000       184
    29.3200       204
    29.3400       178
    29.3600       212
    29.3800       198
    29.4000       204
    29.4200       198
    29.4400       228
    29.4600       198
    29.4800       196
    29.5000       224
    29.5200       196
    29.5400       208
    29.5600       168
    29.5800       214
    29.6000       162
    29.6200       210
    29.6400       200
    29.6600       196
    29.6800       178
    29.7000       186
    29.7200       172
    29.7400       190
    29.7600       208
    29.7800       204
    29.8000       192
    29.8200       190
    29.8400       206
    29.8600       202
    29.8800       212
    29.9000       192
    29.9200       186
    29.9400       228
    29.9600       202
    29.9800       182
    30.0000       218
    30.0200       200
    30.0400       180
    30.0600       204
    30.0800       184
    30.1000       212
    30.1200       224
    30.1400       200
    30.1600       176
    30.1800       206
    30.2000       204
    30.2200       196
    30.2400       216
    30.2600       230
    30.2800       224
    30.3000       208
    30.3200       202
    30.3400       224
    30.3600       204
    30.3800       200
    30.4000       220
    30.4200       198
    30.4400       226
    30.4600       206
    30.4800       216
    30.5000       198
    30.5200       208
    30.5400       212
    30.5600       232
    30.5800       234
    30.6000       212
    30.6200       224
    30.6400       228
    30.6600       240
    30.6800       206
    30.7000       224
    30.7200       218
    30.7400       248
    30.7600       220
    30.7800       216
    30.8000       250
    30.8200       226
    30.8400       226
    30.8600       224
    30.8800       240
    30.9000       266
    30.9200       234
    30.9400       276
    30.9600       262
    30.9800       248
    31.0000       270
    31.0200       254
    31.0400       236
    31.0600       232
    31.0800       236
    31.1000       266
    31.1200       268
    31.1400       254
    31.1600       276
    31.1800       254
    31.2000       298
    31.2200       290
    31.2400       292
    31.2600       288
    31.2800       282
    31.3000       294
    31.3200       282
    31.3400       342
    31.3600       320
    31.3800       352
    31.4000       336
    31.4200       366
    31.4400       374
    31.4600       368
    31.4800       346
    31.5000       410
    31.5200       486
    31.5400       480
    31.5600       520
    31.5800       522
    31.6000       532
    31.6200       568
    31.6400       656
    31.6600       688
    31.6800       774
    31.7000       854
    31.7200       926
    31.7400      1088
    31.7600      1144
    31.7800      1386
    31.8000      1430
    31.8200      1682
    31.8400      1978
    31.8600      2198
    31.8800      2578
    31.9000      2844
    31.9200      3118
    31.9400      3350
    31.9600      3374
    31.9800      3316
    32.0000      3116
    32.0200      2906
    32.0400      2676
    32.0600      2468
    32.0800      2200
    32.1000      2090
    32.1200      1916
    32.1400      1940
    32.1600      1784
    32.1800      1980
    32.2000      2064
    32.2200      2118
    32.2400      2218
    32.2600      2500
    32.2800      2950
    32.3000      3120
    32.3200      3454
    32.3400      4108
    32.3600      4598
    32.3800      5334
    32.4000      6086
    32.4200      7136
    32.4400      8026
    32.4600      9124
    32.4800      9964
    32.5000     10776
    32.5200     11198
    32.5400     11124
    32.5600     10700
    32.5800     10132
    32.6000      9508
    32.6200      8244
    32.6400      7228
    32.6600      6344
    32.6800      5218
    32.7000      4630
    32.7200      3836
    32.7400      3466
    32.7600      2952
    32.7800      2630
    32.8000      2514
    32.8200      2280
    32.8400      2204
    32.8600      2194
    32.8800      2246
    32.9000      2360
    32.9200      2486
    32.9400      2636
    32.9600      2776
    32.9800      2896
    33.0000      3124
    33.0200      3266
    33.0400      3326
    33.0600      3166
    33.0800      3078
    33.1000      2834
    33.1200      2702
    33.1400      2344
    33.1600      2076
    33.1800      1800
    33.2000      1548
    33.2200      1370
    33.2400      1240
    33.2600      1072
    33.2800       962
    33.3000       938
    33.3200       824
    33.3400       850
    33.3600       800
    33.3800       750
    33.4000       672
    33.4200       678
    33.4400       628
    33.4600       558
    33.4800       520
    33.5000       462
    33.5200       466
    33.5400       438
    33.5600       428
    33.5800       348
    33.6000       336
    33.6200       348
    33.6400       308
    33.6600       294
    33.6800       282
    33.7000       300
    33.7200       304
    33.7400       290
    33.7600       290
    33.7800       264
    33.8000       270
    33.8200       266
    33.8400       270
    33.8600       278
    33.8800       276
    33.9000       260
    33.9200       262
    33.9400       294
    33.9600       258
    33.9800       240
    34.0000       264
    34.0200       280
    34.0400       288
    34.0600       294
    34.0800       270
    34.1000       264
    34.1200       250
    34.1400       264
    34.1600       268
    34.1800       258
    34.2000       250
    34.2200       256
    34.2400       226
    34.2600       242
    34.2800       262
    34.3000       198
    34.3200       260
    34.3400       246
    34.3600       242
    34.3800       218
    34.4000       236
    34.4200       264
    34.4400       236
    34.4600       242
    34.4800       232
    34.5000       256
    34.5200       236
    34.5400       250
    34.5600       274
    34.5800       258
    34.6000       230
    34.6200       264
    34.6400       244
    34.6600       268
    34.6800       236
    34.7000       240
    34.7200       258
    34.7400       222
    34.7600       256
    34.7800       254
    34.8000       238
    34.8200       236
    34.8400       224
    34.8600       234
    34.8800       258
    34.9000       234
    34.9200       262
    34.9400       254
    34.9600       236
    34.9800       234
    35.0000       240
    35.0200       240
    35.0400       224
    35.0600       228
    35.0800       236
    35.1000       258
    35.1200       252
    35.1400       226
    35.1600       230
    35.1800       238
    35.2000       226
    35.2200       224
    35.2400       248
    35.2600       256
    35.2800       266
    35.3000       274
    35.3200       262
    35.3400       274
    35.3600       248
    35.3800       250
    35.4000       254
    35.4200       272
    35.4400       242
    35.4600       234
    35.4800       274
    35.5000       264
    35.5200       260
    35.5400       262
    35.5600       260
    35.5800       262
    35.6000       276
    35.6200       294
    35.6400       264
    35.6600       300
    35.6800       280
    35.7000       310
    35.7200       332
    35.7400       328
    35.7600       348
    35.7800       342
    35.8000       354
    35.8200       346
    35.8400       364
    35.8600       404
    35.8800       372
    35.9000       436
    35.9200       488
    35.9400       458
    35.9600       544
    35.9800       572
    36.0000       664
    36.0200       644
    36.0400       752
    36.0600       866
    36.0800       878
    36.1000       926
    36.1200       884
    36.1400       910
    36.1600       826
    36.1800       782
    36.2000       742
    36.2200       724
    36.2400       676
    36.2600       594
    36.2800       542
    36.3000       528
    36.3200       484
    36.3400       490
    36.3600       506
    36.3800       452
    36.4000       530
    36.4200       510
    36.4400       532
    36.4600       484
    36.4800       560
    36.5000       510
    36.5200       624
    36.5400       668
    36.5600       674
    36.5800       730
    36.6000       804
    36.6200       862
    36.6400       978
    36.6600      1050
    36.6800      1138
    36.7000      1300
    36.7200      1516
    36.7400      1700
    36.7600      1810
    36.7800      2038
    36.8000      2288
    36.8200      2460
    36.8400      2714
    36.8600      2832
    36.8800      2812
    36.9000      2664
    36.9200      2510
    36.9400      2244
    36.9600      2114
    36.9800      1876
    37.0000      1714
    37.0200      1492
    37.0400      1252
    37.0600      1078
    37.0800      1084
    37.1000       942
    37.1200       842
    37.1400       864
    37.1600       866
    37.1800       822
    37.2000       774
    37.2200       794
    37.2400       798
    37.2600       784
    37.2800       768
    37.3000       760
    37.3200       708
    37.3400       664
    37.3600       678
    37.3800       652
    37.4000       644
    37.4200       598
    37.4400       610
    37.4600       560
    37.4800       546
    37.5000       576
    37.5200       550
    37.5400       558
    37.5600       598
    37.5800       574
    37.6000       614
    37.6200       642
    37.6400       652
    37.6600       668
    37.6800       774
    37.7000       784
    37.7200       828
    37.7400       916
    37.7600       944
    37.7800      1088
    37.8000      1162
    37.8200      1316
    37.8400      1468
    37.8600      1712
    37.8800      1882
    37.9000      2170
    37.9200      2332
    37.9400      2540
    37.9600      2722
    37.9800      2764
    38.0000      2896
    38.0200      2788
    38.0400      2678
    38.0600      2472
    38.0800      2356
    38.1000      2242
    38.1200      2116
    38.1400      2086
    38.1600      1962
    38.1800      1958
    38.2000      1986
    38.2200      2030
    38.2400      2132
    38.2600      2256
    38.2800      2412
    38.3000      2772
    38.3200      3070
    38.3400      3236
    38.3600      3680
    38.3800      4230
    38.4000      4562
    38.4200      4970
    38.4400      5090
    38.4600      5330
    38.4800      5450
    38.5000      5556
    38.5200      5498
    38.5400      5286
    38.5600      5240
    38.5800      5160
    38.6000      5060
    38.6200      5016
    38.6400      5016
    38.6600      5038
    38.6800      5084
    38.7000      5096
    38.7200      4928
    38.7400      4862
    38.7600      4430
    38.7800      4178
    38.8000      3860
    38.8200      3602
    38.8400      3264
    38.8600      3054
    38.8800      2690
    38.9000      2398
    38.9200      2276
    38.9400      2160
    38.9600      2092
    38.9800      1994
    39.0000      1920
    39.0200      1802
    39.0400      1798
    39.0600      1662
    39.0800      1590
    39.1000      1518
    39.1200      1406
    39.1400      1418
    39.1600      1288
    39.1800      1230
    39.2000      1218
    39.2200      1210
    39.2400      1102
    39.2600      1050
    39.2800      1040
    39.3000      1000
    39.3200       992
    39.3400       950
    39.3600       958
    39.3800      1004
    39.4000      1082
    39.4200      1110
    39.4400      1242
    39.4600      1294
    39.4800      1432
    39.5000      1548
    39.5200      1744
    39.5400      1940
    39.5600      2186
    39.5800      2454
    39.6000      2644
    39.6200      2944
    39.6400      3158
    39.6600      3024
    39.6800      2956
    39.7000      2872
    39.7200      2634
    39.7400      2444
    39.7600      2228
    39.7800      1994
    39.8000      1768
    39.8200      1506
    39.8400      1316
    39.8600      1146
    39.8800       978
    39.9000       970
    39.9200       852
    39.9400       824
    39.9600       712
    39.9800       706
    40.0000       718
    40.0200       678
    40.0400       656
    40.0600       670
    40.0800       622
    40.1000       672
    40.1200       688
    40.1400       662
    40.1600       654
    40.1800       660
    40.2000       754
    40.2200       784
    40.2400       834
    40.2600       852
    40.2800       908
    40.3000       988
    40.3200      1158
    40.3400      1312
    40.3600      1298
    40.3800      1412
    40.4000      1514
    40.4200      1540
    40.4400      1580
    40.4600      1688
    40.4800      1680
    40.5000      1784
    40.5200      1902
    40.5400      1810
    40.5600      1802
    40.5800      1794
    40.6000      1846
    40.6200      1680
    40.6400      1646
    40.6600      1494
    40.6800      1470
    40.7000      1354
    40.7200      1224
    40.7400      1078
    40.7600      1042
    40.7800       932
    40.8000       804
    40.8200       830
    40.8400       736
    40.8600       740
    40.8800       686
    40.9000       708
    40.9200       722
    40.9400       710
    40.9600       682
    40.9800       826
    41.0000       758
    41.0200       784
    41.0400       732
    41.0600       684
    41.0800       774
    41.1000       662
    41.1200       624
    41.1400       648
    41.1600       574
    41.1800       546
    41.2000       510
    41.2200       502
    41.2400       436
    41.2600       436
    41.2800       456
    41.3000       466
    41.3200       446
    41.3400       446
    41.3600       438
    41.3800       446
    41.4000       490
    41.4200       478
    41.4400       476
    41.4600       544
    41.4800       550
    41.5000       608
    41.5200       598
    41.5400       634
    41.5600       680
    41.5800       710
    41.6000       764
    41.6200       818
    41.6400       932
    41.6600      1006
    41.6800      1118
    41.7000      1296
    41.7200      1428
    41.7400      1518
    41.7600      1656
    41.7800      1766
    41.8000      1960
    41.8200      2164
    41.8400      2298
    41.8600      2328
    41.8800      2426
    41.9000      2336
    41.9200      2148
    41.9400      2110
    41.9600      2000
    41.9800      1798
    42.0000      1658
    42.0200      1488
    42.0400      1304
    42.0600      1194
    42.0800      1006
    42.1000       940
    42.1200       834
    42.1400       754
    42.1600       780
    42.1800       664
    42.2000       656
    42.2200       628
    42.2400       624
    42.2600       646
    42.2800       588
    42.3000       554
    42.3200       546
    42.3400       584
    42.3600       570
    42.3800       572
    42.4000       536
    42.4200       604
    42.4400       542
    42.4600       560
    42.4800       586
    42.5000       584
    42.5200       542
    42.5400       578
    42.5600       558
    42.5800       536
    42.6000       538
    42.6200       490
    42.6400       490
    42.6600       458
    42.6800       486
    42.7000       512
    42.7200       482
    42.7400       518
    42.7600       544
    42.7800       596
    42.8000       614
    42.8200       634
    42.8400       626
    42.8600       684
    42.8800       734
    42.9000       780
    42.9200       844
    42.9400       944
    42.9600       994
    42.9800      1096
    43.0000      1204
    43.0200      1324
    43.0400      1476
    43.0600      1734
    43.0800      1888
    43.1000      2024
    43.1200      2206
    43.1400      2250
    43.1600      2290
    43.1800      2264
    43.2000      2240
    43.2200      2034
    43.2400      2012
    43.2600      1944
    43.2800      1682
    43.3000      1490
    43.3200      1324
    43.3400      1198
    43.3600      1034
    43.3800       990
    43.4000       880
    43.4200       828
    43.4400       778
    43.4600       714
    43.4800       690
    43.5000       648
    43.5200       676
    43.5400       684
    43.5600       648
    43.5800       674
    43.6000       616
    43.6200       694
    43.6400       714
    43.6600       706
    43.6800       774
    43.7000       794
    43.7200       860
    43.7400       870
    43.7600       894
    43.7800       978
    43.8000       966
    43.8200      1016
    43.8400       958
    43.8600      1012
    43.8800      1004
    43.9000       992
    43.9200       886
    43.9400       816
    43.9600       800
    43.9800       746
    44.0000       712
    44.0200       672
    44.0400       588
    44.0600       584
    44.0800       518
    44.1000       556
    44.1200       466
    44.1400       508
    44.1600       462
    44.1800       452
    44.2000       436
    44.2200       412
    44.2400       400
    44.2600       436
    44.2800       460
    44.3000       406
    44.3200       466
    44.3400       436
    44.3600       416
    44.3800       424
    44.4000       436
    44.4200       426
    44.4400       402
    44.4600       392
    44.4800       406
    44.5000       412
    44.5200       362
    44.5400       356
    44.5600       336
    44.5800       342
    44.6000       350
    44.6200       326
    44.6400       330
    44.6600       286
    44.6800       314
    44.7000       348
    44.7200       306
    44.7400       344
    44.7600       342
    44.7800       334
    44.8000       320
    44.8200       322
    44.8400       322
    44.8600       316
    44.8800       332
    44.9000       318
    44.9200       378
    44.9400       308
    44.9600       310
    44.9800       292
    45.0000       298
    45.0200       342
    45.0400       332
    45.0600       310
    45.0800       296
    45.1000       302
    45.1200       344
    45.1400       324
    45.1600       318
    45.1800       328
    45.2000       330
    45.2200       338
    45.2400       386
    45.2600       354
    45.2800       330
    45.3000       348
    45.3200       362
    45.3400       354
    45.3600       364
    45.3800       352
    45.4000       370
    45.4200       352
    45.4400       352
    45.4600       404
    45.4800       344
    45.5000       366
    45.5200       414
    45.5400       366
    45.5600       396
    45.5800       404
    45.6000       374
    45.6200       402
    45.6400       406
    45.6600       416
    45.6800       404
    45.7000       472
    45.7200       406
    45.7400       438
    45.7600       462
    45.7800       480
    45.8000       448
    45.8200       466
    45.8400       574
    45.8600       532
    45.8800       552
    45.9000       534
    45.9200       556
    45.9400       586
    45.9600       608
    45.9800       600
    46.0000       622
    46.0200       718
    46.0400       680
    46.0600       744
    46.0800       788
    46.1000       768
    46.1200       828
    46.1400       902
    46.1600      1038
    46.1800       974
    46.2000      1082
    46.2200      1182
    46.2400      1292
    46.2600      1390
    46.2800      1508
    46.3000      1618
    46.3200      1786
    46.3400      2082
    46.3600      2176
    46.3800      2370
    46.4000      2622
    46.4200      2988
    46.4400      3292
    46.4600      3746
    46.4800      4084
    46.5000      4702
    46.5200      5440
    46.5400      6268
    46.5600      6990
    46.5800      7946
    46.6000      8880
    46.6200      9692
    46.6400     10502
    46.6600     10862
    46.6800     11168
    46.7000     10686
    46.7200     10374
    46.7400      9772
    46.7600      8948
    46.7800      8646
    46.8000      8008
    46.8200      7448
    46.8400      6864
    46.8600      6140
    46.8800      5696
    46.9000      5172
    46.9200      4782
    46.9400      4618
    46.9600      4306
    46.9800      4168
    47.0000      4080
    47.0200      3772
    47.0400      3524
    47.0600      3388
    47.0800      3096
    47.1000      2964
    47.1200      2782
    47.1400      2660
    47.1600      2590
    47.1800      2362
    47.2000      2374
    47.2200      2298
    47.2400      2410
    47.2600      2498
    47.2800      2480
    47.3000      2536
    47.3200      2704
    47.3400      2790
    47.3600      2920
    47.3800      2694
    47.4000      2566
    47.4200      2442
    47.4400      2292
    47.4600      2204
    47.4800      2010
    47.5000      1854
    47.5200      1712
    47.5400      1542
    47.5600      1434
    47.5800      1274
    47.6000      1124
    47.6200      1158
    47.6400      1074
    47.6600      1074
    47.6800      1028
    47.7000      1044
    47.7200      1126
    47.7400      1186
    47.7600      1130
    47.7800      1146
    47.8000      1178
    47.8200      1208
    47.8400      1136
    47.8600      1054
    47.8800      1028
    47.9000      1008
    47.9200       978
    47.9400       970
    47.9600       964
    47.9800       922
    48.0000       860
    48.0200       876
    48.0400       858
    48.0600       880
    48.0800       954
    48.1000       984
    48.1200      1032
    48.1400      1006
    48.1600      1094
    48.1800      1048
    48.2000      1022
    48.2200      1060
    48.2400       984
    48.2600       930
    48.2800       864
    48.3000       840
    48.3200       788
    48.3400       798
    48.3600       714
    48.3800       636
    48.4000       630
    48.4200       568
    48.4400       538
    48.4600       500
    48.4800       500
    48.5000       448
    48.5200       462
    48.5400       446
    48.5600       440
    48.5800       482
    48.6000       488
    48.6200       442
    48.6400       460
    48.6600       422
    48.6800       446
    48.7000       430
    48.7200       386
    48.7400       406
    48.7600       384
    48.7800       386
    48.8000       380
    48.8200       368
    48.8400       386
    48.8600       416
    48.8800       396
    48.9000       378
    48.9200       376
    48.9400       310
    48.9600       338
    48.9800       326
    49.0000       360
    49.0200       376
    49.0400       286
    49.0600       320
    49.0800       332
    49.1000       322
    49.1200       314
    49.1400       296
    49.1600       308
    49.1800       300
    49.2000       304
    49.2200       300
    49.2400       268
    49.2600       304
    49.2800       246
    49.3000       304
    49.3200       280
    49.3400       284
    49.3600       266
    49.3800       266
    49.4000       302
    49.4200       256
    49.4400       274
    49.4600       270
    49.4800       274
    49.5000       298
    49.5200       298
    49.5400       290
    49.5600       288
    49.5800       314
    49.6000       296
    49.6200       292
    49.6400       320
    49.6600       358
    49.6800       302
    49.7000       298
    49.7200       330
    49.7400       294
    49.7600       278
    49.7800       274
    49.8000       266
    49.8200       320
    49.8400       280
    49.8600       286
    49.8800       284
    49.9000       280
    49.9200       248
    49.9400       278
    49.9600       264
    49.9800       238
    50.0000       266
    50.0200       276
    50.0400       286
    50.0600       278
    50.0800       290
    50.1000       300
    50.1200       344
    50.1400       292
    50.1600       284
    50.1800       342
    50.2000       336
    50.2200       316
    50.2400       350
    50.2600       356
    50.2800       356
    50.3000       362
    50.3200       296
    50.3400       344
    50.3600       320
    50.3800       384
    50.4000       356
    50.4200       370
    50.4400       356
    50.4600       336
    50.4800       372
    50.5000       384
    50.5200       348
    50.5400       386
    50.5600       382
    50.5800       428
    50.6000       424
    50.6200       432
    50.6400       456
    50.6600       452
    50.6800       516
    50.7000       510
    50.7200       534
    50.7400       626
    50.7600       638
    50.7800       640
    50.8000       738
    50.8200       798
    50.8400       750
    50.8600       844
    50.8800       874
    50.9000       860
    50.9200       864
    50.9400       804
    50.9600       776
    50.9800       766
    51.0000       778
    51.0200       724
    51.0400       684
    51.0600       678
    51.0800       624
    51.1000       654
    51.1200       672
    51.1400       622
    51.1600       614
    51.1800       602
    51.2000       562
    51.2200       586
    51.2400       646
    51.2600       710
    51.2800       686
    51.3000       726
    51.3200       746
    51.3400       788
    51.3600       772
    51.3800       762
    51.4000       806
    51.4200       828
    51.4400       770
    51.4600       796
    51.4800       772
    51.5000       820
    51.5200       812
    51.5400       728
    51.5600       798
    51.5800       794
    51.6000       846
    51.6200       848
    51.6400       862
    51.6600       878
    51.6800       986
    51.7000      1132
    51.7200      1084
    51.7400      1140
    51.7600      1220
    51.7800      1236
    51.8000      1298
    51.8200      1292
    51.8400      1182
    51.8600      1216
    51.8800      1190
    51.9000      1158
    51.9200      1128
    51.9400      1088
    51.9600      1150
    51.9800      1142
    52.0000      1088
    52.0200      1016
    52.0400       978
    52.0600       922
    52.0800       904
    52.1000       886
    52.1200       826
    52.1400       878
    52.1600       890
    52.1800       864
    52.2000       872
    52.2200       852
    52.2400       836
    52.2600       806
    52.2800       890
    52.3000       888
    52.3200       954
    52.3400      1000
    52.3600      1066
    52.3800      1134
    52.4000      1176
    52.4200      1308
    52.4400      1392
    52.4600      1492
    52.4800      1594
    52.5000      1650
    52.5200      1796
    52.5400      1834
    52.5600      1852
    52.5800      1792
    52.6000      1794
    52.6200      1786
    52.6400      1774
    52.6600      1706
    52.6800      1656
    52.7000      1588
    52.7200      1500
    52.7400      1476
    52.7600      1330
    52.7800      1332
    52.8000      1254
    52.8200      1272
    52.8400      1204
    52.8600      1246
    52.8800      1138
    52.9000      1178
    52.9200      1112
    52.9400      1144
    52.9600      1198
    52.9800      1134
    53.0000      1164
    53.0200      1276
    53.0400      1338
    53.0600      1434
    53.0800      1586
    53.1000      1686
    53.1200      1840
    53.1400      2046
    53.1600      2176
    53.1800      2288
    53.2000      2312
    53.2200      2262
    53.2400      2276
    53.2600      2176
    53.2800      2156
    53.3000      2048
    53.3200      1992
    53.3400      1822
    53.3600      1756
    53.3800      1626
    53.4000      1454
    53.4200      1310
    53.4400      1174
    53.4600      1080
    53.4800      1012
    53.5000       908
    53.5200       892
    53.5400       784
    53.5600       710
    53.5800       676
    53.6000       632
    53.6200       630
    53.6400       544
    53.6600       540
    53.6800       534
    53.7000       530
    53.7200       490
    53.7400       436
    53.7600       440
    53.7800       376
    53.8000       382
    53.8200       420
    53.8400       408
    53.8600       416
    53.8800       382
    53.9000       400
    53.9200       354
    53.9400       400
    53.9600       372
    53.9800       396
    54.0000       356
    54.0200       370
    54.0400       352
    54.0600       384
    54.0800       416
    54.1000       388
    54.1200       378
    54.1400       406
    54.1600       472
    54.1800       466
    54.2000       432
    54.2200       496
    54.2400       504
    54.2600       508
    54.2800       500
    54.3000       486
    54.3200       524
    54.3400       538
    54.3600       554
    54.3800       578
    54.4000       548
    54.4200       644
    54.4400       638
    54.4600       674
    54.4800       630
    54.5000       636
    54.5200       690
    54.5400       730
    54.5600       780
    54.5800       720
    54.6000       800
    54.6200       756
    54.6400       842
    54.6600       892
    54.6800       984
    54.7000       914
    54.7200       932
    54.7400       954
    54.7600       872
    54.7800       884
    54.8000       886
    54.8200       736
    54.8400       736
    54.8600       822
    54.8800       690
    54.9000       692
    54.9200       654
    54.9400       594
    54.9600       562
    54.9800       526
    55.0000       520
    55.0200       480
    55.0400       406
    55.0600       466
    55.0800       434
    55.1000       424
    55.1200       402
    55.1400       404
    55.1600       356
    55.1800       404
    55.2000       388
    55.2200       380
    55.2400       382
    55.2600       374
    55.2800       398
    55.3000       384
    55.3200       408
    55.3400       412
    55.3600       404
    55.3800       438
    55.4000       452
    55.4200       450
    55.4400       460
    55.4600       442
    55.4800       464
    55.5000       500
    55.5200       492
    55.5400       508
    55.5600       552
    55.5800       578
    55.6000       642
    55.6200       664
    55.6400       670
    55.6600       734
    55.6800       746
    55.7000       806
    55.7200       804
    55.7400       874
    55.7600       812
    55.7800       812
    55.8000       764
    55.8200       796
    55.8400       766
    55.8600       720
    55.8800       698
    55.9000       662
    55.9200       568
    55.9400       652
    55.9600       654
    55.9800       566
    56.0000       538
    56.0200       574
    56.0400       532
    56.0600       506
    56.0800       454
    56.1000       482
    56.1200       478
    56.1400       458
    56.1600       444
    56.1800       432
    56.2000       370
    56.2200       406
    56.2400       374
    56.2600       428
    56.2800       390
    56.3000       364
    56.3200       370
    56.3400       344
    56.3600       384
    56.3800       346
    56.4000       404
    56.4200       368
    56.4400       332
    56.4600       380
    56.4800       318
    56.5000       352
    56.5200       372
    56.5400       350
    56.5600       384
    56.5800       350
    56.6000       380
    56.6200       396
    56.6400       402
    56.6600       402
    56.6800       350
    56.7000       414
    56.7200       420
    56.7400       426
    56.7600       428
    56.7800       414
    56.8000       462
    56.8200       466
    56.8400       490
    56.8600       508
    56.8800       536
    56.9000       544
    56.9200       570
    56.9400       596
    56.9600       626
    56.9800       610
    57.0000       686
    57.0200       738
    57.0400       782
    57.0600       802
    57.0800       878
    57.1000       992
    57.1200      1056
    57.1400      1112
    57.1600      1224
    57.1800      1410
    57.2000      1478
    57.2200      1712
    57.2400      1734
    57.2600      1936
    57.2800      2134
    57.3000      2084
    57.3200      2116
    57.3400      2084
    57.3600      2084
    57.3800      1974
    57.4000      2100
    57.4200      2004
    57.4400      2058
    57.4600      1962
    57.4800      1928
    57.5000      1944
    57.5200      1962
    57.5400      1848
    57.5600      1862
    57.5800      1932
    57.6000      1944
    57.6200      2064
    57.6400      2076
    57.6600      2212
    57.6800      2272
    57.7000      2186
    57.7200      2278
    57.7400      2048
    57.7600      1988
    57.7800      1924
    57.8000      1920
    57.8200      1804
    57.8400      1810
    57.8600      1662
    57.8800      1592
    57.9000      1480
    57.9200      1398
    57.9400      1442
    57.9600      1258
    57.9800      1166
    58.0000      1188
    58.0200      1152
    58.0400      1154
    58.0600      1104
    58.0800      1158
    58.1000      1122
    58.1200      1162
    58.1400      1178
    58.1600      1218
    58.1800      1268
    58.2000      1350
    58.2200      1348
    58.2400      1466
    58.2600      1502
    58.2800      1664
    58.3000      1744
    58.3200      1910
    58.3400      2076
    58.3600      2270
    58.3800      2344
    58.4000      2496
    58.4200      2742
    58.4400      2904
    58.4600      2906
    58.4800      3090
    58.5000      3178
    58.5200      3298
    58.5400      3368
    58.5600      3492
    58.5800      3598
    58.6000      3800
    58.6200      4050
    58.6400      4170
    58.6600      4328
    58.6800      4298
    58.7000      4404
    58.7200      4358
    58.7400      4120
    58.7600      3970
    58.7800      3910
    58.8000      3690
    58.8200      3684
    58.8400      3500
    58.8600      3210
    58.8800      3210
    58.9000      2890
    58.9200      2608
    58.9400      2484
    58.9600      2224
    58.9800      1998
    59.0000      1896
    59.0200      1768
    59.0400      1598
    59.0600      1486
    59.0800      1382
    59.1000      1276
    59.1200      1244
    59.1400      1242
    59.1600      1236
    59.1800      1122
    59.2000      1124
    59.2200      1044
    59.2400      1082
    59.2600      1004
    59.2800      1004
    59.3000      1050
    59.3200       980
    59.3400       998
    59.3600      1024
    59.3800      1072
    59.4000       990
    59.4200      1038
    59.4400       968
    59.4600       968
    59.4800       910
    59.5000       786
    59.5200       798
    59.5400       790
    59.5600       760
    59.5800       730
    59.6000       672
    59.6200       668
    59.6400       594
    59.6600       578
    59.6800       540
    59.7000       512
    59.7200       464
    59.7400       468
    59.7600       440
    59.7800       430
    59.8000       394
    59.8200       350
    59.8400       368
    59.8600       354
    59.8800       348
    59.9000       364
    59.9200       328
    59.9400       348
    59.9600       354
    59.9800       344
    60.0000       318
    60.0200       346
    60.0400       346
    60.0600       336
    60.0800       332
    60.1000       324
    60.1200       306
    60.1400       334
    60.1600       292
    60.1800       306
    60.2000       316
    60.2200       300
    60.2400       314
    60.2600       314
    60.2800       308
    60.3000       314
    60.3200       342
    60.3400       358
    60.3600       316
    60.3800       354
    60.4000       324
    60.4200       324
    60.4400       306
    60.4600       306
    60.4800       312
    60.5000       344
    60.5200       328
    60.5400       338
    60.5600       348
    60.5800       324
    60.6000       300
    60.6200       330
    60.6400       326
    60.6600       322
    60.6800       314
    60.7000       328
    60.7200       360
    60.7400       382
    60.7600       372
    60.7800       420
    60.8000       396
    60.8200       390
    60.8400       390
    60.8600       422
    60.8800       406
    60.9000       464
    60.9200       482
    60.9400       482
    60.9600       480
    60.9800       518
    61.0000       538
    61.0200       598
    61.0400       602
    61.0600       622
    61.0800       556
    61.1000       596
    61.1200       572
    61.1400       546
    61.1600       588
    61.1800       572
    61.2000       570
    61.2200       552
    61.2400       594
    61.2600       580
    61.2800       562
    61.3000       576
    61.3200       578
    61.3400       566
    61.3600       580
    61.3800       612
    61.4000       582
    61.4200       644
    61.4400       640
    61.4600       636
    61.4800       640
    61.5000       634
    61.5200       654
    61.5400       658
    61.5600       580
    61.5800       584
    61.6000       590
    61.6200       602
    61.6400       556
    61.6600       592
    61.6800       564
    61.7000       592
    61.7200       538
    61.7400       570
    61.7600       580
    61.7800       564
    61.8000       642
    61.8200       604
    61.8400       608
    61.8600       640
    61.8800       636
    61.9000       616
    61.9200       658
    61.9400       618
    61.9600       636
    61.9800       700
    62.0000       656
    62.0200       678
    62.0400       676
    62.0600       652
    62.0800       666
    62.1000       676
    62.1200       638
    62.1400       624
    62.1600       642
    62.1800       596
    62.2000       578
    62.2200       594
    62.2400       588
    62.2600       598
    62.2800       574
    62.3000       568
    62.3200       528
    62.3400       518
    62.3600       476
    62.3800       492
    62.4000       472
    62.4200       450
    62.4400       424
    62.4600       430
    62.4800       414
    62.5000       370
    62.5200       392
    62.5400       408
    62.5600       384
    62.5800       376
    62.6000       350
    62.6200       332
    62.6400       364
    62.6600       288
    62.6800       308
    62.7000       332
    62.7200       314
    62.7400       302
    62.7600       294
    62.7800       310
    62.8000       274
    62.8200       342
    62.8400       246
    62.8600       300
    62.8800       272
    62.9000       280
    62.9200       322
    62.9400       320
    62.9600       272
    62.9800       250
    63.0000       266
    63.0200       272
    63.0400       280
    63.0600       264
    63.0800       272
    63.1000       268
    63.1200       284
    63.1400       240
    63.1600       232
    63.1800       232
    63.2000       278
    63.2200       266
    63.2400       236
    63.2600       246
    63.2800       234
    63.3000       236
    63.3200       282
    63.3400       270
    63.3600       266
    63.3800       250
    63.4000       274
    63.4200       262
    63.4400       288
    63.4600       292
    63.4800       276
    63.5000       280
    63.5200       284
    63.5400       306
    63.5600       370
    63.5800       328
    63.6000       336
    63.6200       380
    63.6400       354
    63.6600       422
    63.6800       436
    63.7000       428
    63.7200       468
    63.7400       458
    63.7600       516
    63.7800       538
    63.8000       526
    63.8200       500
    63.8400       482
    63.8600       546
    63.8800       460
    63.9000       498
    63.9200       466
    63.9400       428
    63.9600       418
    63.9800       416
    64.0000       398
    64.0200       408
    64.0400       366
    64.0600       346
    64.0800       336
    64.1000       316
    64.1200       298
    64.1400       276
    64.1600       274
    64.1800       274
    64.2000       266
    64.2200       262
    64.2400       290
    64.2600       264
    64.2800       280
    64.3000       258
    64.3200       284
    64.3400       248
    64.3600       232
    64.3800       264
    64.4000       244
    64.4200       256
    64.4400       246
    64.4600       228
    64.4800       230
    64.5000       238
    64.5200       224
    64.5400       240
    64.5600       256
    64.5800       230
    64.6000       262
    64.6200       236
    64.6400       238
    64.6600       230
    64.6800       238
    64.7000       234
    64.7200       238
    64.7400       236
    64.7600       260
    64.7800       246
    64.8000       246
    64.8200       254
    64.8400       246
    64.8600       274
    64.8800       298
    64.9000       314
    64.9200       318
    64.9400       298
    64.9600       340
    64.9800       358
    65.0000       338
    65.0200       358
    65.0400       372
    65.0600       356
    65.0800       418
    65.1000       422
    65.1200       434
    65.1400       416
    65.1600       466
    65.1800       510
    65.2000       484
    65.2200       504
    65.2400       498
    65.2600       510
    65.2800       472
    65.3000       512
    65.3200       458
    65.3400       454
    65.3600       434
    65.3800       444
    65.4000       402
    65.4200       452
    65.4400       418
    65.4600       390
    65.4800       372
    65.5000       342
    65.5200       328
    65.5400       364
    65.5600       354
    65.5800       292
    65.6000       300
    65.6200       276
    65.6400       300
    65.6600       280
    65.6800       272
    65.7000       284
    65.7200       258
    65.7400       254
    65.7600       266
    65.7800       260
    65.8000       248
    65.8200       282
    65.8400       256
    65.8600       268
    65.8800       258
    65.9000       256
    65.9200       262
    65.9400       286
    65.9600       252
    65.9800       298
    66.0000       264
    66.0200       266
    66.0400       290
    66.0600       256
    66.0800       256
    66.1000       244
    66.1200       270
    66.1400       272
    66.1600       284
    66.1800       256
    66.2000       286
    66.2200       276
    66.2400       270
    66.2600       292
    66.2800       272
    66.3000       268
    66.3200       308
    66.3400       296
    66.3600       308
    66.3800       322
    66.4000       322
    66.4200       378
    66.4400       338
    66.4600       366
    66.4800       364
    66.5000       360
    66.5200       342
    66.5400       390
    66.5600       388
    66.5800       388
    66.6000       414
    66.6200       426
    66.6400       452
    66.6600       466
    66.6800       470
    66.7000       490
    66.7200       548
    66.7400       598
    66.7600       610
    66.7800       630
    66.8000       646
    66.8200       598
    66.8400       600
    66.8600       592
    66.8800       588
    66.9000       564
    66.9200       554
    66.9400       518
    66.9600       540
    66.9800       518
    67.0000       514
    67.0200       504
    67.0400       452
    67.0600       416
    67.0800       412
    67.1000       374
    67.1200       416
    67.1400       388
    67.1600       360
    67.1800       380
    67.2000       354
    67.2200       336
    67.2400       360
    67.2600       342
    67.2800       336
    67.3000       332
    67.3200       348
    67.3400       360
    67.3600       326
    67.3800       342
    67.4000       318
    67.4200       352
    67.4400       350
    67.4600       310
    67.4800       376
    67.5000       342
    67.5200       352
    67.5400       344
    67.5600       404
    67.5800       372
    67.6000       390
    67.6200       390
    67.6400       390
    67.6600       420
    67.6800       438
    67.7000       444
    67.7200       496
    67.7400       498
    67.7600       582
    67.7800       554
    67.8000       610
    67.8200       606
    67.8400       630
    67.8600       750
    67.8800       756
    67.9000       796
    67.9200       872
    67.9400       962
    67.9600      1036
    67.9800      1040
    68.0000      1208
    68.0200      1224
    68.0400      1332
    68.0600      1350
    68.0800      1464
    68.1000      1450
    68.1200      1386
    68.1400      1430
    68.1600      1474
    68.1800      1506
    68.2000      1470
    68.2200      1464
    68.2400      1382
    68.2600      1370
    68.2800      1348
    68.3000      1336
    68.3200      1244
    68.3400      1212
    68.3600      1100
    68.3800      1098
    68.4000      1012
    68.4200      1038
    68.4400       956
    68.4600       896
    68.4800       874
    68.5000       790
    68.5200       750
    68.5400       756
    68.5600       764
    68.5800       722
    68.6000       678
    68.6200       632
    68.6400       622
    68.6600       604
    68.6800       630
    68.7000       592
    68.7200       580
    68.7400       584
    68.7600       556
    68.7800       596
    68.8000       530
    68.8200       530
    68.8400       502
    68.8600       516
    68.8800       528
    68.9000       474
    68.9200       472
    68.9400       510
    68.9600       504
    68.9800       472
    69.0000       486
    69.0200       514
    69.0400       506
    69.0600       572
    69.0800       562
    69.1000       562
    69.1200       652
    69.1400       664
    69.1600       662
    69.1800       738
    69.2000       780
    69.2200       786
    69.2400       792
    69.2600       838
    69.2800       796
    69.3000       832
    69.3200       850
    69.3400       794
    69.3600       792
    69.3800       794
    69.4000       814
    69.4200       792
    69.4400       832
    69.4600       736
    69.4800       714
    69.5000       676
    69.5200       640
    69.5400       582
    69.5600       522
    69.5800       556
    69.6000       522
    69.6200       496
    69.6400       470
    69.6600       444
    69.6800       430
    69.7000       412
    69.7200       374
    69.7400       384
    69.7600       352
    69.7800       368
    69.8000       292
    69.8200       306
    69.8400       322
    69.8600       298
    69.8800       294
    69.9000       292
    69.9200       310
    69.9400       300
    69.9600       318
    69.9800       310
    70.0000       278
    70.0200       330
    70.0400       268
    70.0600       318
    70.0800       276
    70.1000       278
    70.1200       324
    70.1400       310
    70.1600       300
    70.1800       296
    70.2000       304
    70.2200       278
    70.2400       318
    70.2600       328
    70.2800       298
    70.3000       310
    70.3200       274
    70.3400       308
    70.3600       300
    70.3800       274
    70.4000       300
    70.4200       302
    70.4400       326
    70.4600       312
    70.4800       286
    70.5000       314
    70.5200       310
    70.5400       326
    70.5600       300
    70.5800       318
    70.6000       298
    70.6200       320
    70.6400       294
    70.6600       294
    70.6800       298
    70.7000       304
    70.7200       304
    70.7400       334
    70.7600       310
    70.7800       314
    70.8000       298
    70.8200       310
    70.8400       326
    70.8600       320
    70.8800       302
    70.9000       300
    70.9200       334
    70.9400       314
    70.9600       314
    70.9800       322
    71.0000       336
    71.0200       344
    71.0400       332
    71.0600       330
    71.0800       360
    71.1000       396
    71.1200       344
    71.1400       380
    71.1600       436
    71.1800       438
    71.2000       422
    71.2200       458
    71.2400       488
    71.2600       488
    71.2800       580
    71.3000       530
    71.3200       604
    71.3400       626
    71.3600       702
    71.3800       716
    71.4000       696
    71.4200       746
    71.4400       728
    71.4600       718
    71.4800       796
    71.5000       730
    71.5200       720
    71.5400       766
    71.5600       764
    71.5800       792
    71.6000       778
    71.6200       718
    71.6400       732
    71.6600       706
    71.6800       724
    71.7000       734
    71.7200       652
    71.7400       672
    71.7600       656
    71.7800       596
    71.8000       650
    71.8200       638
    71.8400       626
    71.8600       546
    71.8800       600
    71.9000       584
    71.9200       586
    71.9400       602
    71.9600       536
    71.9800       566
    72.0000       518
    72.0200       528
    72.0400       540
    72.0600       510
    72.0800       620
    72.1000       534
    72.1200       560
    72.1400       570
    72.1600       560
    72.1800       556
    72.2000       582
    72.2200       614
    72.2400       594
    72.2600       644
    72.2800       594
    72.3000       540
    72.3200       548
    72.3400       548
    72.3600       552
    72.3800       546
    72.4000       542
    72.4200       476
    72.4400       536
    72.4600       486
    72.4800       538
    72.5000       450
    72.5200       474
    72.5400       460
    72.5600       446
    72.5800       428
    72.6000       454
    72.6200       400
    72.6400       414
    72.6600       424
    72.6800       410
    72.7000       418
    72.7200       466
    72.7400       402
    72.7600       428
    72.7800       402
    72.8000       414
    72.8200       400
    72.8400       418
    72.8600       406
    72.8800       380
    72.9000       382
    72.9200       406
    72.9400       370
    72.9600       362
    72.9800       380
    73.0000       398
    73.0200       376
    73.0400       358
    73.0600       388
    73.0800       332
    73.1000       340
    73.1200       354
    73.1400       334
    73.1600       302
    73.1800       352
    73.2000       298
    73.2200       306
    73.2400       284
    73.2600       290
    73.2800       296
    73.3000       296
    73.3200       300
    73.3400       268
    73.3600       258
    73.3800       248
    73.4000       284
    73.4200       298
    73.4400       254
    73.4600       258
    73.4800       236
    73.5000       280
    73.5200       268
    73.5400       272
    73.5600       290
    73.5800       292
    73.6000       268
    73.6200       276
    73.6400       258
    73.6600       280
    73.6800       266
    73.7000       274
    73.7200       284
    73.7400       274
    73.7600       286
    73.7800       290
    73.8000       276
    73.8200       246
    73.8400       282
    73.8600       298
    73.8800       278
    73.9000       284
    73.9200       292
    73.9400       320
    73.9600       296
    73.9800       322
    74.0000       308
    74.0200       348
    74.0400       326
    74.0600       318
    74.0800       280
    74.1000       292
    74.1200       322
    74.1400       304
    74.1600       320
    74.1800       274
    74.2000       312
    74.2200       308
    74.2400       280
    74.2600       276
    74.2800       288
    74.3000       264
    74.3200       268
    74.3400       274
    74.3600       246
    74.3800       218
    74.4000       250
    74.4200       258
    74.4400       232
    74.4600       236
    74.4800       236
    74.5000       220
    74.5200       216
    74.5400       192
    74.5600       236
    74.5800       212
    74.6000       212
    74.6200       182
    74.6400       208
    74.6600       196
    74.6800       218
    74.7000       190
    74.7200       230
    74.7400       190
    74.7600       210
    74.7800       196
    74.8000       200
    74.8200       220
    74.8400       164
    74.8600       196
    74.8800       212
    74.9000       188
    74.9200       186
    74.9400       206
    74.9600       208
    74.9800       224
    75.0000       220
    75.0200       210
    75.0400       226
    75.0600       208
    75.0800       218
    75.1000       212
    75.1200       214
    75.1400       198
    75.1600       194
    75.1800       182
    75.2000       214
    75.2200       252
    75.2400       208
    75.2600       216
    75.2800       240
    75.3000       206
    75.3200       232
    75.3400       252
    75.3600       224
    75.3800       216
    75.4000       222
    75.4200       230
    75.4400       238
    75.4600       206
    75.4800       266
    75.5000       238
    75.5200       264
    75.5400       254
    75.5600       262
    75.5800       264
    75.6000       252
    75.6200       304
    75.6400       276
    75.6600       294
    75.6800       294
    75.7000       304
    75.7200       288
    75.7400       330
    75.7600       274
    75.7800       312
    75.8000       332
    75.8200       318
    75.8400       318
    75.8600       326
    75.8800       318
    75.9000       336
    75.9200       282
    75.9400       340
    75.9600       322
    75.9800       320
    76.0000       326
    76.0200       340
    76.0400       342
    76.0600       346
    76.0800       300
    76.1000       342
    76.1200       308
    76.1400       316
    76.1600       302
    76.1800       312
    76.2000       332
    76.2200       330
    76.2400       338
    76.2600       370
    76.2800       326
    76.3000       354
    76.3200       344
    76.3400       366
    76.3600       376
    76.3800       370
    76.4000       350
    76.4200       354
    76.4400       392
    76.4600       360
    76.4800       410
    76.5000       422
    76.5200       426
    76.5400       414
    76.5600       428
    76.5800       408
    76.6000       466
    76.6200       468
    76.6400       406
    76.6600       430
    76.6800       436
    76.7000       422
    76.7200       426
    76.7400       418
    76.7600       354
    76.7800       388
    76.8000       420
    76.8200       398
    76.8400       348
    76.8600       380
    76.8800       384
    76.9000       360
    76.9200       388
    76.9400       366
    76.9600       346
    76.9800       340
    77.0000       372
    77.0200       346
    77.0400       356
    77.0600       350
    77.0800       402
    77.1000       344
    77.1200       396
    77.1400       376
    77.1600       426
    77.1800       402
    77.2000       420
    77.2200       496
    77.2400       498
    77.2600       482
    77.2800       522
    77.3000       556
    77.3200       586
    77.3400       626
    77.3600       622
    77.3800       670
    77.4000       726
    77.4200       782
    77.4400       780
    77.4600       834
    77.4800       916
    77.5000       940
    77.5200       930
    77.5400      1000
    77.5600       940
    77.5800      1012
    77.6000       972
    77.6200      1020
    77.6400      1014
    77.6600       976
    77.6800       964
    77.7000       878
    77.7200       876
    77.7400       850
    77.7600       822
    77.7800       854
    77.8000       794
    77.8200       760
    77.8400       762
    77.8600       684
    77.8800       666
    77.9000       642
    77.9200       606
    77.9400       570
    77.9600       552
    77.9800       588
    78.0000       512
    78.0200       508
    78.0400       448
    78.0600       466
    78.0800       464
    78.1000       420
    78.1200       452
    78.1400       440
    78.1600       422
    78.1800       436
    78.2000       434
    78.2200       430
    78.2400       422
    78.2600       412
    78.2800       446
    78.3000       374
    78.3200       428
    78.3400       426
    78.3600       452
    78.3800       450
    78.4000       462
    78.4200       466
    78.4400       480
    78.4600       472
    78.4800       488
    78.5000       504
    78.5200       480
    78.5400       524
    78.5600       490
    78.5800       442
    78.6000       534
    78.6200       500
    78.6400       498
    78.6600       526
    78.6800       546
    78.7000       480
    78.7200       464
    78.7400       488
    78.7600       488
    78.7800       416
    78.8000       424
    78.8200       488
    78.8400       514
    78.8600       456
    78.8800       408
    78.9000       426
    78.9200       400
    78.9400       374
    78.9600       344
    78.9800       396
    79.0000       366
    79.0200       356
    79.0400       348
    79.0600       332
    79.0800       332
    79.1000       328
    79.1200       296
    79.1400       320
    79.1600       284
    79.1800       272
    79.2000       278
    79.2200       284
    79.2400       280
    79.2600       264
    79.2800       274
    79.3000       238
    79.3200       264
    79.3400       256
    79.3600       266
    79.3800       266
    79.4000       276
    79.4200       272
    79.4400       258
    79.4600       250
    79.4800       280
    79.5000       282
    79.5200       316
    79.5400       296
    79.5600       336
    79.5800       310
    79.6000       298
    79.6200       330
    79.6400       286
    79.6600       282
    79.6800       306
    79.7000       306
    79.7200       288
    79.7400       304
    79.7600       284
    79.7800       276
    79.8000       254
    79.8200       274
    79.8400       290
    79.8600       304
    79.8800       278
    79.9000       274
    79.9200       298
    79.9400       300
    79.9600       262
    79.9800       280
    80.0000       272
    80.0200       266
    80.0400       286
    80.0600       248
    80.0800       276
    80.1000       284
    80.1200       248
    80.1400       270
    80.1600       244
    80.1800       266
    80.2000       246
    80.2200       230
    80.2400       232
    80.2600       244
    80.2800       256
    80.3000       240
    80.3200       234
    80.3400       238
    80.3600       246
    80.3800       236
    80.4000       208
    80.4200       226
    80.4400       208
    80.4600       232
    80.4800       216
    80.5000       206
    80.5200       220
    80.5400       232
    80.5600       234
    80.5800       226
    80.6000       234
    80.6200       214
    80.6400       210
    80.6600       216
    80.6800       214
    80.7000       198
    80.7200       208
    80.7400       210
    80.7600       216
    80.7800       196
    80.8000       196
    80.8200       202
    80.8400       216
    80.8600       204
    80.8800       222
    80.9000       192
    80.9200       212
    80.9400       208
    80.9600       208
    80.9800       228
    81.0000       246
    81.0200       236
    81.0400       202
    81.0600       250
    81.0800       252
    81.1000       220
    81.1200       272
    81.1400       272
    81.1600       244
    81.1800       288
    81.2000       276
    81.2200       288
    81.2400       298
    81.2600       286
    81.2800       302
    81.3000       314
    81.3200       288
    81.3400       292
    81.3600       288
    81.3800       282
    81.4000       290
    81.4200       260
    81.4400       294
    81.4600       296
    81.4800       296
    81.5000       278
    81.5200       264
    81.5400       298
    81.5600       282
    81.5800       270
    81.6000       274
    81.6200       248
    81.6400       256
    81.6600       258
    81.6800       270
    81.7000       256
    81.7200       262
    81.7400       264
    81.7600       270
    81.7800       300
    81.8000       274
    81.8200       292
    81.8400       280
    81.8600       300
    81.8800       278
    81.9000       290
    81.9200       284
    81.9400       234
    81.9600       280
    81.9800       296
    82.0000       246
    82.0200       316
    82.0400       304
    82.0600       316
    82.0800       336
    82.1000       344
    82.1200       334
    82.1400       332
    82.1600       320
    82.1800       368
    82.2000       336
    82.2200       334
    82.2400       340
    82.2600       346
    82.2800       370
    82.3000       332
    82.3200       344
    82.3400       334
    82.3600       362
    82.3800       360
    82.4000       384
    82.4200       380
    82.4400       382
    82.4600       356
    82.4800       360
    82.5000       394
    82.5200       380
    82.5400       392
    82.5600       430
    82.5800       388
    82.6000       408
    82.6200       394
    82.6400       424
    82.6600       464
    82.6800       464
    82.7000       452
    82.7200       462
    82.7400       444
    82.7600       448
    82.7800       464
    82.8000       484
    82.8200       438
    82.8400       460
    82.8600       438
    82.8800       462
    82.9000       442
    82.9200       474
    82.9400       420
    82.9600       430
    82.9800       430
    83.0000       434
    83.0200       490
    83.0400       422
    83.0600       406
    83.0800       430
    83.1000       414
    83.1200       428
    83.1400       418
    83.1600       472
    83.1800       418
    83.2000       416
    83.2200       464
    83.2400       430
    83.2600       466
    83.2800       414
    83.3000       452
    83.3200       402
    83.3400       464
    83.3600       402
    83.3800       446
    83.4000       478
    83.4200       416
    83.4400       384
    83.4600       332
    83.4800       378
    83.5000       354
    83.5200       354
    83.5400       378
    83.5600       354
    83.5800       354
    83.6000       348
    83.6200       340
    83.6400       328
    83.6600       310
    83.6800       342
    83.7000       296
    83.7200       282
    83.7400       312
    83.7600       318
    83.7800       296
    83.8000       286
    83.8200       292
    83.8400       320
    83.8600       278
    83.8800       338
    83.9000       326
    83.9200       324
    83.9400       336
    83.9600       308
    83.9800       314
    84.0000       302
    84.0200       304
    84.0400       298
    84.0600       314
    84.0800       310
    84.1000       310
    84.1200       250
    84.1400       270
    84.1600       292
    84.1800       262
    84.2000       268
    84.2200       314
    84.2400       274
    84.2600       296
    84.2800       276
    84.3000       294
    84.3200       254
    84.3400       272
    84.3600       270
    84.3800       254
    84.4000       258
    84.4200       232
    84.4400       234
    84.4600       234
    84.4800       248
    84.5000       266
    84.5200       280
    84.5400       238
    84.5600       254
    84.5800       214
    84.6000       216
    84.6200       232
    84.6400       244
    84.6600       266
    84.6800       240
    84.7000       260
    84.7200       214
    84.7400       244
    84.7600       218
    84.7800       224
    84.8000       236
    84.8200       226
    84.8400       228
    84.8600       252
    84.8800       236
    84.9000       242
    84.9200       218
    84.9400       226
    84.9600       234
    84.9800       224
    85.0000       220
    85.0200       238
    85.0400       242
    85.0600       224
    85.0800       222
    85.1000       240
    85.1200       216
    85.1400       250
    85.1600       236
    85.1800       262
    85.2000       230
    85.2200       250
    85.2400       236
    85.2600       250
    85.2800       264
    85.3000       274
    85.3200       266
    85.3400       280
    85.3600       286
    85.3800       300
    85.4000       298
    85.4200       316
    85.4400       292
    85.4600       284
    85.4800       272
    85.5000       276
    85.5200       248
    85.5400       276
    85.5600       292
    85.5800       250
    85.6000       292
    85.6200       256
    85.6400       260
    85.6600       262
    85.6800       264
    85.7000       254
    85.7200       238
    85.7400       230
    85.7600       236
    85.7800       210
    85.8000       246
    85.8200       220
    85.8400       202
    85.8600       208
    85.8800       220
    85.9000       192
    85.9200       204
    85.9400       220
    85.9600       202
    85.9800       182
    86.0000       234
    86.0200       204
    86.0400       192
    86.0600       206
    86.0800       188
    86.1000       218
    86.1200       206
    86.1400       198
    86.1600       190
    86.1800       182
    86.2000       188
    86.2200       184
    86.2400       216
    86.2600       218
    86.2800       198
    86.3000       228
    86.3200       224
    86.3400       186
    86.3600       210
    86.3800       222
    86.4000       224
    86.4200       226
    86.4400       242
    86.4600       232
    86.4800       230
    86.5000       252
    86.5200       252
    86.5400       244
    86.5600       232
    86.5800       246
    86.6000       248
    86.6200       254
    86.6400       268
    86.6600       292
    86.6800       304
    86.7000       324
    86.7200       336
    86.7400       340
    86.7600       350
    86.7800       382
    86.8000       348
    86.8200       380
    86.8400       368
    86.8600       354
    86.8800       388
    86.9000       362
    86.9200       376
    86.9400       394
    86.9600       370
    86.9800       416
    87.0000       384
    87.0200       374
    87.0400       388
    87.0600       418
    87.0800       376
    87.1000       372
    87.1200       378
    87.1400       432
    87.1600       436
    87.1800       416
    87.2000       414
    87.2200       476
    87.2400       462
    87.2600       492
    87.2800       444
    87.3000       468
    87.3200       464
    87.3400       478
    87.3600       476
    87.3800       488
    87.4000       462
    87.4200       434
    87.4400       480
    87.4600       450
    87.4800       442
    87.5000       420
    87.5200       474
    87.5400       468
    87.5600       484
    87.5800       452
    87.6000       464
    87.6200       480
    87.6400       454
    87.6600       470
    87.6800       464
    87.7000       488
    87.7200       428
    87.7400       440
    87.7600       468
    87.7800       460
    87.8000       434
    87.8200       440
    87.8400       386
    87.8600       408
    87.8800       382
    87.9000       416
    87.9200       374
    87.9400       378
    87.9600       406
    87.9800       362
    88.0000       396
    88.0200       326
    88.0400       394
    88.0600       346
    88.0800       386
    88.1000       356
    88.1200       312
    88.1400       304
    88.1600       314
    88.1800       320
    88.2000       342
    88.2200       298
    88.2400       298
    88.2600       332
    88.2800       286
    88.3000       282
    88.3200       296
    88.3400       288
    88.3600       300
    88.3800       280
    88.4000       288
    88.4200       282
    88.4400       280
    88.4600       318
    88.4800       304
    88.5000       300
    88.5200       292
    88.5400       292
    88.5600       294
    88.5800       314
    88.6000       300
    88.6200       300
    88.6400       286
    88.6600       300
    88.6800       324
    88.7000       276
    88.7200       278
    88.7400       322
    88.7600       304
    88.7800       300
    88.8000       314
    88.8200       302
    88.8400       298
    88.8600       292
    88.8800       274
    88.9000       282
    88.9200       278
    88.9400       284
    88.9600       288
    88.9800       278
    89.0000       288
    89.0200       282
    89.0400       282
    89.0600       270
    89.0800       282
    89.1000       278
    89.1200       274
    89.1400       258
    89.1600       300
    89.1800       294
    89.2000       288
    89.2200       258
    89.2400       302
    89.2600       286
    89.2800       270
    89.3000       300
    89.3200       284
    89.3400       280
    89.3600       322
    89.3800       256
    89.4000       294
    89.4200       280
    89.4400       300
    89.4600       306
    89.4800       302
    89.5000       246
    89.5200       268
    89.5400       298
    89.5600       308
    89.5800       292
    89.6000       312
    89.6200       286
    89.6400       318
    89.6600       294
    89.6800       312
    89.7000       304
    89.7200       282
    89.7400       302
    89.7600       292
    89.7800       282
    89.8000       344
    89.8200       342
    89.8400       310
    89.8600       352
    89.8800       326
    89.9000       296
    89.9200       354
    89.9400       348
    89.9600       356
    89.9800       320
    90.0000       354
