    10.0000       362
    10.0200       350
    10.0400       352
    10.0600       362
    10.0800       368
    10.1000       344
    10.1200       322
    10.1400       362
    10.1600       346
    10.1800       350
    10.2000       358
    10.2200       314
    10.2400       356
    10.2600       334
    10.2800       346
    10.3000       344
    10.3200       328
    10.3400       352
    10.3600       314
    10.3800       344
    10.4000       334
    10.4200       340
    10.4400       324
    10.4600       362
    10.4800       342
    10.5000       344
    10.5200       326
    10.5400       302
    10.5600       358
    10.5800       320
    10.6000       376
    10.6200       324
    10.6400       364
    10.6600       364
    10.6800       364
    10.7000       348
    10.7200       338
    10.7400       332
    10.7600       338
    10.7800       340
    10.8000       358
    10.8200       344
    10.8400       310
    10.8600       330
    10.8800       322
    10.9000       344
    10.9200       328
    10.9400       342
    10.9600       314
    10.9800       324
    11.0000       330
    11.0200       286
    11.0400       322
    11.0600       322
    11.0800       300
    11.1000       324
    11.1200       348
    11.1400       326
    11.1600       344
    11.1800       328
    11.2000       334
    11.2200       314
    11.2400       332
    11.2600       302
    11.2800       332
    11.3000       320
    11.3200       326
    11.3400       284
    11.3600       342
    11.3800       318
    11.4000       312
    11.4200       328
    11.4400       310
    11.4600       312
    11.4800       318
    11.5000       322
    11.5200       298
    11.5400       322
    11.5600       288
    11.5800       330
    11.6000       302
    11.6200       308
    11.6400       310
    11.6600       300
    11.6800       298
    11.7000       286
    11.7200       296
    11.7400       312
    11.7600       290
    11.7800       306
    11.8000       294
    11.8200       296
    11.8400       306
    11.8600       280
    11.8800       314
    11.9000       304
    11.9200       312
    11.9400       280
    11.9600       314
    11.9800       298
    12.0000       284
    12.0200       300
    12.0400       302
    12.0600       318
    12.0800       336
    12.1000       276
    12.1200       288
    12.1400       278
    12.1600       284
    12.1800       300
    12.2000       254
    12.2200       294
    12.2400       310
    12.2600       282
    12.2800       280
    12.3000       268
    12.3200       246
    12.3400       280
    12.3600       270
    12.3800       290
    12.4000       290
    12.4200       270
    12.4400       284
    12.4600       298
    12.4800       280
    12.5000       280
    12.5200       254
    12.5400       290
    12.5600       288
    12.5800       306
    12.6000       304
    12.6200       292
    12.6400       278
    12.6600       270
    12.6800       306
    12.7000       306
    12.7200       258
    12.7400       298
    12.7600       242
    12.7800       254
    12.8000       262
    12.8200       260
    12.8400       260
    12.8600       294
    12.8800       278
    12.9000       252
    12.9200       248
    12.9400       280
    12.9600       262
    12.9800       268
    13.0000       276
    13.0200       274
    13.0400       258
    13.0600       266
    13.0800       272
    13.1000       270
    13.1200       282
    13.1400       258
    13.1600       266
    13.1800       278
    13.2000       244
    13.2200       266
    13.2400       260
    13.2600       252
    13.2800       268
    13.3000       252
    13.3200       290
    13.3400       256
    13.3600       258
    13.3800       276
    13.4000       252
    13.4200       228
    13.4400       258
    13.4600       262
    13.4800       250
    13.5000       240
    13.5200       298
    13.5400       240
    13.5600       260
    13.5800       282
    13.6000       266
    13.6200       228
    13.6400       264
    13.6600       226
    13.6800       264
    13.7000       278
    13.7200       274
    13.7400       252
    13.7600       228
    13.7800       268
    13.8000       222
    13.8200       256
    13.8400       238
    13.8600       274
    13.8800       240
    13.9000       230
    13.9200       232
    13.9400       262
    13.9600       256
    13.9800       266
    14.0000       266
    14.0200       230
    14.0400       282
    14.0600       270
    14.0800       240
    14.1000       230
    14.1200       268
    14.1400       252
    14.1600       208
    14.1800       244
    14.2000       252
    14.2200       242
    14.2400       274
    14.2600       274
    14.2800       274
    14.3000       230
    14.3200       246
    14.3400       232
    14.3600       244
    14.3800       236
    14.4000       246
    14.4200       218
    14.4400       228
    14.4600       234
    14.4800       230
    14.5000       236
    14.5200       230
    14.5400       222
    14.5600       232
    14.5800       218
    14.6000       244
    14.6200       250
    14.6400       246
    14.6600       264
    14.6800       214
    14.7000       220
    14.7200       256
    14.7400       228
    14.7600       240
    14.7800       224
    14.8000       222
    14.8200       258
    14.8400       226
    14.8600       236
    14.8800       252
    14.9000       210
    14.9200       222
    14.9400       256
    14.9600       232
    14.9800       210
    15.0000       200
    15.0200       212
    15.0400       222
    15.0600       240
    15.0800       246
    15.1000       218
    15.1200       226
    15.1400       246
    15.1600       238
    15.1800       222
    15.2000       208
    15.2200       226
    15.2400       224
    15.2600       238
    15.2800       240
    15.3000       214
    15.3200       228
    15.3400       236
    15.3600       246
    15.3800       216
    15.4000       208
    15.4200       230
    15.4400       238
    15.4600       260
    15.4800       218
    15.5000       236
    15.5200       242
    15.5400       234
    15.5600       228
    15.5800       238
    15.6000       260
    15.6200       226
    15.6400       216
    15.6600       224
    15.6800       228
    15.7000       254
    15.7200       222
    15.7400       236
    15.7600       228
    15.7800       214
    15.8000       218
    15.8200       216
    15.8400       222
    15.8600       220
    15.8800       228
    15.9000       250
    15.9200       226
    15.9400       208
    15.9600       244
    15.9800       216
    16.0000       242
    16.0200       230
    16.0400       242
    16.0600       242
    16.0800       212
    16.1000       230
    16.1200       242
    16.1400       246
    16.1600       228
    16.1800       226
    16.2000       230
    16.2200       228
    16.2400       218
    16.2600       216
    16.2800       198
    16.3000       210
    16.3200       232
    16.3400       184
    16.3600       224
    16.3800       220
    16.4000       210
    16.4200       196
    16.4400       216
    16.4600       228
    16.4800       204
    16.5000       214
    16.5200       196
    16.5400       238
    16.5600       216
    16.5800       214
    16.6000       196
    16.6200       222
    16.6400       254
    16.6600       216
    16.6800       228
    16.7000       218
    16.7200       188
    16.7400       198
    16.7600       220
    16.7800       204
    16.8000       214
    16.8200       244
    16.8400       206
    16.8600       198
    16.8800       224
    16.9000       194
    16.9200       212
    16.9400       212
    16.9600       206
    16.9800       190
    17.0000       198
    17.0200       196
    17.0400       184
    17.0600       178
    17.0800       232
    17.1000       206
    17.1200       182
    17.1400       202
    17.1600       228
    17.1800       202
    17.2000       210
    17.2200       188
    17.2400       200
    17.2600       212
    17.2800       206
    17.3000       212
    17.3200       226
    17.3400       200
    17.3600       228
    17.3800       202
    17.4000       198
    17.4200       206
    17.4400       222
    17.4600       214
    17.4800       208
    17.5000       188
    17.5200       186
    17.5400       202
    17.5600       198
    17.5800       206
    17.6000       216
    17.6200       176
    17.6400       182
    17.6600       188
    17.6800       214
    17.7000       200
    17.7200       186
    17.7400       200
    17.7600       180
    17.7800       212
    17.8000       196
    17.8200       188
    17.8400       188
    17.8600       218
    17.8800       162
    17.9000       184
    17.9200       178
    17.9400       184
    17.9600       188
    17.9800       218
    18.0000       182
    18.0200       194
    18.0400       198
    18.0600       170
    18.0800       192
    18.1000       200
    18.1200       178
    18.1400       170
    18.1600       166
    18.1800       230
    18.2000       196
    18.2200       184
    18.2400       214
    18.2600       188
    18.2800       190
    18.3000       182
    18.3200       200
    18.3400       188
    18.3600       214
    18.3800       200
    18.4000       200
    18.4200       198
    18.4400       202
    18.4600       188
    18.4800       182
    18.5000       206
    18.5200       222
    18.5400       220
    18.5600       204
    18.5800       206
    18.6000       208
    18.6200       202
    18.6400       208
    18.6600       198
    18.6800       198
    18.7000       244
    18.7200       216
    18.7400       206
    18.7600       216
    18.7800       234
    18.8000       228
    18.8200       236
    18.8400       252
    18.8600       220
    18.8800       224
    18.9000       264
    18.9200       282
    18.9400       268
    18.9600       282
    18.9800       302
    19.0000       302
    19.0200       288
    19.0400       326
    19.0600       356
    19.0800       366
    19.1000       416
    19.1200       436
    19.1400       472
    19.1600       484
    19.1800       548
    19.2000       636
    19.2200       678
    19.2400       782
    19.2600       808
    19.2800       908
    19.3000      1052
    19.3200      1170
    19.3400      1320
    19.3600      1482
    19.3800      1750
    19.4000      1938
    19.4200      2228
    19.4400      2708
    19.4600      3040
    19.4800      3494
    19.5000      3958
    19.5200      4214
    19.5400      3982
    19.5600      3796
    19.5800      3176
    19.6000      2640
    19.6200      2260
    19.6400      1736
    19.6600      1490
    19.6800      1310
    19.7000      1236
    19.7200      1216
    19.7400      1152
    19.7600      1240
    19.7800      1292
    19.8000      1502
    19.8200      1576
    19.8400      1708
    19.8600      1886
    19.8800      2116
    19.9000      2430
    19.9200      2554
    19.9400      2850
    19.9600      3034
    19.9800      3134
    20.0000      2950
    20.0200      2592
    20.0400      2216
    20.0600      1850
    20.0800      1394
    20.1000      1116
    20.1200       892
    20.1400       754
    20.1600       598
    20.1800       520
    20.2000       508
    20.2200       464
    20.2400       428
    20.2600       318
    20.2800       362
    20.3000       326
    20.3200       328
    20.3400       292
    20.3600       276
    20.3800       260
    20.4000       264
    20.4200       232
    20.4400       240
    20.4600       220
    20.4800       250
    20.5000       240
    20.5200       204
    20.5400       216
    20.5600       236
    20.5800       220
    20.6000       222
    20.6200       188
    20.6400       250
    20.6600       200
    20.6800       202
    20.7000       216
    20.7200       186
    20.7400       152
    20.7600       196
    20.7800       216
    20.8000       188
    20.8200       192
    20.8400       214
    20.8600       240
    20.8800       212
    20.9000       212
    20.9200       198
    20.9400       208
    20.9600       206
    20.9800       192
    21.0000       194
    21.0200       204
    21.0400       218
    21.0600       174
    21.0800       208
    21.1000       220
    21.1200       210
    21.1400       182
    21.1600       238
    21.1800       214
    21.2000       198
    21.2200       194
    21.2400       204
    21.2600       192
    21.2800       188
    21.3000       184
    21.3200       198
    21.3400       210
    21.3600       194
    21.3800       142
    21.4000       192
    21.4200       182
    21.4400       184
    21.4600       200
    21.4800       172
    21.5000       172
    21.5200       186
    21.5400       174
    21.5600       186
    21.5800       192
    21.6000       202
    21.6200       174
    21.6400       192
    21.6600       184
    21.6800       210
    21.7000       176
    21.7200       198
    21.7400       188
    21.7600       190
    21.7800       208
    21.8000       180
    21.8200       186
    21.8400       186
    21.8600       190
    21.8800       186
    21.9000       206
    21.9200       212
    21.9400       222
    21.9600       198
    21.9800       186
    22.0000       228
    22.0200       214
    22.0400       186
    22.0600       234
    22.0800       178
    22.1000       220
    22.1200       198
    22.1400       234
    22.1600       226
    22.1800       228
    22.2000       238
    22.2200       242
    22.2400       256
    22.2600       256
    22.2800       294
    22.3000       254
    22.3200       284
    22.3400       318
    22.3600       302
    22.3800       354
    22.4000       368
    22.4200       396
    22.4400       488
    22.4600       498
    22.4800       546
    22.5000       636
    22.5200       680
    22.5400       752
    22.5600       880
    22.5800      1006
    22.6000      1102
    22.6200      1264
    22.6400      1498
    22.6600      1674
    22.6800      1968
    22.7000      2320
    22.7200      2716
    22.7400      3166
    22.7600      3674
    22.7800      4134
    22.8000      4736
    22.8200      5282
    22.8400      5492
    22.8600      5226
    22.8800      4868
    22.9000      4370
    22.9200      3460
    22.9400      2666
    22.9600      2138
    22.9800      1674
    23.0000      1222
    23.0200      1108
    23.0400       876
    23.0600       810
    23.0800       710
    23.1000       634
    23.1200       546
    23.1400       540
    23.1600       448
    23.1800       446
    23.2000       362
    23.2200       316
    23.2400       366
    23.2600       322
    23.2800       276
    23.3000       300
    23.3200       260
    23.3400       248
    23.3600       254
    23.3800       220
    23.4000       230
    23.4200       210
    23.4400       216
    23.4600       226
    23.4800       212
    23.5000       226
    23.5200       224
    23.5400       182
    23.5600       206
    23.5800       196
    23.6000       180
    23.6200       176
    23.6400       202
    23.6600       156
    23.6800       190
    23.7000       194
    23.7200       168
    23.7400       194
    23.7600       188
    23.7800       138
    23.8000       178
    23.8200       186
    23.8400       158
    23.8600       182
    23.8800       174
    23.9000       178
    23.9200       168
    23.9400       196
    23.9600       170
    23.9800       200
    24.0000       162
    24.0200       152
    24.0400       174
    24.0600       180
    24.0800       172
    24.1000       146
    24.1200       168
    24.1400       166
    24.1600       188
    24.1800       176
    24.2000       170
    24.2200       172
    24.2400       172
    24.2600       166
    24.2800       190
    24.3000       180
    24.3200       178
    24.3400       174
    24.3600       180
    24.3800       174
    24.4000       194
    24.4200       172
    24.4400       158
    24.4600       172
    24.4800       168
    24.5000       178
    24.5200       156
    24.5400       184
    24.5600       152
    24.5800       154
    24.6000       180
    24.6200       166
    24.6400       176
    24.6600       180
    24.6800       170
    24.7000       186
    24.7200       178
    24.7400       168
    24.7600       156
    24.7800       156
    24.8000       174
    24.8200       186
    24.8400       170
    24.8600       178
    24.8800       186
    24.9000       212
    24.9200       178
    24.9400       186
    24.9600       188
    24.9800       180
    25.0000       174
    25.0200       184
    25.0400       188
    25.0600       188
    25.0800       210
    25.1000       230
    25.1200       218
    25.1400       250
    25.1600       220
    25.1800       268
    25.2000       228
    25.2200       292
    25.2400       254
    25.2600       288
    25.2800       286
    25.3000       302
    25.3200       372
    25.3400       352
    25.3600       390
    25.3800       424
    25.4000       518
    25.4200       546
    25.4400       626
    25.4600       736
    25.4800       746
    25.5000       918
    25.5200      1024
    25.5400      1032
    25.5600      1174
    25.5800      1188
    25.6000      1146
    25.6200      1066
    25.6400       978
    25.6600       852
    25.6800       714
    25.7000       618
    25.7200       514
    25.7400       482
    25.7600       406
    25.7800       358
    25.8000       348
    25.8200       314
    25.8400       282
    25.8600       314
    25.8800       258
    25.9000       270
    25.9200       254
    25.9400       242
    25.9600       238
    25.9800       238
    26.0000       226
    26.0200       210
    26.0400       186
    26.0600       212
    26.0800       196
    26.1000       172
    26.1200       202
    26.1400       190
    26.1600       186
    26.1800       196
    26.2000       174
    26.2200       172
    26.2400       178
    26.2600       206
    26.2800       190
    26.3000       180
    26.3200       170
    26.3400       170
    26.3600       176
    26.3800       222
    26.4000       180
    26.4200       190
    26.4400       178
    26.4600       162
    26.4800       178
    26.5000       194
    26.5200       170
    26.5400       190
    26.5600       166
    26.5800       176
    26.6000       176
    26.6200       188
    26.6400       162
    26.6600       192
    26.6800       172
    26.7000       166
    26.7200       182
    26.7400       178
    26.7600       160
    26.7800       158
    26.8000       176
    26.8200       194
    26.8400       156
    26.8600       188
    26.8800       162
    26.9000       172
    26.9200       170
    26.9400       200
    26.9600       178
    26.9800       172
    27.0000       172
    27.0200       184
    27.0400       160
    27.0600       164
    27.0800       182
    27.1000       166
    27.1200       192
    27.1400       186
    27.1600       182
    27.1800       166
    27.2000       198
    27.2200       190
    27.2400       190
    27.2600       194
    27.2800       176
    27.3000       204
    27.3200       216
    27.3400       216
    27.3600       174
    27.3800       196
    27.4000       204
    27.4200       248
    27.4400       210
    27.4600       214
    27.4800       224
    27.5000       232
    27.5200       242
    27.5400       230
    27.5600       226
    27.5800       228
    27.6000       238
    27.6200       262
    27.6400       274
    27.6600       294
    27.6800       268
    27.7000       286
    27.7200       330
    27.7400       322
    27.7600       350
    27.7800       370
    27.8000       446
    27.8200       462
    27.8400       468
    27.8600       580
    27.8800       576
    27.9000       660
    27.9200       758
    27.9400       868
    27.9600       918
    27.9800      1058
    28.0000      1272
    28.0200      1374
    28.0400      1582
    28.0600      1900
    28.0800      2166
    28.1000      2614
    28.1200      3070
    28.1400      3568
    28.1600      4138
    28.1800      4616
    28.2000      5382
    28.2200      6032
    28.2400      6550
    28.2600      6572
    28.2800      6466
    28.3000      5902
    28.3200      5314
    28.3400      4438
    28.3600      3778
    28.3800      3152
    28.4000      2462
    28.4200      1966
    28.4400      1606
    28.4600      1344
    28.4800      1150
    28.5000       976
    28.5200       850
    28.5400       808
    28.5600       684
    28.5800       600
    28.6000       482
    28.6200       502
    28.6400       468
    28.6600       404
    28.6800       346
    28.7000       356
    28.7200       356
    28.7400       314
    28.7600       282
    28.7800       258
    28.8000       308
    28.8200       268
    28.8400       234
    28.8600       224
    28.8800       246
    28.9000       256
    28.9200       264
    28.9400       248
    28.9600       202
    28.9800       234
    29.0000       226
    29.0200       216
    29.0400       202
    29.0600       218
    29.0800       210
    29.1000       184
    29.1200       214
    29.1400       186
    29.1600       200
    29.1800       178
    29.2000       168
    29.2200       192
    29.2400       170
    29.2600       198
    29.2800       202
    29.3000       190
    29.3200       188
    29.3400       184
    29.3600       182
    29.3800       184
    29.4000       182
    29.4200       212
    29.4400       164
    29.4600       194
    29.4800       180
    29.5000       208
    29.5200       200
    29.5400       190
    29.5600       218
    29.5800       154
    29.6000       176
    29.6200       200
    29.6400       180
    29.6600       160
    29.6800       182
    29.7000       202
    29.7200       186
    29.7400       194
    29.7600       192
    29.7800       186
    29.8000       168
    29.8200       190
    29.8400       190
    29.8600       184
    29.8800       196
    29.9000       188
    29.9200       194
    29.9400       164
    29.9600       180
    29.9800       188
    30.0000       172
    30.0200       180
    30.0400       170
    30.0600       168
    30.0800       204
    30.1000       206
    30.1200       192
    30.1400       184
    30.1600       178
    30.1800       198
    30.2000       212
    30.2200       190
    30.2400       228
    30.2600       204
    30.2800       202
    30.3000       208
    30.3200       180
    30.3400       186
    30.3600       190
    30.3800       202
    30.4000       188
    30.4200       198
    30.4400       208
    30.4600       208
    30.4800       176
    30.5000       212
    30.5200       222
    30.5400       214
    30.5600       212
    30.5800       206
    30.6000       194
    30.6200       200
    30.6400       210
    30.6600       220
    30.6800       204
    30.7000       190
    30.7200       202
    30.7400       206
    30.7600       202
    30.7800       206
    30.8000       218
    30.8200       180
    30.8400       216
    30.8600       188
    30.8800       204
    30.9000       218
    30.9200       226
    30.9400       214
    30.9600       208
    30.9800       214
    31.0000       212
    31.0200       210
    31.0400       236
    31.0600       200
    31.0800       222
    31.1000       204
    31.1200       196
    31.1400       218
    31.1600       218
    31.1800       240
    31.2000       228
    31.2200       216
    31.2400       234
    31.2600       224
    31.2800       238
    31.3000       280
    31.3200       228
    31.3400       284
    31.3600       270
    31.3800       262
    31.4000       282
    31.4200       298
    31.4400       288
    31.4600       306
    31.4800       348
    31.5000       352
    31.5200       354
    31.5400       410
    31.5600       414
    31.5800       410
    31.6000       474
    31.6200       508
    31.6400       534
    31.6600       620
    31.6800       628
    31.7000       676
    31.7200       742
    31.7400       852
    31.7600       872
    31.7800      1012
    31.8000      1190
    31.8200      1426
    31.8400      1536
    31.8600      1800
    31.8800      2144
    31.9000      2296
    31.9200      2638
    31.9400      2870
    31.9600      2940
    31.9800      2876
    32.0000      2782
    32.0200      2636
    32.0400      2476
    32.0600      2212
    32.0800      2066
    32.1000      1894
    32.1200      1696
    32.1400      1652
    32.1600      1572
    32.1800      1692
    32.2000      1700
    32.2200      1748
    32.2400      1896
    32.2600      2054
    32.2800      2250
    32.3000      2478
    32.3200      2786
    32.3400      3106
    32.3600      3606
    32.3800      4240
    32.4000      4810
    32.4200      5612
    32.4400      6442
    32.4600      7318
    32.4800      8366
    32.5000      8800
    32.5200      9170
    32.5400      9358
    32.5600      9050
    32.5800      8700
    32.6000      7998
    32.6200      7194
    32.6400      6292
    32.6600      5300
    32.6800      4344
    32.7000      3744
    32.7200      3204
    32.7400      2774
    32.7600      2354
    32.7800      2168
    32.8000      1838
    32.8200      1708
    32.8400      1696
    32.8600      1540
    32.8800      1534
    32.9000      1484
    32.9200      1420
    32.9400      1486
    32.9600      1588
    32.9800      1628
    33.0000      1734
    33.0200      1886
    33.0400      1996
    33.0600      2028
    33.0800      2012
    33.1000      1924
    33.1200      1788
    33.1400      1632
    33.1600      1472
    33.1800      1312
    33.2000      1174
    33.2200       988
    33.2400       876
    33.2600       720
    33.2800       702
    33.3000       590
    33.3200       550
    33.3400       558
    33.3600       504
    33.3800       490
    33.4000       452
    33.4200       480
    33.4400       410
    33.4600       368
    33.4800       356
    33.5000       346
    33.5200       326
    33.5400       334
    33.5600       304
    33.5800       298
    33.6000       288
    33.6200       264
    33.6400       284
    33.6600       280
    33.6800       262
    33.7000       278
    33.7200       276
    33.7400       256
    33.7600       268
    33.7800       240
    33.8000       252
    33.8200       246
    33.8400       242
    33.8600       234
    33.8800       240
    33.9000       234
    33.9200       262
    33.9400       240
    33.9600       272
    33.9800       256
    34.0000       276
    34.0200       266
    34.0400       264
    34.0600       246
    34.0800       272
    34.1000       234
    34.1200       252
    34.1400       228
    34.1600       248
    34.1800       262
    34.2000       252
    34.2200       264
    34.2400       280
    34.2600       254
    34.2800       252
    34.3000       278
    34.3200       266
    34.3400       300
    34.3600       274
    34.3800       266
    34.4000       262
    34.4200       256
    34.4400       286
    34.4600       256
    34.4800       242
    34.5000       264
    34.5200       240
    34.5400       268
    34.5600       280
    34.5800       256
    34.6000       246
    34.6200       250
    34.6400       256
    34.6600       234
    34.6800       246
    34.7000       236
    34.7200       234
    34.7400       218
    34.7600       256
    34.7800       180
    34.8000       234
    34.8200       252
    34.8400       266
    34.8600       224
    34.8800       230
    34.9000       258
    34.9200       242
    34.9400       248
    34.9600       242
    34.9800       246
    35.0000       234
    35.0200       254
    35.0400       232
    35.0600       218
    35.0800       246
    35.1000       244
    35.1200       246
    35.1400       224
    35.1600       232
    35.1800       222
    35.2000       216
    35.2200       240
    35.2400       236
    35.2600       214
    35.2800       242
    35.3000       232
    35.3200       250
    35.3400       220
    35.3600       224
    35.3800       260
    35.4000       234
    35.4200       260
    35.4400       194
    35.4600       248
    35.4800       242
    35.5000       220
    35.5200       262
    35.5400       242
    35.5600       222
    35.5800       242
    35.6000       278
    35.6200       256
    35.6400       282
    35.6600       258
    35.6800       280
    35.7000       254
    35.7200       276
    35.7400       302
    35.7600       326
    35.7800       334
    35.8000       352
    35.8200       332
    35.8400       342
    35.8600       344
    35.8800       334
    35.9000       410
    35.9200       390
    35.9400       424
    35.9600       482
    35.9800       504
    36.0000       542
    36.0200       584
    36.0400       654
    36.0600       696
    36.0800       806
    36.1000       804
    36.1200       784
    36.1400       796
    36.1600       748
    36.1800       710
    36.2000       686
    36.2200       654
    36.2400       588
    36.2600       564
    36.2800       492
    36.3000       480
    36.3200       442
    36.3400       422
    36.3600       438
    36.3800       472
    36.4000       474
    36.4200       454
    36.4400       464
    36.4600       452
    36.4800       452
    36.5000       454
    36.5200       510
    36.5400       572
    36.5600       544
    36.5800       590
    36.6000       666
    36.6200       686
    36.6400       760
    36.6600       836
    36.6800       890
    36.7000      1004
    36.7200      1124
    36.7400      1302
    36.7600      1470
    36.7800      1616
    36.8000      1810
    36.8200      2056
    36.8400      2264
    36.8600      2372
    36.8800      2374
    36.9000      2118
    36.9200      2106
    36.9400      1928
    36.9600      1768
    36.9800      1700
    37.0000      1446
    37.0200      1222
    37.0400       988
    37.0600       954
    37.0800       910
    37.1000       768
    37.1200       716
    37.1400       678
    37.1600       636
    37.1800       540
    37.2000       586
    37.2200       566
    37.2400       526
    37.2600       496
    37.2800       510
    37.3000       490
    37.3200       532
    37.3400       414
    37.3600       446
    37.3800       456
    37.4000       456
    37.4200       446
    37.4400       456
    37.4600       438
    37.4800       400
    37.5000       450
    37.5200       492
    37.5400       458
    37.5600       426
    37.5800       494
    37.6000       470
    37.6200       476
    37.6400       560
    37.6600       560
    37.6800       580
    37.7000       648
    37.7200       682
    37.7400       754
    37.7600       792
    37.7800       870
    37.8000       942
    37.8200      1048
    37.8400      1154
    37.8600      1308
    37.8800      1512
    37.9000      1686
    37.9200      1858
    37.9400      2100
    37.9600      2274
    37.9800      2318
    38.0000      2322
    38.0200      2398
    38.0400      2372
    38.0600      2130
    38.0800      2056
    38.1000      2028
    38.1200      1906
    38.1400      1680
    38.1600      1718
    38.1800      1636
    38.2000      1632
    38.2200      1678
    38.2400      1846
    38.2600      1966
    38.2800      2058
    38.3000      2228
    38.3200      2518
    38.3400      2724
    38.3600      3090
    38.3800      3348
    38.4000      3826
    38.4200      4174
    38.4400      4308
    38.4600      4700
    38.4800      4714
    38.5000      4796
    38.5200      4750
    38.5400      4800
    38.5600      4638
    38.5800      4616
    38.6000      4452
    38.6200      4386
    38.6400      4452
    38.6600      4498
    38.6800      4586
    38.7000      4586
    38.7200      4440
    38.7400      4186
    38.7600      4196
    38.7800      3854
    38.8000      3716
    38.8200      3388
    38.8400      3078
    38.8600      2900
    38.8800      2562
    38.9000      2314
    38.9200      2008
    38.9400      1778
    38.9600      1592
    38.9800      1546
    39.0000      1298
    39.0200      1134
    39.0400      1068
    39.0600      1028
    39.0800       908
    39.1000       886
    39.1200       918
    39.1400       812
    39.1600       728
    39.1800       696
    39.2000       726
    39.2200       726
    39.2400       664
    39.2600       692
    39.2800       706
    39.3000       722
    39.3200       708
    39.3400       768
    39.3600       708
    39.3800       762
    39.4000       856
    39.4200       868
    39.4400       942
    39.4600       984
    39.4800      1154
    39.5000      1172
    39.5200      1286
    39.5400      1522
    39.5600      1798
    39.5800      1942
    39.6000      2170
    39.6200      2482
    39.6400      2700
    39.6600      2708
    39.6800      2828
    39.7000      2598
    39.7200      2454
    39.7400      2298
    39.7600      2040
    39.7800      1964
    39.8000      1742
    39.8200      1506
    39.8400      1252
    39.8600       996
    39.8800       938
    39.9000       850
    39.9200       826
    39.9400       708
    39.9600       690
    39.9800       628
    40.0000       618
    40.0200       574
    40.0400       560
    40.0600       516
    40.0800       490
    40.1000       494
    40.1200       474
    40.1400       496
    40.1600       488
    40.1800       550
    40.2000       482
    40.2200       452
    40.2400       552
    40.2600       584
    40.2800       592
    40.3000       626
    40.3200       620
    40.3400       646
    40.3600       704
    40.3800       710
    40.4000       866
    40.4200       904
    40.4400       994
    40.4600      1060
    40.4800      1188
    40.5000      1254
    40.5200      1378
    40.5400      1416
    40.5600      1422
    40.5800      1492
    40.6000      1458
    40.6200      1398
    40.6400      1380
    40.6600      1286
    40.6800      1200
    40.7000      1092
    40.7200      1036
    40.7400       878
    40.7600       808
    40.7800       734
    40.8000       684
    40.8200       626
    40.8400       532
    40.8600       554
    40.8800       524
    40.9000       460
    40.9200       490
    40.9400       420
    40.9600       392
    40.9800       396
    41.0000       374
    41.0200       390
    41.0400       356
    41.0600       370
    41.0800       362
    41.1000       352
    41.1200       366
    41.1400       384
    41.1600       354
    41.1800       334
    41.2000       348
    41.2200       348
    41.2400       360
    41.2600       340
    41.2800       372
    41.3000       324
    41.3200       332
    41.3400       358
    41.3600       372
    41.3800       402
    41.4000       408
    41.4200       400
    41.4400       386
    41.4600       422
    41.4800       424
    41.5000       470
    41.5200       504
    41.5400       476
    41.5600       582
    41.5800       646
    41.6000       612
    41.6200       660
    41.6400       686
    41.6600       752
    41.6800       864
    41.7000      1006
    41.7200      1146
    41.7400      1148
    41.7600      1342
    41.7800      1498
    41.8000      1648
    41.8200      1780
    41.8400      1856
    41.8600      2012
    41.8800      2040
    41.9000      2082
    41.9200      1930
    41.9400      1882
    41.9600      1720
    41.9800      1660
    42.0000      1440
    42.0200      1360
    42.0400      1130
    42.0600      1048
    42.0800       984
    42.1000       858
    42.1200       810
    42.1400       710
    42.1600       684
    42.1800       606
    42.2000       572
    42.2200       500
    42.2400       544
    42.2600       456
    42.2800       454
    42.3000       448
    42.3200       452
    42.3400       398
    42.3600       394
    42.3800       376
    42.4000       392
    42.4200       408
    42.4400       422
    42.4600       368
    42.4800       340
    42.5000       354
    42.5200       382
    42.5400       360
    42.5600       376
    42.5800       396
    42.6000       384
    42.6200       360
    42.6400       384
    42.6600       400
    42.6800       386
    42.7000       420
    42.7200       432
    42.7400       432
    42.7600       434
    42.7800       440
    42.8000       486
    42.8200       480
    42.8400       530
    42.8600       562
    42.8800       564
    42.9000       632
    42.9200       692
    42.9400       672
    42.9600       768
    42.9800       860
    43.0000       932
    43.0200      1068
    43.0400      1202
    43.0600      1336
    43.0800      1446
    43.1000      1562
    43.1200      1688
    43.1400      1914
    43.1600      2068
    43.1800      1986
    43.2000      1904
    43.2200      1854
    43.2400      1754
    43.2600      1604
    43.2800      1472
    43.3000      1402
    43.3200      1288
    43.3400      1084
    43.3600      1064
    43.3800       882
    43.4000       774
    43.4200       790
    43.4400       658
    43.4600       606
    43.4800       640
    43.5000       568
    43.5200       530
    43.5400       546
    43.5600       530
    43.5800       584
    43.6000       564
    43.6200       520
    43.6400       588
    43.6600       602
    43.6800       616
    43.7000       678
    43.7200       686
    43.7400       756
    43.7600       742
    43.7800       726
    43.8000       760
    43.8200       786
    43.8400       736
    43.8600       644
    43.8800       728
    43.9000       670
    43.9200       608
    43.9400       576
    43.9600       538
    43.9800       530
    44.0000       528
    44.0200       458
    44.0400       444
    44.0600       414
    44.0800       396
    44.1000       382
    44.1200       360
    44.1400       360
    44.1600       362
    44.1800       298
    44.2000       322
    44.2200       368
    44.2400       342
    44.2600       314
    44.2800       324
    44.3000       302
    44.3200       326
    44.3400       284
    44.3600       288
    44.3800       280
    44.4000       278
    44.4200       284
    44.4400       294
    44.4600       270
    44.4800       292
    44.5000       292
    44.5200       270
    44.5400       300
    44.5600       274
    44.5800       264
    44.6000       278
    44.6200       290
    44.6400       280
    44.6600       252
    44.6800       306
    44.7000       268
    44.7200       290
    44.7400       262
    44.7600       276
    44.7800       260
    44.8000       270
    44.8200       282
    44.8400       268
    44.8600       296
    44.8800       282
    44.9000       286
    44.9200       286
    44.9400       268
    44.9600       278
    44.9800       286
    45.0000       304
    45.0200       302
    45.0400       276
    45.0600       288
    45.0800       306
    45.1000       278
    45.1200       312
    45.1400       304
    45.1600       312
    45.1800       304
    45.2000       264
    45.2200       322
    45.2400       296
    45.2600       298
    45.2800       316
    45.3000       322
    45.3200       306
    45.3400       336
    45.3600       298
    45.3800       316
    45.4000       304
    45.4200       352
    45.4400       336
    45.4600       344
    45.4800       348
    45.5000       374
    45.5200       372
    45.5400       382
    45.5600       356
    45.5800       376
    45.6000       420
    45.6200       376
    45.6400       348
    45.6600       380
    45.6800       432
    45.7000       410
    45.7200       424
    45.7400       434
    45.7600       448
    45.7800       486
    45.8000       414
    45.8200       506
    45.8400       452
    45.8600       504
    45.8800       480
    45.9000       496
    45.9200       518
    45.9400       538
    45.9600       558
    45.9800       560
    46.0000       612
    46.0200       606
    46.0400       686
    46.0600       634
    46.0800       756
    46.1000       694
    46.1200       786
    46.1400       836
    46.1600       852
    46.1800       922
    46.2000       874
    46.2200      1038
    46.2400      1122
    46.2600      1260
    46.2800      1338
    46.3000      1402
    46.3200      1534
    46.3400      1654
    46.3600      1838
    46.3800      2104
    46.4000      2138
    46.4200      2516
    46.4400      2742
    46.4600      3014
    46.4800      3458
    46.5000      3952
    46.5200      4388
    46.5400      4934
    46.5600      5886
    46.5800      6496
    46.6000      7540
    46.6200      8566
    46.6400      9230
    46.6600     10174
    46.6800     10128
    46.7000     10090
    46.7200      9892
    46.7400      9596
    46.7600      9256
    46.7800      8832
    46.8000      8290
    46.8200      7984
    46.8400      7818
    46.8600      7386
    46.8800      7162
    46.9000      7112
    46.9200      6946
    46.9400      7242
    46.9600      7344
    46.9800      7438
    47.0000      7308
    47.0200      7054
    47.0400      6554
    47.0600      6062
    47.0800      5542
    47.1000      5168
    47.1200      4762
    47.1400      4298
    47.1600      4032
    47.1800      3400
    47.2000      2914
    47.2200      2582
    47.2400      2396
    47.2600      2096
    47.2800      1794
    47.3000      1728
    47.3200      1538
    47.3400      1408
    47.3600      1268
    47.3800      1174
    47.4000      1140
    47.4200      1022
    47.4400       954
    47.4600       900
    47.4800       830
    47.5000       882
    47.5200       766
    47.5400       784
    47.5600       706
    47.5800       760
    47.6000       700
    47.6200       774
    47.6400       764
    47.6600       750
    47.6800       766
    47.7000       784
    47.7200       760
    47.7400       810
    47.7600       906
    47.7800       872
    47.8000       942
    47.8200       956
    47.8400       866
    47.8600       866
    47.8800       886
    47.9000       884
    47.9200       810
    47.9400       800
    47.9600       806
    47.9800       728
    48.0000       722
    48.0200       710
    48.0400       748
    48.0600       742
    48.0800       780
    48.1000       784
    48.1200       818
    48.1400       866
    48.1600       902
    48.1800       930
    48.2000       866
    48.2200       906
    48.2400       840
    48.2600       798
    48.2800       760
    48.3000       742
    48.3200       704
    48.3400       646
    48.3600       574
    48.3800       558
    48.4000       494
    48.4200       486
    48.4400       440
    48.4600       452
    48.4800       428
    48.5000       414
    48.5200       366
    48.5400       368
    48.5600       340
    48.5800       374
    48.6000       340
    48.6200       324
    48.6400       300
    48.6600       326
    48.6800       278
    48.7000       300
    48.7200       312
    48.7400       278
    48.7600       294
    48.7800       282
    48.8000       296
    48.8200       290
    48.8400       240
    48.8600       276
    48.8800       246
    48.9000       268
    48.9200       272
    48.9400       256
    48.9600       242
    48.9800       222
    49.0000       254
    49.0200       230
    49.0400       270
    49.0600       248
    49.0800       248
    49.1000       232
    49.1200       232
    49.1400       246
    49.1600       226
    49.1800       240
    49.2000       248
    49.2200       240
    49.2400       210
    49.2600       212
    49.2800       232
    49.3000       240
    49.3200       248
    49.3400       224
    49.3600       234
    49.3800       246
    49.4000       236
    49.4200       230
    49.4400       262
    49.4600       246
    49.4800       246
    49.5000       250
    49.5200       244
    49.5400       254
    49.5600       210
    49.5800       248
    49.6000       270
    49.6200       288
    49.6400       270
    49.6600       266
    49.6800       268
    49.7000       278
    49.7200       296
    49.7400       264
    49.7600       262
    49.7800       248
    49.8000       232
    49.8200       268
    49.8400       244
    49.8600       248
    49.8800       246
    49.9000       236
    49.9200       250
    49.9400       242
    49.9600       252
    49.9800       262
    50.0000       260
    50.0200       262
    50.0400       258
    50.0600       218
    50.0800       252
    50.1000       280
    50.1200       280
    50.1400       228
    50.1600       266
    50.1800       274
    50.2000       272
    50.2200       282
    50.2400       278
    50.2600       316
    50.2800       308
    50.3000       326
    50.3200       310
    50.3400       286
    50.3600       282
    50.3800       298
    50.4000       288
    50.4200       296
    50.4400       312
    50.4600       304
    50.4800       322
    50.5000       304
    50.5200       292
    50.5400       286
    50.5600       340
    50.5800       338
    50.6000       296
    50.6200       360
    50.6400       352
    50.6600       370
    50.6800       426
    50.7000       412
    50.7200       428
    50.7400       478
    50.7600       504
    50.7800       524
    50.8000       582
    50.8200       584
    50.8400       696
    50.8600       678
    50.8800       722
    50.9000       786
    50.9200       780
    50.9400       764
    50.9600       756
    50.9800       656
    51.0000       634
    51.0200       628
    51.0400       644
    51.0600       564
    51.0800       592
    51.1000       564
    51.1200       518
    51.1400       524
    51.1600       526
    51.1800       478
    51.2000       528
    51.2200       498
    51.2400       516
    51.2600       550
    51.2800       592
    51.3000       610
    51.3200       584
    51.3400       704
    51.3600       704
    51.3800       666
    51.4000       700
    51.4200       676
    51.4400       670
    51.4600       668
    51.4800       648
    51.5000       628
    51.5200       666
    51.5400       634
    51.5600       684
    51.5800       650
    51.6000       658
    51.6200       646
    51.6400       678
    51.6600       704
    51.6800       682
    51.7000       808
    51.7200       790
    51.7400       870
    51.7600       930
    51.7800      1042
    51.8000      1042
    51.8200      1018
    51.8400      1072
    51.8600      1028
    51.8800      1046
    51.9000      1004
    51.9200       986
    51.9400       960
    51.9600      1002
    51.9800       918
    52.0000       876
    52.0200       944
    52.0400       852
    52.0600       802
    52.0800       750
    52.1000       728
    52.1200       758
    52.1400       716
    52.1600       692
    52.1800       690
    52.2000       640
    52.2200       654
    52.2400       678
    52.2600       666
    52.2800       754
    52.3000       670
    52.3200       692
    52.3400       734
    52.3600       842
    52.3800       808
    52.4000       958
    52.4200      1002
    52.4400      1038
    52.4600      1162
    52.4800      1192
    52.5000      1358
    52.5200      1296
    52.5400      1458
    52.5600      1556
    52.5800      1536
    52.6000      1536
    52.6200      1526
    52.6400      1548
    52.6600      1438
    52.6800      1358
    52.7000      1330
    52.7200      1288
    52.7400      1246
    52.7600      1096
    52.7800      1080
    52.8000       966
    52.8200       926
    52.8400       836
    52.8600       930
    52.8800       826
    52.9000       824
    52.9200       874
    52.9400       806
    52.9600       826
    52.9800       864
    53.0000       906
    53.0200       912
    53.0400       974
    53.0600      1096
    53.0800      1160
    53.1000      1228
    53.1200      1258
    53.1400      1574
    53.1600      1696
    53.1800      1840
    53.2000      1942
    53.2200      1974
    53.2400      1964
    53.2600      1890
    53.2800      1862
    53.3000      1714
    53.3200      1606
    53.3400      1606
    53.3600      1474
    53.3800      1356
    53.4000      1246
    53.4200      1174
    53.4400       980
    53.4600       852
    53.4800       862
    53.5000       724
    53.5200       654
    53.5400       626
    53.5600       600
    53.5800       524
    53.6000       524
    53.6200       460
    53.6400       458
    53.6600       418
    53.6800       394
    53.7000       394
    53.7200       362
    53.7400       380
    53.7600       384
    53.7800       358
    53.8000       334
    53.8200       348
    53.8400       304
    53.8600       302
    53.8800       304
    53.9000       314
    53.9200       312
    53.9400       304
    53.9600       304
    53.9800       322
    54.0000       280
    54.0200       272
    54.0400       320
    54.0600       294
    54.0800       302
    54.1000       316
    54.1200       288
    54.1400       308
    54.1600       316
    54.1800       302
    54.2000       332
    54.2200       312
    54.2400       316
    54.2600       354
    54.2800       320
    54.3000       358
    54.3200       380
    54.3400       330
    54.3600       382
    54.3800       356
    54.4000       428
    54.4200       464
    54.4400       452
    54.4600       450
    54.4800       476
    54.5000       522
    54.5200       566
    54.5400       582
    54.5600       618
    54.5800       624
    54.6000       626
    54.6200       690
    54.6400       680
    54.6600       784
    54.6800       788
    54.7000       806
    54.7200       842
    54.7400       860
    54.7600       836
    54.7800       756
    54.8000       776
    54.8200       688
    54.8400       696
    54.8600       680
    54.8800       608
    54.9000       606
    54.9200       612
    54.9400       522
    54.9600       518
    54.9800       462
    55.0000       502
    55.0200       454
    55.0400       424
    55.0600       392
    55.0800       416
    55.1000       380
    55.1200       388
    55.1400       388
    55.1600       406
    55.1800       382
    55.2000       368
    55.2200       386
    55.2400       378
    55.2600       452
    55.2800       416
    55.3000       404
    55.3200       386
    55.3400       432
    55.3600       478
    55.3800       520
    55.4000       490
    55.4200       576
    55.4400       542
    55.4600       600
    55.4800       660
    55.5000       696
    55.5200       722
    55.5400       826
    55.5600       882
    55.5800       906
    55.6000       964
    55.6200      1200
    55.6400      1348
    55.6600      1364
    55.6800      1618
    55.7000      1778
    55.7200      1798
    55.7400      1920
    55.7600      1890
    55.7800      1816
    55.8000      1802
    55.8200      1636
    55.8400      1576
    55.8600      1538
    55.8800      1530
    55.9000      1488
    55.9200      1434
    55.9400      1248
    55.9600      1170
    55.9800      1096
    56.0000      1032
    56.0200       950
    56.0400       876
    56.0600       856
    56.0800       782
    56.1000       794
    56.1200       750
    56.1400       688
    56.1600       634
    56.1800       658
    56.2000       658
    56.2200       642
    56.2400       560
    56.2600       564
    56.2800       558
    56.3000       554
    56.3200       456
    56.3400       426
    56.3600       436
    56.3800       420
    56.4000       396
    56.4200       386
    56.4400       384
    56.4600       406
    56.4800       422
    56.5000       364
    56.5200       382
    56.5400       358
    56.5600       366
    56.5800       356
    56.6000       344
    56.6200       360
    56.6400       404
    56.6600       332
    56.6800       394
    56.7000       390
    56.7200       350
    56.7400       406
    56.7600       396
    56.7800       422
    56.8000       356
    56.8200       406
    56.8400       414
    56.8600       438
    56.8800       466
    56.9000       440
    56.9200       518
    56.9400       488
    56.9600       522
    56.9800       572
    57.0000       594
    57.0200       616
    57.0400       620
    57.0600       710
    57.0800       746
    57.1000       790
    57.1200       784
    57.1400       864
    57.1600       942
    57.1800      1014
    57.2000      1198
    57.2200      1314
    57.2400      1426
    57.2600      1514
    57.2800      1616
    57.3000      1736
    57.3200      1872
    57.3400      1842
    57.3600      1866
    57.3800      1804
    57.4000      1800
    57.4200      1824
    57.4400      1650
    57.4600      1660
    57.4800      1716
    57.5000      1654
    57.5200      1610
    57.5400      1516
    57.5600      1586
    57.5800      1696
    57.6000      1624
    57.6200      1774
    57.6400      1770
    57.6600      1900
    57.6800      1930
    57.7000      1954
    57.7200      1956
    57.7400      1890
    57.7600      1764
    57.7800      1780
    57.8000      1650
    57.8200      1638
    57.8400      1530
    57.8600      1534
    57.8800      1434
    57.9000      1408
    57.9200      1338
    57.9400      1212
    57.9600      1054
    57.9800      1084
    58.0000       938
    58.0200       958
    58.0400       938
    58.0600       954
    58.0800       894
    58.1000      1002
    58.1200       934
    58.1400       950
    58.1600       960
    58.1800      1016
    58.2000      1064
    58.2200      1102
    58.2400      1150
    58.2600      1242
    58.2800      1348
    58.3000      1398
    58.3200      1508
    58.3400      1546
    58.3600      1616
    58.3800      1758
    58.4000      1878
    58.4200      2092
    58.4400      2194
    58.4600      2406
    58.4800      2434
    58.5000      2576
    58.5200      2710
    58.5400      2744
    58.5600      2838
    58.5800      2972
    58.6000      3086
    58.6200      3356
    58.6400      3546
    58.6600      3588
    58.6800      3598
    58.7000      3730
    58.7200      3720
    58.7400      3542
    58.7600      3284
    58.7800      3382
    58.8000      3172
    58.8200      3026
    58.8400      2852
    58.8600      2790
    58.8800      2532
    58.9000      2348
    58.9200      2244
    58.9400      1986
    58.9600      1838
    58.9800      1692
    59.0000      1596
    59.0200      1486
    59.0400      1276
    59.0600      1204
    59.0800      1058
    59.1000       984
    59.1200       886
    59.1400       834
    59.1600       848
    59.1800       722
    59.2000       724
    59.2200       672
    59.2400       642
    59.2600       628
    59.2800       644
    59.3000       568
    59.3200       568
    59.3400       534
    59.3600       506
    59.3800       496
    59.4000       474
    59.4200       470
    59.4400       452
    59.4600       412
    59.4800       434
    59.5000       414
    59.5200       372
    59.5400       386
    59.5600       392
    59.5800       364
    59.6000       360
    59.6200       356
    59.6400       304
    59.6600       312
    59.6800       294
    59.7000       328
    59.7200       334
    59.7400       322
    59.7600       302
    59.7800       306
    59.8000       308
    59.8200       286
    59.8400       260
    59.8600       268
    59.8800       292
    59.9000       252
    59.9200       278
    59.9400       266
    59.9600       278
    59.9800       298
    60.0000       258
    60.0200       266
    60.0400       274
    60.0600       258
    60.0800       270
    60.1000       262
    60.1200       276
    60.1400       304
    60.1600       252
    60.1800       274
    60.2000       262
    60.2200       274
    60.2400       246
    60.2600       258
    60.2800       258
    60.3000       272
    60.3200       250
    60.3400       284
    60.3600       244
    60.3800       274
    60.4000       258
    60.4200       266
    60.4400       284
    60.4600       286
    60.4800       284
    60.5000       270
    60.5200       274
    60.5400       272
    60.5600       264
    60.5800       264
    60.6000       288
    60.6200       270
    60.6400       260
    60.6600       286
    60.6800       272
    60.7000       256
    60.7200       268
    60.7400       338
    60.7600       296
    60.7800       282
    60.8000       294
    60.8200       316
    60.8400       334
    60.8600       356
    60.8800       340
    60.9000       352
    60.9200       374
    60.9400       376
    60.9600       384
    60.9800       412
    61.0000       440
    61.0200       470
    61.0400       512
    61.0600       528
    61.0800       574
    61.1000       490
    61.1200       486
    61.1400       472
    61.1600       478
    61.1800       470
    61.2000       466
    61.2200       494
    61.2400       520
    61.2600       466
    61.2800       500
    61.3000       464
    61.3200       470
    61.3400       470
    61.3600       462
    61.3800       494
    61.4000       494
    61.4200       534
    61.4400       546
    61.4600       556
    61.4800       544
    61.5000       502
    61.5200       602
    61.5400       480
    61.5600       500
    61.5800       504
    61.6000       486
    61.6200       490
    61.6400       494
    61.6600       520
    61.6800       472
    61.7000       492
    61.7200       480
    61.7400       484
    61.7600       464
    61.7800       464
    61.8000       472
    61.8200       498
    61.8400       486
    61.8600       472
    61.8800       484
    61.9000       496
    61.9200       550
    61.9400       542
    61.9600       524
    61.9800       550
    62.0000       534
    62.0200       536
    62.0400       540
    62.0600       606
    62.0800       640
    62.1000       570
    62.1200       556
    62.1400       568
    62.1600       538
    62.1800       514
    62.2000       524
    62.2200       536
    62.2400       548
    62.2600       558
    62.2800       482
    62.3000       516
    62.3200       442
    62.3400       508
    62.3600       478
    62.3800       432
    62.4000       450
    62.4200       412
    62.4400       424
    62.4600       400
    62.4800       376
    62.5000       322
    62.5200       330
    62.5400       330
    62.5600       306
    62.5800       310
    62.6000       266
    62.6200       268
    62.6400       266
    62.6600       264
    62.6800       270
    62.7000       228
    62.7200       274
    62.7400       248
    62.7600       258
    62.7800       246
    62.8000       226
    62.8200       232
    62.8400       236
    62.8600       254
    62.8800       196
    62.9000       230
    62.9200       216
    62.9400       216
    62.9600       204
    62.9800       238
    63.0000       196
    63.0200       200
    63.0400       206
    63.0600       192
    63.0800       184
    63.1000       212
    63.1200       190
    63.1400       212
    63.1600       258
    63.1800       190
    63.2000       178
    63.2200       212
    63.2400       196
    63.2600       208
    63.2800       236
    63.3000       234
    63.3200       222
    63.3400       198
    63.3600       208
    63.3800       230
    63.4000       232
    63.4200       204
    63.4400       236
    63.4600       236
    63.4800       258
    63.5000       230
    63.5200       200
    63.5400       258
    63.5600       240
    63.5800       286
    63.6000       252
    63.6200       286
    63.6400       284
    63.6600       316
    63.6800       340
    63.7000       358
    63.7200       386
    63.7400       398
    63.7600       440
    63.7800       458
    63.8000       482
    63.8200       444
    63.8400       474
    63.8600       418
    63.8800       440
    63.9000       438
    63.9200       426
    63.9400       420
    63.9600       398
    63.9800       390
    64.0000       374
    64.0200       372
    64.0400       320
    64.0600       314
    64.0800       284
    64.1000       298
    64.1200       250
    64.1400       264
    64.1600       238
    64.1800       264
    64.2000       226
    64.2200       232
    64.2400       222
    64.2600       222
    64.2800       232
    64.3000       238
    64.3200       210
    64.3400       232
    64.3600       202
    64.3800       226
    64.4000       240
    64.4200       220
    64.4400       186
    64.4600       174
    64.4800       174
    64.5000       216
    64.5200       190
    64.5400       200
    64.5600       196
    64.5800       186
    64.6000       220
    64.6200       204
    64.6400       228
    64.6600       234
    64.6800       224
    64.7000       210
    64.7200       222
    64.7400       200
    64.7600       190
    64.7800       224
    64.8000       180
    64.8200       212
    64.8400       234
    64.8600       222
    64.8800       200
    64.9000       226
    64.9200       242
    64.9400       188
    64.9600       262
    64.9800       256
    65.0000       276
    65.0200       274
    65.0400       282
    65.0600       284
    65.0800       296
    65.1000       298
    65.1200       330
    65.1400       352
    65.1600       364
    65.1800       390
    65.2000       372
    65.2200       414
    65.2400       414
    65.2600       444
    65.2800       428
    65.3000       400
    65.3200       422
    65.3400       410
    65.3600       382
    65.3800       392
    65.4000       372
    65.4200       372
    65.4400       356
    65.4600       318
    65.4800       356
    65.5000       348
    65.5200       318
    65.5400       298
    65.5600       286
    65.5800       294
    65.6000       282
    65.6200       250
    65.6400       246
    65.6600       248
    65.6800       230
    65.7000       230
    65.7200       216
    65.7400       224
    65.7600       250
    65.7800       192
    65.8000       210
    65.8200       206
    65.8400       222
    65.8600       206
    65.8800       212
    65.9000       200
    65.9200       206
    65.9400       194
    65.9600       200
    65.9800       202
    66.0000       206
    66.0200       184
    66.0400       202
    66.0600       238
    66.0800       216
    66.1000       238
    66.1200       214
    66.1400       220
    66.1600       242
    66.1800       246
    66.2000       238
    66.2200       216
    66.2400       230
    66.2600       222
    66.2800       224
    66.3000       224
    66.3200       258
    66.3400       238
    66.3600       256
    66.3800       272
    66.4000       290
    66.4200       272
    66.4400       272
    66.4600       282
    66.4800       316
    66.5000       278
    66.5200       302
    66.5400       288
    66.5600       346
    66.5800       344
    66.6000       388
    66.6200       388
    66.6400       376
    66.6600       474
    66.6800       408
    66.7000       448
    66.7200       496
    66.7400       482
    66.7600       536
    66.7800       556
    66.8000       602
    66.8200       546
    66.8400       574
    66.8600       606
    66.8800       598
    66.9000       606
    66.9200       528
    66.9400       544
    66.9600       526
    66.9800       534
    67.0000       524
    67.0200       528
    67.0400       512
    67.0600       438
    67.0800       436
    67.1000       450
    67.1200       442
    67.1400       394
    67.1600       382
    67.1800       366
    67.2000       338
    67.2200       332
    67.2400       360
    67.2600       340
    67.2800       338
    67.3000       324
    67.3200       372
    67.3400       310
    67.3600       336
    67.3800       356
    67.4000       322
    67.4200       312
    67.4400       300
    67.4600       330
    67.4800       332
    67.5000       274
    67.5200       310
    67.5400       340
    67.5600       362
    67.5800       336
    67.6000       400
    67.6200       346
    67.6400       356
    67.6600       342
    67.6800       408
    67.7000       402
    67.7200       380
    67.7400       474
    67.7600       452
    67.7800       488
    67.8000       512
    67.8200       484
    67.8400       564
    67.8600       560
    67.8800       578
    67.9000       636
    67.9200       704
    67.9400       748
    67.9600       822
    67.9800       918
    68.0000       894
    68.0200      1044
    68.0400      1110
    68.0600      1198
    68.0800      1270
    68.1000      1170
    68.1200      1258
    68.1400      1270
    68.1600      1284
    68.1800      1292
    68.2000      1292
    68.2200      1376
    68.2400      1238
    68.2600      1286
    68.2800      1224
    68.3000      1164
    68.3200      1128
    68.3400      1052
    68.3600      1012
    68.3800      1012
    68.4000       980
    68.4200       970
    68.4400       926
    68.4600       910
    68.4800       830
    68.5000       854
    68.5200       856
    68.5400       840
    68.5600       808
    68.5800       898
    68.6000       894
    68.6200       918
    68.6400       876
    68.6600       928
    68.6800       838
    68.7000       830
    68.7200       792
    68.7400       714
    68.7600       728
    68.7800       696
    68.8000       648
    68.8200       668
    68.8400       686
    68.8600       674
    68.8800       582
    68.9000       580
    68.9200       562
    68.9400       480
    68.9600       496
    68.9800       436
    69.0000       464
    69.0200       448
    69.0400       424
    69.0600       432
    69.0800       432
    69.1000       404
    69.1200       422
    69.1400       444
    69.1600       402
    69.1800       420
    69.2000       472
    69.2200       446
    69.2400       454
    69.2600       496
    69.2800       504
    69.3000       554
    69.3200       568
    69.3400       548
    69.3600       614
    69.3800       592
    69.4000       590
    69.4200       600
    69.4400       530
    69.4600       534
    69.4800       546
    69.5000       518
    69.5200       490
    69.5400       464
    69.5600       446
    69.5800       454
    69.6000       440
    69.6200       424
    69.6400       376
    69.6600       376
    69.6800       360
    69.7000       336
    69.7200       348
    69.7400       342
    69.7600       274
    69.7800       274
    69.8000       312
    69.8200       300
    69.8400       290
    69.8600       254
    69.8800       228
    69.9000       256
    69.9200       258
    69.9400       252
    69.9600       270
    69.9800       276
    70.0000       256
    70.0200       252
    70.0400       260
    70.0600       248
    70.0800       238
    70.1000       240
    70.1200       238
    70.1400       220
    70.1600       240
    70.1800       276
    70.2000       256
    70.2200       252
    70.2400       250
    70.2600       242
    70.2800       274
    70.3000       262
    70.3200       260
    70.3400       242
    70.3600       280
    70.3800       282
    70.4000       264
    70.4200       276
    70.4400       292
    70.4600       272
    70.4800       268
    70.5000       294
    70.5200       250
    70.5400       270
    70.5600       298
    70.5800       256
    70.6000       282
    70.6200       264
    70.6400       266
    70.6600       242
    70.6800       268
    70.7000       264
    70.7200       258
    70.7400       236
    70.7600       238
    70.7800       280
    70.8000       254
    70.8200       220
    70.8400       256
    70.8600       236
    70.8800       246
    70.9000       222
    70.9200       270
    70.9400       292
    70.9600       258
    70.9800       238
    71.0000       262
    71.0200       280
    71.0400       258
    71.0600       256
    71.0800       284
    71.1000       296
    71.1200       274
    71.1400       322
    71.1600       302
    71.1800       336
    71.2000       332
    71.2200       356
    71.2400       364
    71.2600       398
    71.2800       444
    71.3000       462
    71.3200       424
    71.3400       490
    71.3600       544
    71.3800       518
    71.4000       594
    71.4200       650
    71.4400       628
    71.4600       688
    71.4800       654
    71.5000       624
    71.5200       680
    71.5400       666
    71.5600       644
    71.5800       604
    71.6000       646
    71.6200       608
    71.6400       652
    71.6600       670
    71.6800       672
    71.7000       652
    71.7200       574
    71.7400       596
    71.7600       546
    71.7800       582
    71.8000       560
    71.8200       536
    71.8400       490
    71.8600       520
    71.8800       530
    71.9000       532
    71.9200       548
    71.9400       488
    71.9600       496
    71.9800       456
    72.0000       446
    72.0200       452
    72.0400       496
    72.0600       470
    72.0800       448
    72.1000       484
    72.1200       456
    72.1400       470
    72.1600       496
    72.1800       486
    72.2000       538
    72.2200       502
    72.2400       510
    72.2600       536
    72.2800       502
    72.3000       436
    72.3200       500
    72.3400       482
    72.3600       430
    72.3800       470
    72.4000       466
    72.4200       382
    72.4400       428
    72.4600       384
    72.4800       370
    72.5000       388
    72.5200       358
    72.5400       382
    72.5600       350
    72.5800       336
    72.6000       320
    72.6200       312
    72.6400       284
    72.6600       304
    72.6800       290
    72.7000       258
    72.7200       286
    72.7400       292
    72.7600       272
    72.7800       294
    72.8000       308
    72.8200       250
    72.8400       270
    72.8600       294
    72.8800       282
    72.9000       296
    72.9200       278
    72.9400       282
    72.9600       248
    72.9800       250
    73.0000       266
    73.0200       278
    73.0400       246
    73.0600       238
    73.0800       206
    73.1000       206
    73.1200       246
    73.1400       222
    73.1600       208
    73.1800       198
    73.2000       198
    73.2200       202
    73.2400       216
    73.2600       202
    73.2800       220
    73.3000       214
    73.3200       202
    73.3400       188
    73.3600       214
    73.3800       178
    73.4000       170
    73.4200       160
    73.4400       184
    73.4600       184
    73.4800       174
    73.5000       186
    73.5200       202
    73.5400       206
    73.5600       186
    73.5800       174
    73.6000       204
    73.6200       184
    73.6400       194
    73.6600       176
    73.6800       174
    73.7000       176
    73.7200       208
    73.7400       206
    73.7600       180
    73.7800       200
    73.8000       194
    73.8200       184
    73.8400       196
    73.8600       182
    73.8800       224
    73.9000       224
    73.9200       234
    73.9400       212
    73.9600       222
    73.9800       270
    74.0000       246
    74.0200       232
    74.0400       260
    74.0600       274
    74.0800       264
    74.1000       266
    74.1200       262
    74.1400       240
    74.1600       282
    74.1800       266
    74.2000       242
    74.2200       218
    74.2400       240
    74.2600       244
    74.2800       218
    74.3000       234
    74.3200       222
    74.3400       216
    74.3600       220
    74.3800       212
    74.4000       224
    74.4200       210
    74.4400       224
    74.4600       196
    74.4800       206
    74.5000       180
    74.5200       200
    74.5400       198
    74.5600       164
    74.5800       202
    74.6000       178
    74.6200       200
    74.6400       198
    74.6600       160
    74.6800       150
    74.7000       180
    74.7200       202
    74.7400       172
    74.7600       166
    74.7800       142
    74.8000       200
    74.8200       164
    74.8400       180
    74.8600       190
    74.8800       142
    74.9000       160
    74.9200       188
    74.9400       168
    74.9600       184
    74.9800       184
    75.0000       172
    75.0200       166
    75.0400       176
    75.0600       174
    75.0800       196
    75.1000       180
    75.1200       188
    75.1400       186
    75.1600       196
    75.1800       190
    75.2000       192
    75.2200       202
    75.2400       200
    75.2600       186
    75.2800       212
    75.3000       190
    75.3200       226
    75.3400       208
    75.3600       232
    75.3800       218
    75.4000       262
    75.4200       204
    75.4400       228
    75.4600       258
    75.4800       242
    75.5000       250
    75.5200       300
    75.5400       288
    75.5600       300
    75.5800       342
    75.6000       314
    75.6200       302
    75.6400       326
    75.6600       358
    75.6800       382
    75.7000       426
    75.7200       432
    75.7400       470
    75.7600       532
    75.7800       486
    75.8000       550
    75.8200       534
    75.8400       550
    75.8600       556
    75.8800       520
    75.9000       484
    75.9200       508
    75.9400       452
    75.9600       466
    75.9800       460
    76.0000       462
    76.0200       474
    76.0400       454
    76.0600       436
    76.0800       484
    76.1000       434
    76.1200       394
    76.1400       416
    76.1600       408
    76.1800       376
    76.2000       374
    76.2200       362
    76.2400       376
    76.2600       324
    76.2800       358
    76.3000       368
    76.3200       352
    76.3400       330
    76.3600       356
    76.3800       360
    76.4000       304
    76.4200       366
    76.4400       344
    76.4600       334
    76.4800       328
    76.5000       354
    76.5200       342
    76.5400       360
    76.5600       424
    76.5800       410
    76.6000       408
    76.6200       410
    76.6400       428
    76.6600       378
    76.6800       370
    76.7000       354
    76.7200       384
    76.7400       356
    76.7600       322
    76.7800       384
    76.8000       348
    76.8200       336
    76.8400       350
    76.8600       296
    76.8800       342
    76.9000       352
    76.9200       290
    76.9400       284
    76.9600       320
    76.9800       326
    77.0000       326
    77.0200       320
    77.0400       330
    77.0600       314
    77.0800       316
    77.1000       310
    77.1200       288
    77.1400       358
    77.1600       332
    77.1800       334
    77.2000       384
    77.2200       386
    77.2400       378
    77.2600       376
    77.2800       410
    77.3000       404
    77.3200       464
    77.3400       468
    77.3600       470
    77.3800       524
    77.4000       560
    77.4200       594
    77.4400       608
    77.4600       728
    77.4800       734
    77.5000       820
    77.5200       816
    77.5400       908
    77.5600       932
    77.5800       920
    77.6000       946
    77.6200       938
    77.6400       890
    77.6600       886
    77.6800       892
    77.7000       824
    77.7200       824
    77.7400       832
    77.7600       810
    77.7800       714
    77.8000       758
    77.8200       700
    77.8400       694
    77.8600       670
    77.8800       642
    77.9000       584
    77.9200       616
    77.9400       562
    77.9600       528
    77.9800       528
    78.0000       432
    78.0200       490
    78.0400       448
    78.0600       390
    78.0800       374
    78.1000       418
    78.1200       410
    78.1400       390
    78.1600       366
    78.1800       372
    78.2000       370
    78.2200       356
    78.2400       362
    78.2600       364
    78.2800       350
    78.3000       382
    78.3200       356
    78.3400       346
    78.3600       356
    78.3800       370
    78.4000       388
    78.4200       372
    78.4400       412
    78.4600       398
    78.4800       422
    78.5000       380
    78.5200       440
    78.5400       426
    78.5600       450
    78.5800       400
    78.6000       432
    78.6200       408
    78.6400       426
    78.6600       416
    78.6800       422
    78.7000       420
    78.7200       442
    78.7400       390
    78.7600       370
    78.7800       364
    78.8000       350
    78.8200       318
    78.8400       360
    78.8600       356
    78.8800       358
    78.9000       320
    78.9200       280
    78.9400       280
    78.9600       308
    78.9800       274
    79.0000       284
    79.0200       284
    79.0400       220
    79.0600       228
    79.0800       224
    79.1000       246
    79.1200       226
    79.1400       228
    79.1600       246
    79.1800       236
    79.2000       198
    79.2200       218
    79.2400       220
    79.2600       204
    79.2800       242
    79.3000       176
    79.3200       230
    79.3400       186
    79.3600       212
    79.3800       212
    79.4000       204
    79.4200       202
    79.4400       232
    79.4600       196
    79.4800       216
    79.5000       220
    79.5200       214
    79.5400       240
    79.5600       260
    79.5800       248
    79.6000       240
    79.6200       244
    79.6400       266
    79.6600       228
    79.6800       256
    79.7000       242
    79.7200       244
    79.7400       250
    79.7600       246
    79.7800       228
    79.8000       208
    79.8200       242
    79.8400       232
    79.8600       248
    79.8800       230
    79.9000       222
    79.9200       242
    79.9400       238
    79.9600       216
    79.9800       226
    80.0000       224
    80.0200       208
    80.0400       220
    80.0600       208
    80.0800       224
    80.1000       216
    80.1200       218
    80.1400       226
    80.1600       236
    80.1800       198
    80.2000       212
    80.2200       206
    80.2400       222
    80.2600       192
    80.2800       198
    80.3000       234
    80.3200       238
    80.3400       210
    80.3600       208
    80.3800       228
    80.4000       196
    80.4200       188
    80.4400       202
    80.4600       198
    80.4800       204
    80.5000       166
    80.5200       176
    80.5400       182
    80.5600       168
    80.5800       186
    80.6000       178
    80.6200       178
    80.6400       186
    80.6600       182
    80.6800       166
    80.7000       186
    80.7200       190
    80.7400       178
    80.7600       170
    80.7800       196
    80.8000       202
    80.8200       174
    80.8400       198
    80.8600       174
    80.8800       206
    80.9000       186
    80.9200       202
    80.9400       190
    80.9600       178
    80.9800       164
    81.0000       198
    81.0200       196
    81.0400       198
    81.0600       192
    81.0800       220
    81.1000       200
    81.1200       212
    81.1400       216
    81.1600       202
    81.1800       222
    81.2000       246
    81.2200       226
    81.2400       240
    81.2600       230
    81.2800       216
    81.3000       254
    81.3200       238
    81.3400       250
    81.3600       260
    81.3800       244
    81.4000       238
    81.4200       242
    81.4400       196
    81.4600       262
    81.4800       216
    81.5000       224
    81.5200       236
    81.5400       240
    81.5600       220
    81.5800       246
    81.6000       228
    81.6200       240
    81.6400       210
    81.6600       228
    81.6800       222
    81.7000       230
    81.7200       230
    81.7400       212
    81.7600       230
    81.7800       232
    81.8000       226
    81.8200       202
    81.8400       240
    81.8600       236
    81.8800       222
    81.9000       236
    81.9200       266
    81.9400       246
    81.9600       256
    81.9800       272
    82.0000       246
    82.0200       256
    82.0400       258
    82.0600       296
    82.0800       234
    82.1000       240
    82.1200       280
    82.1400       292
    82.1600       266
    82.1800       274
    82.2000       320
    82.2200       282
    82.2400       302
    82.2600       292
    82.2800       298
    82.3000       306
    82.3200       294
    82.3400       324
    82.3600       284
    82.3800       304
    82.4000       300
    82.4200       294
    82.4400       342
    82.4600       334
    82.4800       356
    82.5000       298
    82.5200       308
    82.5400       312
    82.5600       362
    82.5800       368
    82.6000       312
    82.6200       360
    82.6400       348
    82.6600       362
    82.6800       408
    82.7000       358
    82.7200       388
    82.7400       374
    82.7600       408
    82.7800       388
    82.8000       390
    82.8200       348
    82.8400       356
    82.8600       352
    82.8800       348
    82.9000       336
    82.9200       374
    82.9400       372
    82.9600       392
    82.9800       346
    83.0000       386
    83.0200       366
    83.0400       346
    83.0600       364
    83.0800       384
    83.1000       348
    83.1200       410
    83.1400       350
    83.1600       348
    83.1800       366
    83.2000       374
    83.2200       338
    83.2400       396
    83.2600       412
    83.2800       398
    83.3000       400
    83.3200       362
    83.3400       344
    83.3600       388
    83.3800       364
    83.4000       366
    83.4200       366
    83.4400       318
    83.4600       336
    83.4800       348
    83.5000       340
    83.5200       338
    83.5400       348
    83.5600       326
    83.5800       290
    83.6000       310
    83.6200       292
    83.6400       304
    83.6600       294
    83.6800       280
    83.7000       284
    83.7200       274
    83.7400       284
    83.7600       280
    83.7800       258
    83.8000       274
    83.8200       266
    83.8400       270
    83.8600       276
    83.8800       266
    83.9000       268
    83.9200       270
    83.9400       258
    83.9600       258
    83.9800       270
    84.0000       254
    84.0200       256
    84.0400       264
    84.0600       268
    84.0800       232
    84.1000       278
    84.1200       234
    84.1400       244
    84.1600       232
    84.1800       216
    84.2000       212
    84.2200       218
    84.2400       252
    84.2600       244
    84.2800       232
    84.3000       244
    84.3200       196
    84.3400       200
    84.3600       216
    84.3800       224
    84.4000       214
    84.4200       204
    84.4400       190
    84.4600       208
    84.4800       194
    84.5000       196
    84.5200       210
    84.5400       182
    84.5600       184
    84.5800       170
    84.6000       210
    84.6200       198
    84.6400       174
    84.6600       192
    84.6800       166
    84.7000       188
    84.7200       202
    84.7400       190
    84.7600       208
    84.7800       186
    84.8000       196
    84.8200       192
    84.8400       196
    84.8600       196
    84.8800       196
    84.9000       168
    84.9200       164
    84.9400       182
    84.9600       182
    84.9800       184
    85.0000       192
    85.0200       184
    85.0400       190
    85.0600       190
    85.0800       188
    85.1000       194
    85.1200       164
    85.1400       160
    85.1600       182
    85.1800       182
    85.2000       182
    85.2200       198
    85.2400       176
    85.2600       256
    85.2800       220
    85.3000       216
    85.3200       238
    85.3400       204
    85.3600       230
    85.3800       222
    85.4000       240
    85.4200       200
    85.4400       238
    85.4600       260
    85.4800       256
    85.5000       274
    85.5200       234
    85.5400       280
    85.5600       240
    85.5800       258
    85.6000       258
    85.6200       234
    85.6400       230
    85.6600       220
    85.6800       246
    85.7000       202
    85.7200       244
    85.7400       242
    85.7600       216
    85.7800       228
    85.8000       204
    85.8200       220
    85.8400       206
    85.8600       226
    85.8800       186
    85.9000       186
    85.9200       182
    85.9400       184
    85.9600       188
    85.9800       202
    86.0000       190
    86.0200       196
    86.0400       182
    86.0600       188
    86.0800       172
    86.1000       196
    86.1200       178
    86.1400       194
    86.1600       186
    86.1800       178
    86.2000       180
    86.2200       202
    86.2400       178
    86.2600       196
    86.2800       226
    86.3000       224
    86.3200       212
    86.3400       170
    86.3600       194
    86.3800       234
    86.4000       188
    86.4200       220
    86.4400       222
    86.4600       212
    86.4800       224
    86.5000       218
    86.5200       208
    86.5400       268
    86.5600       246
    86.5800       234
    86.6000       284
    86.6200       240
    86.6400       248
    86.6600       268
    86.6800       294
    86.7000       278
    86.7200       298
    86.7400       304
    86.7600       344
    86.7800       344
    86.8000       346
    86.8200       370
    86.8400       392
    86.8600       378
    86.8800       406
    86.9000       384
    86.9200       430
    86.9400       450
    86.9600       442
    86.9800       438
    87.0000       442
    87.0200       444
    87.0400       436
    87.0600       488
    87.0800       466
    87.1000       480
    87.1200       522
    87.1400       550
    87.1600       606
    87.1800       550
    87.2000       620
    87.2200       658
    87.2400       616
    87.2600       692
    87.2800       696
    87.3000       732
    87.3200       814
    87.3400       798
    87.3600       808
    87.3800       840
    87.4000       738
    87.4200       798
    87.4400       716
    87.4600       746
    87.4800       688
    87.5000       720
    87.5200       628
    87.5400       650
    87.5600       680
    87.5800       692
    87.6000       648
    87.6200       666
    87.6400       664
    87.6600       666
    87.6800       582
    87.7000       646
    87.7200       624
    87.7400       552
    87.7600       522
    87.7800       506
    87.8000       552
    87.8200       514
    87.8400       462
    87.8600       456
    87.8800       442
    87.9000       402
    87.9200       440
    87.9400       444
    87.9600       448
    87.9800       420
    88.0000       430
    88.0200       382
    88.0400       370
    88.0600       354
    88.0800       358
    88.1000       362
    88.1200       356
    88.1400       320
    88.1600       314
    88.1800       296
    88.2000       292
    88.2200       318
    88.2400       276
    88.2600       274
    88.2800       274
    88.3000       316
    88.3200       292
    88.3400       254
    88.3600       252
    88.3800       266
    88.4000       266
    88.4200       280
    88.4400       272
    88.4600       242
    88.4800       246
    88.5000       254
    88.5200       264
    88.5400       238
    88.5600       272
    88.5800       270
    88.6000       242
    88.6200       224
    88.6400       244
    88.6600       238
    88.6800       272
    88.7000       246
    88.7200       236
    88.7400       240
    88.7600       230
    88.7800       234
    88.8000       268
    88.8200       250
    88.8400       256
    88.8600       210
    88.8800       240
    88.9000       228
    88.9200       252
    88.9400       244
    88.9600       220
    88.9800       196
    89.0000       226
    89.0200       256
    89.0400       244
    89.0600       192
    89.0800       224
    89.1000       220
    89.1200       234
    89.1400       196
    89.1600       206
    89.1800       222
    89.2000       218
    89.2200       200
    89.2400       212
    89.2600       232
    89.2800       210
    89.3000       244
    89.3200       252
    89.3400       228
    89.3600       224
    89.3800       250
    89.4000       268
    89.4200       248
    89.4400       258
    89.4600       266
    89.4800       224
    89.5000       264
    89.5200       242
    89.5400       266
    89.5600       250
    89.5800       262
    89.6000       258
    89.6200       250
    89.6400       252
    89.6600       268
    89.6800       228
    89.7000       268
    89.7200       242
    89.7400       260
    89.7600       264
    89.7800       286
    89.8000       290
    89.8200       274
    89.8400       254
    89.8600       254
    89.8800       280
    89.9000       270
    89.9200       276
    89.9400       276
    89.9600       288
    89.9800       292
    90.0000       286
