    10.0000       350
    10.0200       340
    10.0400       348
    10.0600       362
    10.0800       388
    10.1000       334
    10.1200       354
    10.1400       332
    10.1600       320
    10.1800       340
    10.2000       350
    10.2200       348
    10.2400       358
    10.2600       340
    10.2800       350
    10.3000       348
    10.3200       334
    10.3400       352
    10.3600       352
    10.3800       344
    10.4000       326
    10.4200       332
    10.4400       342
    10.4600       342
    10.4800       350
    10.5000       314
    10.5200       326
    10.5400       316
    10.5600       324
    10.5800       352
    10.6000       304
    10.6200       342
    10.6400       314
    10.6600       330
    10.6800       306
    10.7000       310
    10.7200       344
    10.7400       350
    10.7600       324
    10.7800       318
    10.8000       310
    10.8200       318
    10.8400       278
    10.8600       278
    10.8800       354
    10.9000       356
    10.9200       306
    10.9400       334
    10.9600       342
    10.9800       324
    11.0000       336
    11.0200       322
    11.0400       334
    11.0600       360
    11.0800       306
    11.1000       334
    11.1200       326
    11.1400       272
    11.1600       284
    11.1800       326
    11.2000       316
    11.2200       334
    11.2400       312
    11.2600       290
    11.2800       342
    11.3000       316
    11.3200       282
    11.3400       308
    11.3600       312
    11.3800       300
    11.4000       302
    11.4200       292
    11.4400       340
    11.4600       302
    11.4800       300
    11.5000       314
    11.5200       294
    11.5400       290
    11.5600       314
    11.5800       298
    11.6000       306
    11.6200       306
    11.6400       300
    11.6600       280
    11.6800       312
    11.7000       298
    11.7200       276
    11.7400       272
    11.7600       280
    11.7800       284
    11.8000       284
    11.8200       302
    11.8400       288
    11.8600       266
    11.8800       280
    11.9000       292
    11.9200       270
    11.9400       292
    11.9600       256
    11.9800       310
    12.0000       290
    12.0200       312
    12.0400       296
    12.0600       290
    12.0800       256
    12.1000       290
    12.1200       292
    12.1400       262
    12.1600       232
    12.1800       300
    12.2000       256
    12.2200       272
    12.2400       258
    12.2600       278
    12.2800       310
    12.3000       270
    12.3200       274
    12.3400       276
    12.3600       272
    12.3800       298
    12.4000       262
    12.4200       282
    12.4400       272
    12.4600       276
    12.4800       266
    12.5000       280
    12.5200       286
    12.5400       290
    12.5600       260
    12.5800       264
    12.6000       290
    12.6200       278
    12.6400       262
    12.6600       280
    12.6800       266
    12.7000       266
    12.7200       288
    12.7400       274
    12.7600       242
    12.7800       264
    12.8000       248
    12.8200       270
    12.8400       250
    12.8600       268
    12.8800       288
    12.9000       212
    12.9200       268
    12.9400       270
    12.9600       240
    12.9800       278
    13.0000       258
    13.0200       270
    13.0400       256
    13.0600       282
    13.0800       272
    13.1000       256
    13.1200       234
    13.1400       302
    13.1600       252
    13.1800       268
    13.2000       242
    13.2200       264
    13.2400       238
    13.2600       238
    13.2800       266
    13.3000       254
    13.3200       270
    13.3400       250
    13.3600       236
    13.3800       234
    13.4000       230
    13.4200       236
    13.4400       228
    13.4600       242
    13.4800       264
    13.5000       230
    13.5200       226
    13.5400       252
    13.5600       270
    13.5800       238
    13.6000       230
    13.6200       256
    13.6400       244
    13.6600       246
    13.6800       234
    13.7000       242
    13.7200       228
    13.7400       252
    13.7600       278
    13.7800       256
    13.8000       222
    13.8200       244
    13.8400       248
    13.8600       244
    13.8800       222
    13.9000       252
    13.9200       248
    13.9400       254
    13.9600       214
    13.9800       234
    14.0000       244
    14.0200       230
    14.0400       218
    14.0600       262
    14.0800       228
    14.1000       218
    14.1200       246
    14.1400       246
    14.1600       220
    14.1800       244
    14.2000       264
    14.2200       240
    14.2400       252
    14.2600       230
    14.2800       214
    14.3000       220
    14.3200       242
    14.3400       228
    14.3600       240
    14.3800       224
    14.4000       238
    14.4200       248
    14.4400       256
    14.4600       224
    14.4800       216
    14.5000       208
    14.5200       228
    14.5400       224
    14.5600       202
    14.5800       228
    14.6000       238
    14.6200       230
    14.6400       212
    14.6600       238
    14.6800       224
    14.7000       230
    14.7200       202
    14.7400       230
    14.7600       188
    14.7800       234
    14.8000       220
    14.8200       226
    14.8400       218
    14.8600       200
    14.8800       202
    14.9000       224
    14.9200       222
    14.9400       226
    14.9600       212
    14.9800       224
    15.0000       224
    15.0200       216
    15.0400       204
    15.0600       226
    15.0800       208
    15.1000       212
    15.1200       230
    15.1400       216
    15.1600       202
    15.1800       232
    15.2000       178
    15.2200       194
    15.2400       266
    15.2600       230
    15.2800       190
    15.3000       200
    15.3200       250
    15.3400       192
    15.3600       230
    15.3800       186
    15.4000       200
    15.4200       240
    15.4400       210
    15.4600       204
    15.4800       218
    15.5000       182
    15.5200       214
    15.5400       230
    15.5600       238
    15.5800       200
    15.6000       212
    15.6200       202
    15.6400       188
    15.6600       206
    15.6800       222
    15.7000       210
    15.7200       210
    15.7400       208
    15.7600       222
    15.7800       218
    15.8000       228
    15.8200       218
    15.8400       222
    15.8600       244
    15.8800       196
    15.9000       208
    15.9200       192
    15.9400       212
    15.9600       216
    15.9800       214
    16.0000       216
    16.0200       230
    16.0400       200
    16.0600       212
    16.0800       214
    16.1000       184
    16.1200       216
    16.1400       204
    16.1600       236
    16.1800       260
    16.2000       200
    16.2200       224
    16.2400       226
    16.2600       240
    16.2800       212
    16.3000       208
    16.3200       212
    16.3400       200
    16.3600       210
    16.3800       196
    16.4000       216
    16.4200       222
    16.4400       224
    16.4600       214
    16.4800       224
    16.5000       224
    16.5200       192
    16.5400       226
    16.5600       214
    16.5800       208
    16.6000       190
    16.6200       196
    16.6400       188
    16.6600       200
    16.6800       190
    16.7000       202
    16.7200       198
    16.7400       198
    16.7600       194
    16.7800       212
    16.8000       184
    16.8200       222
    16.8400       194
    16.8600       178
    16.8800       196
    16.9000       180
    16.9200       196
    16.9400       206
    16.9600       204
    16.9800       180
    17.0000       212
    17.0200       178
    17.0400       180
    17.0600       198
    17.0800       220
    17.1000       184
    17.1200       170
    17.1400       194
    17.1600       156
    17.1800       196
    17.2000       196
    17.2200       184
    17.2400       194
    17.2600       184
    17.2800       206
    17.3000       178
    17.3200       184
    17.3400       194
    17.3600       192
    17.3800       178
    17.4000       184
    17.4200       196
    17.4400       196
    17.4600       190
    17.4800       184
    17.5000       188
    17.5200       198
    17.5400       186
    17.5600       168
    17.5800       162
    17.6000       208
    17.6200       190
    17.6400       200
    17.6600       206
    17.6800       196
    17.7000       190
    17.7200       200
    17.7400       192
    17.7600       192
    17.7800       210
    17.8000       192
    17.8200       186
    17.8400       194
    17.8600       200
    17.8800       198
    17.9000       178
    17.9200       210
    17.9400       208
    17.9600       198
    17.9800       182
    18.0000       212
    18.0200       186
    18.0400       194
    18.0600       194
    18.0800       196
    18.1000       184
    18.1200       190
    18.1400       212
    18.1600       188
    18.1800       206
    18.2000       216
    18.2200       214
    18.2400       176
    18.2600       184
    18.2800       200
    18.3000       182
    18.3200       198
    18.3400       186
    18.3600       196
    18.3800       192
    18.4000       182
    18.4200       212
    18.4400       190
    18.4600       188
    18.4800       200
    18.5000       226
    18.5200       200
    18.5400       212
    18.5600       198
    18.5800       204
    18.6000       200
    18.6200       206
    18.6400       198
    18.6600       200
    18.6800       194
    18.7000       194
    18.7200       234
    18.7400       244
    18.7600       228
    18.7800       212
    18.8000       248
    18.8200       248
    18.8400       242
    18.8600       238
    18.8800       272
    18.9000       218
    18.9200       302
    18.9400       266
    18.9600       292
    18.9800       304
    19.0000       320
    19.0200       330
    19.0400       326
    19.0600       366
    19.0800       348
    19.1000       392
    19.1200       450
    19.1400       474
    19.1600       538
    19.1800       528
    19.2000       618
    19.2200       670
    19.2400       826
    19.2600       822
    19.2800       958
    19.3000      1034
    19.3200      1144
    19.3400      1328
    19.3600      1566
    19.3800      1730
    19.4000      2094
    19.4200      2448
    19.4400      2808
    19.4600      3214
    19.4800      3728
    19.5000      4122
    19.5200      4386
    19.5400      4418
    19.5600      4150
    19.5800      3624
    19.6000      2972
    19.6200      2454
    19.6400      1944
    19.6600      1692
    19.6800      1416
    19.7000      1336
    19.7200      1256
    19.7400      1298
    19.7600      1320
    19.7800      1430
    19.8000      1506
    19.8200      1644
    19.8400      1854
    19.8600      2082
    19.8800      2220
    19.9000      2566
    19.9200      2800
    19.9400      3054
    19.9600      3282
    19.9800      3260
    20.0000      3156
    20.0200      2814
    20.0400      2436
    20.0600      1976
    20.0800      1622
    20.1000      1256
    20.1200      1042
    20.1400       778
    20.1600       626
    20.1800       614
    20.2000       468
    20.2200       432
    20.2400       368
    20.2600       382
    20.2800       384
    20.3000       342
    20.3200       330
    20.3400       270
    20.3600       272
    20.3800       264
    20.4000       248
    20.4200       238
    20.4400       228
    20.4600       238
    20.4800       250
    20.5000       214
    20.5200       198
    20.5400       216
    20.5600       202
    20.5800       214
    20.6000       226
    20.6200       230
    20.6400       206
    20.6600       176
    20.6800       192
    20.7000       202
    20.7200       184
    20.7400       170
    20.7600       198
    20.7800       208
    20.8000       162
    20.8200       178
    20.8400       198
    20.8600       178
    20.8800       188
    20.9000       204
    20.9200       206
    20.9400       206
    20.9600       188
    20.9800       188
    21.0000       148
    21.0200       210
    21.0400       174
    21.0600       152
    21.0800       180
    21.1000       168
    21.1200       174
    21.1400       202
    21.1600       160
    21.1800       176
    21.2000       186
    21.2200       180
    21.2400       174
    21.2600       194
    21.2800       174
    21.3000       188
    21.3200       176
    21.3400       184
    21.3600       192
    21.3800       178
    21.4000       180
    21.4200       180
    21.4400       174
    21.4600       164
    21.4800       168
    21.5000       168
    21.5200       168
    21.5400       184
    21.5600       176
    21.5800       184
    21.6000       182
    21.6200       138
    21.6400       170
    21.6600       162
    21.6800       198
    21.7000       210
    21.7200       190
    21.7400       168
    21.7600       176
    21.7800       176
    21.8000       192
    21.8200       218
    21.8400       192
    21.8600       214
    21.8800       202
    21.9000       192
    21.9200       164
    21.9400       168
    21.9600       168
    21.9800       206
    22.0000       208
    22.0200       210
    22.0400       204
    22.0600       214
    22.0800       218
    22.1000       216
    22.1200       240
    22.1400       224
    22.1600       224
    22.1800       222
    22.2000       246
    22.2200       208
    22.2400       268
    22.2600       268
    22.2800       268
    22.3000       322
    22.3200       304
    22.3400       310
    22.3600       378
    22.3800       360
    22.4000       428
    22.4200       432
    22.4400       452
    22.4600       534
    22.4800       606
    22.5000       624
    22.5200       728
    22.5400       812
    22.5600       876
    22.5800      1030
    22.6000      1146
    22.6200      1282
    22.6400      1506
    22.6600      1748
    22.6800      2022
    22.7000      2426
    22.7200      2770
    22.7400      3254
    22.7600      3850
    22.7800      4406
    22.8000      5096
    22.8200      5624
    22.8400      6172
    22.8600      6076
    22.8800      5738
    22.9000      5042
    22.9200      4192
    22.9400      3260
    22.9600      2466
    22.9800      1906
    23.0000      1464
    23.0200      1200
    23.0400      1052
    23.0600       852
    23.0800       732
    23.1000       724
    23.1200       604
    23.1400       538
    23.1600       494
    23.1800       502
    23.2000       458
    23.2200       404
    23.2400       330
    23.2600       352
    23.2800       306
    23.3000       288
    23.3200       288
    23.3400       260
    23.3600       262
    23.3800       256
    23.4000       238
    23.4200       212
    23.4400       228
    23.4600       216
    23.4800       220
    23.5000       224
    23.5200       176
    23.5400       222
    23.5600       206
    23.5800       216
    23.6000       192
    23.6200       190
    23.6400       218
    23.6600       202
    23.6800       188
    23.7000       174
    23.7200       182
    23.7400       180
    23.7600       168
    23.7800       164
    23.8000       210
    23.8200       164
    23.8400       178
    23.8600       190
    23.8800       168
    23.9000       170
    23.9200       196
    23.9400       178
    23.9600       164
    23.9800       174
    24.0000       164
    24.0200       156
    24.0400       172
    24.0600       178
    24.0800       180
    24.1000       176
    24.1200       186
    24.1400       174
    24.1600       188
    24.1800       180
    24.2000       154
    24.2200       158
    24.2400       178
    24.2600       174
    24.2800       162
    24.3000       174
    24.3200       202
    24.3400       148
    24.3600       204
    24.3800       164
    24.4000       170
    24.4200       188
    24.4400       168
    24.4600       178
    24.4800       172
    24.5000       166
    24.5200       158
    24.5400       176
    24.5600       174
    24.5800       160
    24.6000       172
    24.6200       168
    24.6400       196
    24.6600       170
    24.6800       160
    24.7000       154
    24.7200       198
    24.7400       178
    24.7600       180
    24.7800       200
    24.8000       164
    24.8200       188
    24.8400       202
    24.8600       160
    24.8800       172
    24.9000       188
    24.9200       168
    24.9400       194
    24.9600       184
    24.9800       182
    25.0000       210
    25.0200       188
    25.0400       196
    25.0600       218
    25.0800       190
    25.1000       208
    25.1200       228
    25.1400       256
    25.1600       218
    25.1800       248
    25.2000       256
    25.2200       264
    25.2400       308
    25.2600       284
    25.2800       332
    25.3000       358
    25.3200       360
    25.3400       390
    25.3600       410
    25.3800       418
    25.4000       524
    25.4200       604
    25.4400       666
    25.4600       752
    25.4800       804
    25.5000       902
    25.5200      1108
    25.5400      1196
    25.5600      1280
    25.5800      1262
    25.6000      1282
    25.6200      1238
    25.6400      1138
    25.6600      1006
    25.6800       860
    25.7000       710
    25.7200       580
    25.7400       500
    25.7600       466
    25.7800       410
    25.8000       370
    25.8200       360
    25.8400       328
    25.8600       300
    25.8800       312
    25.9000       292
    25.9200       268
    25.9400       274
    25.9600       266
    25.9800       252
    26.0000       276
    26.0200       202
    26.0400       250
    26.0600       240
    26.0800       226
    26.1000       214
    26.1200       184
    26.1400       208
    26.1600       234
    26.1800       178
    26.2000       206
    26.2200       186
    26.2400       200
    26.2600       196
    26.2800       192
    26.3000       190
    26.3200       188
    26.3400       158
    26.3600       172
    26.3800       210
    26.4000       176
    26.4200       186
    26.4400       198
    26.4600       180
    26.4800       158
    26.5000       188
    26.5200       174
    26.5400       196
    26.5600       214
    26.5800       178
    26.6000       182
    26.6200       172
    26.6400       196
    26.6600       174
    26.6800       186
    26.7000       184
    26.7200       160
    26.7400       184
    26.7600       152
    26.7800       194
    26.8000       178
    26.8200       180
    26.8400       172
    26.8600       168
    26.8800       188
    26.9000       182
    26.9200       168
    26.9400       176
    26.9600       170
    26.9800       188
    27.0000       192
    27.0200       176
    27.0400       188
    27.0600       206
    27.0800       190
    27.1000       176
    27.1200       192
    27.1400       174
    27.1600       194
    27.1800       170
    27.2000       178
    27.2200       194
    27.2400       194
    27.2600       190
    27.2800       210
    27.3000       218
    27.3200       170
    27.3400       202
    27.3600       210
    27.3800       196
    27.4000       194
    27.4200       202
    27.4400       188
    27.4600       218
    27.4800       188
    27.5000       190
    27.5200       196
    27.5400       230
    27.5600       184
    27.5800       244
    27.6000       228
    27.6200       240
    27.6400       222
    27.6600       262
    27.6800       246
    27.7000       280
    27.7200       262
    27.7400       304
    27.7600       306
    27.7800       326
    27.8000       386
    27.8200       384
    27.8400       386
    27.8600       446
    27.8800       468
    27.9000       524
    27.9200       552
    27.9400       654
    27.9600       754
    27.9800       782
    28.0000       910
    28.0200       982
    28.0400      1228
    28.0600      1302
    28.0800      1518
    28.1000      1760
    28.1200      2002
    28.1400      2412
    28.1600      2730
    28.1800      3234
    28.2000      3580
    28.2200      3878
    28.2400      4242
    28.2600      4500
    28.2800      4356
    28.3000      4112
    28.3200      3780
    28.3400      3338
    28.3600      2816
    28.3800      2382
    28.4000      1956
    28.4200      1590
    28.4400      1326
    28.4600      1154
    28.4800       952
    28.5000       830
    28.5200       690
    28.5400       640
    28.5600       518
    28.5800       524
    28.6000       462
    28.6200       424
    28.6400       382
    28.6600       384
    28.6800       362
    28.7000       328
    28.7200       296
    28.7400       282
    28.7600       258
    28.7800       292
    28.8000       246
    28.8200       242
    28.8400       224
    28.8600       240
    28.8800       232
    28.9000       222
    28.9200       196
    28.9400       208
    28.9600       216
    28.9800       222
    29.0000       202
    29.0200       206
    29.0400       192
    29.0600       188
    29.0800       196
    29.1000       180
    29.1200       212
    29.1400       208
    29.1600       186
    29.1800       204
    29.2000       180
    29.2200       178
    29.2400       174
    29.2600       208
    29.2800       208
    29.3000       204
    29.3200       184
    29.3400       158
    29.3600       190
    29.3800       192
    29.4000       176
    29.4200       180
    29.4400       180
    29.4600       202
    29.4800       184
    29.5000       208
    29.5200       180
    29.5400       186
    29.5600       168
    29.5800       192
    29.6000       206
    29.6200       188
    29.6400       168
    29.6600       200
    29.6800       174
    29.7000       172
    29.7200       188
    29.7400       194
    29.7600       208
    29.7800       210
    29.8000       206
    29.8200       182
    29.8400       176
    29.8600       170
    29.8800       180
    29.9000       184
    29.9200       192
    29.9400       170
    29.9600       160
    29.9800       174
    30.0000       198
    30.0200       176
    30.0400       192
    30.0600       192
    30.0800       164
    30.1000       190
    30.1200       196
    30.1400       172
    30.1600       210
    30.1800       194
    30.2000       232
    30.2200       196
    30.2400       186
    30.2600       184
    30.2800       210
    30.3000       216
    30.3200       200
    30.3400       224
    30.3600       202
    30.3800       208
    30.4000       224
    30.4200       210
    30.4400       216
    30.4600       178
    30.4800       174
    30.5000       210
    30.5200       192
    30.5400       178
    30.5600       210
    30.5800       202
    30.6000       216
    30.6200       218
    30.6400       230
    30.6600       224
    30.6800       208
    30.7000       208
    30.7200       220
    30.7400       196
    30.7600       222
    30.7800       228
    30.8000       194
    30.8200       186
    30.8400       222
    30.8600       222
    30.8800       222
    30.9000       202
    30.9200       234
    30.9400       216
    30.9600       224
    30.9800       218
    31.0000       224
    31.0200       204
    31.0400       244
    31.0600       226
    31.0800       252
    31.1000       218
    31.1200       234
    31.1400       258
    31.1600       236
    31.1800       216
    31.2000       206
    31.2200       264
    31.2400       242
    31.2600       268
    31.2800       254
    31.3000       242
    31.3200       282
    31.3400       250
    31.3600       294
    31.3800       244
    31.4000       298
    31.4200       296
    31.4400       300
    31.4600       342
    31.4800       374
    31.5000       374
    31.5200       374
    31.5400       410
    31.5600       394
    31.5800       434
    31.6000       466
    31.6200       472
    31.6400       540
    31.6600       564
    31.6800       606
    31.7000       704
    31.7200       738
    31.7400       834
    31.7600       916
    31.7800      1050
    31.8000      1222
    31.8200      1344
    31.8400      1458
    31.8600      1764
    31.8800      2010
    31.9000      2260
    31.9200      2656
    31.9400      2932
    31.9600      3044
    31.9800      3268
    32.0000      3180
    32.0200      2856
    32.0400      2744
    32.0600      2470
    32.0800      2270
    32.1000      2044
    32.1200      1844
    32.1400      1752
    32.1600      1740
    32.1800      1752
    32.2000      1726
    32.2200      1846
    32.2400      2068
    32.2600      2236
    32.2800      2390
    32.3000      2700
    32.3200      2998
    32.3400      3434
    32.3600      3930
    32.3800      4440
    32.4000      4976
    32.4200      5884
    32.4400      6802
    32.4600      7702
    32.4800      8672
    32.5000      9502
    32.5200     10222
    32.5400     10384
    32.5600     10268
    32.5800      9620
    32.6000      8902
    32.6200      7934
    32.6400      7024
    32.6600      5784
    32.6800      4900
    32.7000      4206
    32.7200      3582
    32.7400      3122
    32.7600      2690
    32.7800      2322
    32.8000      2108
    32.8200      1906
    32.8400      1880
    32.8600      1724
    32.8800      1680
    32.9000      1668
    32.9200      1684
    32.9400      1642
    32.9600      1734
    32.9800      1760
    33.0000      1944
    33.0200      1990
    33.0400      2208
    33.0600      2330
    33.0800      2214
    33.1000      2164
    33.1200      2010
    33.1400      1902
    33.1600      1606
    33.1800      1458
    33.2000      1266
    33.2200      1070
    33.2400       946
    33.2600       824
    33.2800       790
    33.3000       652
    33.3200       604
    33.3400       572
    33.3600       560
    33.3800       520
    33.4000       504
    33.4200       488
    33.4400       462
    33.4600       484
    33.4800       438
    33.5000       370
    33.5200       382
    33.5400       324
    33.5600       322
    33.5800       342
    33.6000       340
    33.6200       324
    33.6400       342
    33.6600       300
    33.6800       268
    33.7000       298
    33.7200       256
    33.7400       266
    33.7600       266
    33.7800       274
    33.8000       276
    33.8200       272
    33.8400       252
    33.8600       252
    33.8800       262
    33.9000       218
    33.9200       274
    33.9400       220
    33.9600       232
    33.9800       276
    34.0000       242
    34.0200       242
    34.0400       222
    34.0600       256
    34.0800       240
    34.1000       232
    34.1200       240
    34.1400       266
    34.1600       246
    34.1800       238
    34.2000       224
    34.2200       244
    34.2400       252
    34.2600       230
    34.2800       258
    34.3000       242
    34.3200       222
    34.3400       258
    34.3600       216
    34.3800       232
    34.4000       220
    34.4200       238
    34.4400       212
    34.4600       244
    34.4800       210
    34.5000       214
    34.5200       244
    34.5400       214
    34.5600       226
    34.5800       228
    34.6000       214
    34.6200       198
    34.6400       220
    34.6600       198
    34.6800       246
    34.7000       186
    34.7200       222
    34.7400       190
    34.7600       238
    34.7800       216
    34.8000       246
    34.8200       246
    34.8400       234
    34.8600       246
    34.8800       240
    34.9000       268
    34.9200       294
    34.9400       246
    34.9600       224
    34.9800       224
    35.0000       266
    35.0200       258
    35.0400       234
    35.0600       266
    35.0800       240
    35.1000       256
    35.1200       256
    35.1400       258
    35.1600       228
    35.1800       216
    35.2000       210
    35.2200       234
    35.2400       228
    35.2600       252
    35.2800       228
    35.3000       236
    35.3200       248
    35.3400       228
    35.3600       254
    35.3800       250
    35.4000       220
    35.4200       204
    35.4400       260
    35.4600       212
    35.4800       232
    35.5000       248
    35.5200       218
    35.5400       236
    35.5600       244
    35.5800       264
    35.6000       272
    35.6200       250
    35.6400       254
    35.6600       256
    35.6800       242
    35.7000       286
    35.7200       288
    35.7400       296
    35.7600       252
    35.7800       296
    35.8000       300
    35.8200       314
    35.8400       340
    35.8600       306
    35.8800       372
    35.9000       368
    35.9200       380
    35.9400       432
    35.9600       442
    35.9800       534
    36.0000       524
    36.0200       606
    36.0400       606
    36.0600       686
    36.0800       780
    36.1000       764
    36.1200       860
    36.1400       802
    36.1600       868
    36.1800       768
    36.2000       698
    36.2200       688
    36.2400       616
    36.2600       562
    36.2800       518
    36.3000       530
    36.3200       440
    36.3400       464
    36.3600       440
    36.3800       420
    36.4000       446
    36.4200       468
    36.4400       408
    36.4600       476
    36.4800       482
    36.5000       486
    36.5200       550
    36.5400       554
    36.5600       582
    36.5800       656
    36.6000       702
    36.6200       708
    36.6400       818
    36.6600       832
    36.6800       926
    36.7000      1028
    36.7200      1258
    36.7400      1342
    36.7600      1524
    36.7800      1780
    36.8000      1994
    36.8200      2272
    36.8400      2366
    36.8600      2536
    36.8800      2516
    36.9000      2490
    36.9200      2264
    36.9400      2090
    36.9600      1878
    36.9800      1704
    37.0000      1480
    37.0200      1334
    37.0400      1160
    37.0600       978
    37.0800       906
    37.1000       784
    37.1200       754
    37.1400       676
    37.1600       614
    37.1800       610
    37.2000       522
    37.2200       612
    37.2400       534
    37.2600       532
    37.2800       528
    37.3000       456
    37.3200       478
    37.3400       468
    37.3600       470
    37.3800       442
    37.4000       428
    37.4200       442
    37.4400       466
    37.4600       458
    37.4800       452
    37.5000       468
    37.5200       472
    37.5400       474
    37.5600       524
    37.5800       500
    37.6000       492
    37.6200       556
    37.6400       556
    37.6600       592
    37.6800       638
    37.7000       718
    37.7200       722
    37.7400       728
    37.7600       828
    37.7800       896
    37.8000       956
    37.8200      1020
    37.8400      1142
    37.8600      1364
    37.8800      1500
    37.9000      1822
    37.9200      1952
    37.9400      2292
    37.9600      2352
    37.9800      2568
    38.0000      2598
    38.0200      2558
    38.0400      2426
    38.0600      2564
    38.0800      2256
    38.1000      2216
    38.1200      2088
    38.1400      2020
    38.1600      1844
    38.1800      1760
    38.2000      1896
    38.2200      1754
    38.2400      1932
    38.2600      2084
    38.2800      2124
    38.3000      2416
    38.3200      2606
    38.3400      2972
    38.3600      3206
    38.3800      3582
    38.4000      4046
    38.4200      4554
    38.4400      4928
    38.4600      5294
    38.4800      5378
    38.5000      5366
    38.5200      5534
    38.5400      5594
    38.5600      5448
    38.5800      5358
    38.6000      5350
    38.6200      5202
    38.6400      5548
    38.6600      5642
    38.6800      5928
    38.7000      6108
    38.7200      6362
    38.7400      6370
    38.7600      6534
    38.7800      6406
    38.8000      6374
    38.8200      6244
    38.8400      6144
    38.8600      5670
    38.8800      5196
    38.9000      4782
    38.9200      4300
    38.9400      3926
    38.9600      3570
    38.9800      3128
    39.0000      2770
    39.0200      2550
    39.0400      2186
    39.0600      1920
    39.0800      1710
    39.1000      1554
    39.1200      1338
    39.1400      1216
    39.1600      1158
    39.1800      1116
    39.2000      1000
    39.2200      1000
    39.2400       914
    39.2600       910
    39.2800       844
    39.3000       850
    39.3200       822
    39.3400       836
    39.3600       848
    39.3800       898
    39.4000       962
    39.4200       920
    39.4400       898
    39.4600      1078
    39.4800      1158
    39.5000      1330
    39.5200      1386
    39.5400      1614
    39.5600      1788
    39.5800      2026
    39.6000      2320
    39.6200      2470
    39.6400      2792
    39.6600      2974
    39.6800      3036
    39.7000      2808
    39.7200      2778
    39.7400      2482
    39.7600      2236
    39.7800      2078
    39.8000      1956
    39.8200      1722
    39.8400      1434
    39.8600      1190
    39.8800      1010
    39.9000       918
    39.9200       874
    39.9400       768
    39.9600       750
    39.9800       680
    40.0000       648
    40.0200       632
    40.0400       576
    40.0600       554
    40.0800       500
    40.1000       514
    40.1200       540
    40.1400       524
    40.1600       502
    40.1800       516
    40.2000       538
    40.2200       478
    40.2400       568
    40.2600       594
    40.2800       626
    40.3000       632
    40.3200       672
    40.3400       782
    40.3600       788
    40.3800       820
    40.4000       900
    40.4200       952
    40.4400      1072
    40.4600      1202
    40.4800      1272
    40.5000      1278
    40.5200      1426
    40.5400      1468
    40.5600      1560
    40.5800      1594
    40.6000      1528
    40.6200      1528
    40.6400      1446
    40.6600      1466
    40.6800      1288
    40.7000      1188
    40.7200      1046
    40.7400       954
    40.7600       912
    40.7800       792
    40.8000       736
    40.8200       718
    40.8400       642
    40.8600       638
    40.8800       564
    40.9000       486
    40.9200       482
    40.9400       452
    40.9600       470
    40.9800       442
    41.0000       454
    41.0200       442
    41.0400       374
    41.0600       374
    41.0800       374
    41.1000       364
    41.1200       386
    41.1400       364
    41.1600       364
    41.1800       376
    41.2000       398
    41.2200       376
    41.2400       368
    41.2600       370
    41.2800       350
    41.3000       346
    41.3200       378
    41.3400       334
    41.3600       402
    41.3800       394
    41.4000       392
    41.4200       386
    41.4400       424
    41.4600       440
    41.4800       468
    41.5000       466
    41.5200       506
    41.5400       504
    41.5600       536
    41.5800       596
    41.6000       646
    41.6200       694
    41.6400       760
    41.6600       834
    41.6800       944
    41.7000      1008
    41.7200      1128
    41.7400      1204
    41.7600      1368
    41.7800      1574
    41.8000      1688
    41.8200      1874
    41.8400      2042
    41.8600      2092
    41.8800      2214
    41.9000      2318
    41.9200      2214
    41.9400      2052
    41.9600      1838
    41.9800      1858
    42.0000      1602
    42.0200      1490
    42.0400      1328
    42.0600      1212
    42.0800      1048
    42.1000       914
    42.1200       818
    42.1400       746
    42.1600       626
    42.1800       662
    42.2000       606
    42.2200       544
    42.2400       514
    42.2600       564
    42.2800       506
    42.3000       458
    42.3200       476
    42.3400       492
    42.3600       440
    42.3800       452
    42.4000       428
    42.4200       412
    42.4400       370
    42.4600       434
    42.4800       392
    42.5000       382
    42.5200       390
    42.5400       404
    42.5600       438
    42.5800       400
    42.6000       382
    42.6200       386
    42.6400       400
    42.6600       386
    42.6800       440
    42.7000       424
    42.7200       430
    42.7400       428
    42.7600       446
    42.7800       476
    42.8000       504
    42.8200       512
    42.8400       514
    42.8600       584
    42.8800       610
    42.9000       682
    42.9200       678
    42.9400       756
    42.9600       832
    42.9800       896
    43.0000       982
    43.0200      1228
    43.0400      1314
    43.0600      1384
    43.0800      1586
    43.1000      1760
    43.1200      1920
    43.1400      2074
    43.1600      2232
    43.1800      2104
    43.2000      2180
    43.2200      2068
    43.2400      1984
    43.2600      1734
    43.2800      1712
    43.3000      1518
    43.3200      1360
    43.3400      1204
    43.3600      1130
    43.3800       918
    43.4000       878
    43.4200       786
    43.4400       740
    43.4600       738
    43.4800       600
    43.5000       638
    43.5200       594
    43.5400       654
    43.5600       566
    43.5800       574
    43.6000       566
    43.6200       616
    43.6400       588
    43.6600       604
    43.6800       660
    43.7000       680
    43.7200       708
    43.7400       750
    43.7600       794
    43.7800       822
    43.8000       856
    43.8200       852
    43.8400       736
    43.8600       770
    43.8800       802
    43.9000       722
    43.9200       708
    43.9400       656
    43.9600       626
    43.9800       540
    44.0000       534
    44.0200       486
    44.0400       458
    44.0600       420
    44.0800       412
    44.1000       408
    44.1200       336
    44.1400       362
    44.1600       390
    44.1800       350
    44.2000       328
    44.2200       354
    44.2400       342
    44.2600       320
    44.2800       316
    44.3000       314
    44.3200       310
    44.3400       326
    44.3600       328
    44.3800       316
    44.4000       308
    44.4200       292
    44.4400       312
    44.4600       284
    44.4800       294
    44.5000       286
    44.5200       262
    44.5400       286
    44.5600       288
    44.5800       288
    44.6000       258
    44.6200       260
    44.6400       282
    44.6600       308
    44.6800       258
    44.7000       282
    44.7200       276
    44.7400       256
    44.7600       288
    44.7800       248
    44.8000       302
    44.8200       302
    44.8400       288
    44.8600       282
    44.8800       244
    44.9000       320
    44.9200       254
    44.9400       244
    44.9600       304
    44.9800       236
    45.0000       302
    45.0200       274
    45.0400       260
    45.0600       274
    45.0800       294
    45.1000       302
    45.1200       282
    45.1400       292
    45.1600       278
    45.1800       320
    45.2000       264
    45.2200       286
    45.2400       264
    45.2600       314
    45.2800       314
    45.3000       320
    45.3200       292
    45.3400       304
    45.3600       326
    45.3800       320
    45.4000       332
    45.4200       312
    45.4400       346
    45.4600       342
    45.4800       300
    45.5000       330
    45.5200       354
    45.5400       370
    45.5600       360
    45.5800       348
    45.6000       390
    45.6200       392
    45.6400       372
    45.6600       348
    45.6800       384
    45.7000       356
    45.7200       400
    45.7400       390
    45.7600       426
    45.7800       436
    45.8000       436
    45.8200       404
    45.8400       408
    45.8600       460
    45.8800       482
    45.9000       508
    45.9200       520
    45.9400       514
    45.9600       562
    45.9800       528
    46.0000       570
    46.0200       628
    46.0400       632
    46.0600       628
    46.0800       676
    46.1000       746
    46.1200       768
    46.1400       846
    46.1600       814
    46.1800       948
    46.2000       950
    46.2200      1040
    46.2400      1134
    46.2600      1220
    46.2800      1304
    46.3000      1426
    46.3200      1516
    46.3400      1784
    46.3600      1814
    46.3800      2058
    46.4000      2170
    46.4200      2492
    46.4400      2824
    46.4600      3176
    46.4800      3628
    46.5000      4100
    46.5200      4462
    46.5400      5154
    46.5600      5914
    46.5800      6652
    46.6000      7950
    46.6200      8722
    46.6400     10052
    46.6600     10768
    46.6800     10898
    46.7000     10786
    46.7200     10678
    46.7400     10190
    46.7600      9578
    46.7800      9084
    46.8000      8674
    46.8200      8254
    46.8400      7600
    46.8600      7150
    46.8800      6602
    46.9000      6142
    46.9200      5996
    46.9400      5756
    46.9600      5760
    46.9800      5508
    47.0000      5434
    47.0200      5142
    47.0400      4882
    47.0600      4598
    47.0800      4368
    47.1000      4058
    47.1200      3662
    47.1400      3402
    47.1600      3122
    47.1800      2828
    47.2000      2570
    47.2200      2254
    47.2400      2110
    47.2600      1858
    47.2800      1692
    47.3000      1470
    47.3200      1474
    47.3400      1374
    47.3600      1228
    47.3800      1156
    47.4000      1100
    47.4200      1016
    47.4400       964
    47.4600       894
    47.4800       872
    47.5000       834
    47.5200       780
    47.5400       736
    47.5600       806
    47.5800       714
    47.6000       718
    47.6200       650
    47.6400       758
    47.6600       724
    47.6800       818
    47.7000       808
    47.7200       848
    47.7400       860
    47.7600       892
    47.7800       952
    47.8000       974
    47.8200       934
    47.8400      1010
    47.8600       878
    47.8800       980
    47.9000       890
    47.9200       874
    47.9400       880
    47.9600       854
    47.9800       806
    48.0000       782
    48.0200       750
    48.0400       752
    48.0600       776
    48.0800       800
    48.1000       832
    48.1200       892
    48.1400       948
    48.1600       946
    48.1800       942
    48.2000       978
    48.2200       966
    48.2400       852
    48.2600       820
    48.2800       776
    48.3000       748
    48.3200       744
    48.3400       664
    48.3600       640
    48.3800       608
    48.4000       540
    48.4200       534
    48.4400       452
    48.4600       442
    48.4800       426
    48.5000       376
    48.5200       418
    48.5400       382
    48.5600       360
    48.5800       316
    48.6000       380
    48.6200       340
    48.6400       338
    48.6600       356
    48.6800       310
    48.7000       328
    48.7200       334
    48.7400       312
    48.7600       308
    48.7800       314
    48.8000       288
    48.8200       306
    48.8400       282
    48.8600       310
    48.8800       262
    48.9000       294
    48.9200       292
    48.9400       294
    48.9600       282
    48.9800       274
    49.0000       268
    49.0200       274
    49.0400       264
    49.0600       250
    49.0800       280
    49.1000       246
    49.1200       258
    49.1400       246
    49.1600       246
    49.1800       234
    49.2000       260
    49.2200       268
    49.2400       244
    49.2600       282
    49.2800       254
    49.3000       222
    49.3200       262
    49.3400       242
    49.3600       242
    49.3800       242
    49.4000       290
    49.4200       280
    49.4400       270
    49.4600       262
    49.4800       280
    49.5000       278
    49.5200       260
    49.5400       266
    49.5600       274
    49.5800       262
    49.6000       274
    49.6200       328
    49.6400       272
    49.6600       292
    49.6800       302
    49.7000       258
    49.7200       278
    49.7400       288
    49.7600       282
    49.7800       270
    49.8000       264
    49.8200       296
    49.8400       230
    49.8600       274
    49.8800       254
    49.9000       252
    49.9200       254
    49.9400       228
    49.9600       276
    49.9800       236
    50.0000       258
    50.0200       236
    50.0400       234
    50.0600       264
    50.0800       296
    50.1000       254
    50.1200       266
    50.1400       264
    50.1600       276
    50.1800       288
    50.2000       282
    50.2200       284
    50.2400       274
    50.2600       292
    50.2800       318
    50.3000       326
    50.3200       284
    50.3400       324
    50.3600       314
    50.3800       282
    50.4000       302
    50.4200       340
    50.4400       302
    50.4600       312
    50.4800       326
    50.5000       318
    50.5200       344
    50.5400       346
    50.5600       340
    50.5800       328
    50.6000       370
    50.6200       360
    50.6400       402
    50.6600       374
    50.6800       388
    50.7000       428
    50.7200       474
    50.7400       494
    50.7600       502
    50.7800       572
    50.8000       562
    50.8200       654
    50.8400       714
    50.8600       726
    50.8800       760
    50.9000       826
    50.9200       816
    50.9400       786
    50.9600       734
    50.9800       694
    51.0000       734
    51.0200       716
    51.0400       670
    51.0600       644
    51.0800       634
    51.1000       550
    51.1200       540
    51.1400       558
    51.1600       558
    51.1800       532
    51.2000       552
    51.2200       584
    51.2400       520
    51.2600       530
    51.2800       610
    51.3000       626
    51.3200       666
    51.3400       688
    51.3600       732
    51.3800       760
    51.4000       732
    51.4200       712
    51.4400       720
    51.4600       758
    51.4800       762
    51.5000       734
    51.5200       700
    51.5400       704
    51.5600       722
    51.5800       662
    51.6000       714
    51.6200       698
    51.6400       732
    51.6600       738
    51.6800       764
    51.7000       808
    51.7200       894
    51.7400       962
    51.7600       942
    51.7800      1054
    51.8000      1102
    51.8200      1164
    51.8400      1132
    51.8600      1154
    51.8800      1086
    51.9000      1088
    51.9200      1076
    51.9400      1004
    51.9600      1046
    51.9800      1006
    52.0000      1042
    52.0200       948
    52.0400       934
    52.0600       922
    52.0800       818
    52.1000       750
    52.1200       738
    52.1400       726
    52.1600       762
    52.1800       734
    52.2000       756
    52.2200       718
    52.2400       702
    52.2600       718
    52.2800       730
    52.3000       780
    52.3200       734
    52.3400       764
    52.3600       830
    52.3800       946
    52.4000       934
    52.4200      1024
    52.4400      1132
    52.4600      1318
    52.4800      1310
    52.5000      1498
    52.5200      1434
    52.5400      1588
    52.5600      1690
    52.5800      1644
    52.6000      1608
    52.6200      1582
    52.6400      1662
    52.6600      1652
    52.6800      1520
    52.7000      1494
    52.7200      1326
    52.7400      1394
    52.7600      1278
    52.7800      1170
    52.8000      1174
    52.8200      1074
    52.8400      1064
    52.8600       904
    52.8800       940
    52.9000       880
    52.9200       878
    52.9400       940
    52.9600       934
    52.9800       910
    53.0000       946
    53.0200       992
    53.0400      1030
    53.0600      1114
    53.0800      1180
    53.1000      1310
    53.1200      1474
    53.1400      1638
    53.1600      1772
    53.1800      1944
    53.2000      2028
    53.2200      2096
    53.2400      2118
    53.2600      2232
    53.2800      1986
    53.3000      1916
    53.3200      1790
    53.3400      1716
    53.3600      1520
    53.3800      1500
    53.4000      1432
    53.4200      1284
    53.4400      1146
    53.4600      1060
    53.4800       892
    53.5000       798
    53.5200       772
    53.5400       688
    53.5600       658
    53.5800       580
    53.6000       566
    53.6200       538
    53.6400       510
    53.6600       474
    53.6800       436
    53.7000       412
    53.7200       406
    53.7400       380
    53.7600       424
    53.7800       376
    53.8000       350
    53.8200       384
    53.8400       370
    53.8600       310
    53.8800       356
    53.9000       350
    53.9200       336
    53.9400       332
    53.9600       320
    53.9800       308
    54.0000       308
    54.0200       328
    54.0400       334
    54.0600       314
    54.0800       304
    54.1000       320
    54.1200       314
    54.1400       338
    54.1600       338
    54.1800       300
    54.2000       340
    54.2200       376
    54.2400       336
    54.2600       360
    54.2800       370
    54.3000       344
    54.3200       390
    54.3400       436
    54.3600       400
    54.3800       398
    54.4000       458
    54.4200       462
    54.4400       508
    54.4600       506
    54.4800       532
    54.5000       594
    54.5200       618
    54.5400       604
    54.5600       664
    54.5800       708
    54.6000       690
    54.6200       742
    54.6400       770
    54.6600       816
    54.6800       848
    54.7000       878
    54.7200       936
    54.7400       964
    54.7600       910
    54.7800       866
    54.8000       886
    54.8200       794
    54.8400       776
    54.8600       750
    54.8800       734
    54.9000       654
    54.9200       666
    54.9400       616
    54.9600       524
    54.9800       496
    55.0000       480
    55.0200       458
    55.0400       460
    55.0600       456
    55.0800       448
    55.1000       402
    55.1200       400
    55.1400       396
    55.1600       412
    55.1800       440
    55.2000       396
    55.2200       386
    55.2400       398
    55.2600       384
    55.2800       412
    55.3000       432
    55.3200       460
    55.3400       436
    55.3600       440
    55.3800       470
    55.4000       476
    55.4200       508
    55.4400       530
    55.4600       570
    55.4800       564
    55.5000       624
    55.5200       690
    55.5400       736
    55.5600       776
    55.5800       824
    55.6000       890
    55.6200       962
    55.6400      1054
    55.6600      1126
    55.6800      1242
    55.7000      1306
    55.7200      1428
    55.7400      1452
    55.7600      1516
    55.7800      1506
    55.8000      1526
    55.8200      1566
    55.8400      1530
    55.8600      1558
    55.8800      1510
    55.9000      1570
    55.9200      1638
    55.9400      1580
    55.9600      1618
    55.9800      1696
    56.0000      1716
    56.0200      1690
    56.0400      1700
    56.0600      1666
    56.0800      1696
    56.1000      1718
    56.1200      1672
    56.1400      1614
    56.1600      1548
    56.1800      1488
    56.2000      1430
    56.2200      1400
    56.2400      1252
    56.2600      1278
    56.2800      1160
    56.3000      1142
    56.3200      1012
    56.3400       958
    56.3600       878
    56.3800       812
    56.4000       776
    56.4200       718
    56.4400       638
    56.4600       656
    56.4800       590
    56.5000       570
    56.5200       542
    56.5400       542
    56.5600       504
    56.5800       526
    56.6000       454
    56.6200       466
    56.6400       458
    56.6600       454
    56.6800       436
    56.7000       468
    56.7200       404
    56.7400       438
    56.7600       442
    56.7800       426
    56.8000       436
    56.8200       466
    56.8400       488
    56.8600       468
    56.8800       506
    56.9000       500
    56.9200       518
    56.9400       518
    56.9600       524
    56.9800       546
    57.0000       594
    57.0200       644
    57.0400       692
    57.0600       700
    57.0800       760
    57.1000       788
    57.1200       858
    57.1400       930
    57.1600      1060
    57.1800      1060
    57.2000      1240
    57.2200      1300
    57.2400      1464
    57.2600      1640
    57.2800      1776
    57.3000      1816
    57.3200      2038
    57.3400      2132
    57.3600      2056
    57.3800      2088
    57.4000      1976
    57.4200      1934
    57.4400      1944
    57.4600      1870
    57.4800      1856
    57.5000      1808
    57.5200      1822
    57.5400      1786
    57.5600      1744
    57.5800      1694
    57.6000      1680
    57.6200      1798
    57.6400      1874
    57.6600      1930
    57.6800      2064
    57.7000      2060
    57.7200      2200
    57.7400      2036
    57.7600      1966
    57.7800      1924
    57.8000      1810
    57.8200      1788
    57.8400      1714
    57.8600      1646
    57.8800      1546
    57.9000      1464
    57.9200      1376
    57.9400      1302
    57.9600      1226
    57.9800      1174
    58.0000      1118
    58.0200      1050
    58.0400      1010
    58.0600       998
    58.0800       980
    58.1000      1000
    58.1200       976
    58.1400      1008
    58.1600      1032
    58.1800      1094
    58.2000      1086
    58.2200      1140
    58.2400      1208
    58.2600      1238
    58.2800      1404
    58.3000      1440
    58.3200      1596
    58.3400      1646
    58.3600      1786
    58.3800      1870
    58.4000      1996
    58.4200      2176
    58.4400      2350
    58.4600      2574
    58.4800      2730
    58.5000      2724
    58.5200      2908
    58.5400      2962
    58.5600      3008
    58.5800      3146
    58.6000      3312
    58.6200      3542
    58.6400      3766
    58.6600      3830
    58.6800      3984
    58.7000      3974
    58.7200      3922
    58.7400      3808
    58.7600      3734
    58.7800      3570
    58.8000      3508
    58.8200      3286
    58.8400      3244
    58.8600      2956
    58.8800      2788
    58.9000      2504
    58.9200      2322
    58.9400      2124
    58.9600      1962
    58.9800      1878
    59.0000      1664
    59.0200      1486
    59.0400      1372
    59.0600      1262
    59.0800      1124
    59.1000      1080
    59.1200      1024
    59.1400       982
    59.1600       840
    59.1800       798
    59.2000       768
    59.2200       726
    59.2400       720
    59.2600       692
    59.2800       664
    59.3000       588
    59.3200       572
    59.3400       544
    59.3600       538
    59.3800       534
    59.4000       494
    59.4200       504
    59.4400       470
    59.4600       484
    59.4800       448
    59.5000       442
    59.5200       398
    59.5400       366
    59.5600       384
    59.5800       366
    59.6000       342
    59.6200       382
    59.6400       362
    59.6600       366
    59.6800       354
    59.7000       328
    59.7200       350
    59.7400       332
    59.7600       342
    59.7800       312
    59.8000       294
    59.8200       262
    59.8400       294
    59.8600       328
    59.8800       298
    59.9000       326
    59.9200       278
    59.9400       292
    59.9600       300
    59.9800       270
    60.0000       310
    60.0200       270
    60.0400       274
    60.0600       302
    60.0800       292
    60.1000       284
    60.1200       262
    60.1400       272
    60.1600       290
    60.1800       262
    60.2000       298
    60.2200       312
    60.2400       280
    60.2600       266
    60.2800       314
    60.3000       314
    60.3200       284
    60.3400       264
    60.3600       262
    60.3800       268
    60.4000       282
    60.4200       262
    60.4400       298
    60.4600       316
    60.4800       286
    60.5000       258
    60.5200       282
    60.5400       282
    60.5600       270
    60.5800       292
    60.6000       276
    60.6200       270
    60.6400       298
    60.6600       326
    60.6800       296
    60.7000       294
    60.7200       340
    60.7400       306
    60.7600       308
    60.7800       334
    60.8000       352
    60.8200       320
    60.8400       380
    60.8600       354
    60.8800       422
    60.9000       362
    60.9200       406
    60.9400       408
    60.9600       448
    60.9800       490
    61.0000       436
    61.0200       502
    61.0400       522
    61.0600       556
    61.0800       570
    61.1000       538
    61.1200       526
    61.1400       546
    61.1600       590
    61.1800       530
    61.2000       536
    61.2200       556
    61.2400       510
    61.2600       514
    61.2800       530
    61.3000       516
    61.3200       502
    61.3400       516
    61.3600       508
    61.3800       556
    61.4000       544
    61.4200       532
    61.4400       574
    61.4600       606
    61.4800       600
    61.5000       576
    61.5200       616
    61.5400       542
    61.5600       546
    61.5800       546
    61.6000       532
    61.6200       518
    61.6400       536
    61.6600       546
    61.6800       450
    61.7000       516
    61.7200       524
    61.7400       480
    61.7600       490
    61.7800       492
    61.8000       482
    61.8200       550
    61.8400       492
    61.8600       590
    61.8800       588
    61.9000       544
    61.9200       580
    61.9400       594
    61.9600       600
    61.9800       622
    62.0000       574
    62.0200       562
    62.0400       648
    62.0600       592
    62.0800       608
    62.1000       616
    62.1200       652
    62.1400       630
    62.1600       668
    62.1800       576
    62.2000       566
    62.2200       530
    62.2400       522
    62.2600       580
    62.2800       596
    62.3000       506
    62.3200       520
    62.3400       504
    62.3600       460
    62.3800       518
    62.4000       446
    62.4200       422
    62.4400       424
    62.4600       410
    62.4800       402
    62.5000       366
    62.5200       412
    62.5400       348
    62.5600       364
    62.5800       332
    62.6000       284
    62.6200       330
    62.6400       320
    62.6600       262
    62.6800       302
    62.7000       286
    62.7200       280
    62.7400       266
    62.7600       250
    62.7800       268
    62.8000       274
    62.8200       236
    62.8400       242
    62.8600       234
    62.8800       260
    62.9000       232
    62.9200       216
    62.9400       198
    62.9600       256
    62.9800       216
    63.0000       226
    63.0200       210
    63.0400       218
    63.0600       218
    63.0800       220
    63.1000       242
    63.1200       228
    63.1400       232
    63.1600       206
    63.1800       240
    63.2000       208
    63.2200       232
    63.2400       192
    63.2600       234
    63.2800       216
    63.3000       216
    63.3200       192
    63.3400       218
    63.3600       230
    63.3800       258
    63.4000       220
    63.4200       252
    63.4400       228
    63.4600       256
    63.4800       268
    63.5000       228
    63.5200       258
    63.5400       258
    63.5600       288
    63.5800       284
    63.6000       284
    63.6200       320
    63.6400       304
    63.6600       338
    63.6800       354
    63.7000       396
    63.7200       380
    63.7400       428
    63.7600       456
    63.7800       454
    63.8000       502
    63.8200       494
    63.8400       460
    63.8600       486
    63.8800       466
    63.9000       446
    63.9200       436
    63.9400       432
    63.9600       382
    63.9800       394
    64.0000       378
    64.0200       394
    64.0400       376
    64.0600       314
    64.0800       316
    64.1000       310
    64.1200       310
    64.1400       284
    64.1600       286
    64.1800       266
    64.2000       242
    64.2200       234
    64.2400       226
    64.2600       242
    64.2800       216
    64.3000       216
    64.3200       236
    64.3400       262
    64.3600       230
    64.3800       210
    64.4000       220
    64.4200       214
    64.4400       232
    64.4600       216
    64.4800       238
    64.5000       224
    64.5200       212
    64.5400       180
    64.5600       222
    64.5800       208
    64.6000       214
    64.6200       222
    64.6400       218
    64.6600       198
    64.6800       240
    64.7000       226
    64.7200       226
    64.7400       228
    64.7600       226
    64.7800       242
    64.8000       240
    64.8200       238
    64.8400       242
    64.8600       238
    64.8800       246
    64.9000       262
    64.9200       230
    64.9400       260
    64.9600       272
    64.9800       260
    65.0000       270
    65.0200       304
    65.0400       290
    65.0600       330
    65.0800       340
    65.1000       356
    65.1200       366
    65.1400       364
    65.1600       398
    65.1800       396
    65.2000       462
    65.2200       456
    65.2400       456
    65.2600       498
    65.2800       452
    65.3000       438
    65.3200       452
    65.3400       424
    65.3600       468
    65.3800       412
    65.4000       404
    65.4200       374
    65.4400       366
    65.4600       380
    65.4800       352
    65.5000       288
    65.5200       352
    65.5400       292
    65.5600       288
    65.5800       290
    65.6000       322
    65.6200       278
    65.6400       262
    65.6600       258
    65.6800       222
    65.7000       268
    65.7200       222
    65.7400       244
    65.7600       222
    65.7800       228
    65.8000       244
    65.8200       262
    65.8400       220
    65.8600       202
    65.8800       200
    65.9000       226
    65.9200       228
    65.9400       214
    65.9600       202
    65.9800       208
    66.0000       216
    66.0200       208
    66.0400       222
    66.0600       200
    66.0800       216
    66.1000       230
    66.1200       202
    66.1400       208
    66.1600       212
    66.1800       202
    66.2000       226
    66.2200       264
    66.2400       216
    66.2600       230
    66.2800       240
    66.3000       218
    66.3200       232
    66.3400       240
    66.3600       238
    66.3800       246
    66.4000       256
    66.4200       254
    66.4400       270
    66.4600       274
    66.4800       282
    66.5000       304
    66.5200       308
    66.5400       312
    66.5600       314
    66.5800       348
    66.6000       334
    66.6200       354
    66.6400       342
    66.6600       372
    66.6800       392
    66.7000       454
    66.7200       452
    66.7400       514
    66.7600       488
    66.7800       532
    66.8000       526
    66.8200       536
    66.8400       612
    66.8600       594
    66.8800       588
    66.9000       574
    66.9200       532
    66.9400       542
    66.9600       554
    66.9800       522
    67.0000       528
    67.0200       486
    67.0400       546
    67.0600       450
    67.0800       412
    67.1000       446
    67.1200       388
    67.1400       384
    67.1600       366
    67.1800       362
    67.2000       334
    67.2200       310
    67.2400       328
    67.2600       322
    67.2800       330
    67.3000       310
    67.3200       322
    67.3400       318
    67.3600       288
    67.3800       314
    67.4000       304
    67.4200       288
    67.4400       340
    67.4600       332
    67.4800       328
    67.5000       304
    67.5200       312
    67.5400       330
    67.5600       326
    67.5800       338
    67.6000       330
    67.6200       370
    67.6400       364
    67.6600       378
    67.6800       370
    67.7000       380
    67.7200       406
    67.7400       472
    67.7600       484
    67.7800       476
    67.8000       524
    67.8200       572
    67.8400       578
    67.8600       596
    67.8800       624
    67.9000       660
    67.9200       748
    67.9400       774
    67.9600       908
    67.9800       960
    68.0000       976
    68.0200      1100
    68.0400      1214
    68.0600      1270
    68.0800      1266
    68.1000      1296
    68.1200      1338
    68.1400      1386
    68.1600      1338
    68.1800      1424
    68.2000      1414
    68.2200      1428
    68.2400      1326
    68.2600      1390
    68.2800      1274
    68.3000      1338
    68.3200      1184
    68.3400      1098
    68.3600      1076
    68.3800      1122
    68.4000       978
    68.4200       950
    68.4400       952
    68.4600       874
    68.4800       904
    68.5000       850
    68.5200       754
    68.5400       838
    68.5600       796
    68.5800       748
    68.6000       782
    68.6200       742
    68.6400       736
    68.6600       758
    68.6800       690
    68.7000       636
    68.7200       622
    68.7400       646
    68.7600       616
    68.7800       582
    68.8000       582
    68.8200       594
    68.8400       564
    68.8600       560
    68.8800       500
    68.9000       492
    68.9200       510
    68.9400       478
    68.9600       448
    68.9800       422
    69.0000       472
    69.0200       434
    69.0400       444
    69.0600       430
    69.0800       426
    69.1000       422
    69.1200       444
    69.1400       446
    69.1600       484
    69.1800       456
    69.2000       466
    69.2200       508
    69.2400       540
    69.2600       542
    69.2800       542
    69.3000       584
    69.3200       584
    69.3400       688
    69.3600       648
    69.3800       636
    69.4000       610
    69.4200       620
    69.4400       594
    69.4600       616
    69.4800       602
    69.5000       530
    69.5200       510
    69.5400       510
    69.5600       510
    69.5800       472
    69.6000       474
    69.6200       466
    69.6400       452
    69.6600       382
    69.6800       354
    69.7000       386
    69.7200       374
    69.7400       374
    69.7600       316
    69.7800       342
    69.8000       340
    69.8200       282
    69.8400       332
    69.8600       314
    69.8800       352
    69.9000       296
    69.9200       328
    69.9400       334
    69.9600       294
    69.9800       296
    70.0000       336
    70.0200       366
    70.0400       376
    70.0600       376
    70.0800       342
    70.1000       364
    70.1200       372
    70.1400       400
    70.1600       386
    70.1800       410
    70.2000       440
    70.2200       472
    70.2400       482
    70.2600       478
    70.2800       440
    70.3000       466
    70.3200       442
    70.3400       508
    70.3600       448
    70.3800       464
    70.4000       474
    70.4200       474
    70.4400       472
    70.4600       426
    70.4800       488
    70.5000       446
    70.5200       420
    70.5400       436
    70.5600       426
    70.5800       416
    70.6000       412
    70.6200       374
    70.6400       348
    70.6600       382
    70.6800       368
    70.7000       372
    70.7200       344
    70.7400       322
    70.7600       342
    70.7800       312
    70.8000       340
    70.8200       328
    70.8400       300
    70.8600       310
    70.8800       270
    70.9000       292
    70.9200       312
    70.9400       284
    70.9600       292
    70.9800       278
    71.0000       278
    71.0200       340
    71.0400       304
    71.0600       290
    71.0800       326
    71.1000       320
    71.1200       338
    71.1400       340
    71.1600       336
    71.1800       346
    71.2000       366
    71.2200       408
    71.2400       456
    71.2600       402
    71.2800       490
    71.3000       484
    71.3200       526
    71.3400       610
    71.3600       578
    71.3800       604
    71.4000       646
    71.4200       702
    71.4400       712
    71.4600       678
    71.4800       748
    71.5000       666
    71.5200       736
    71.5400       652
    71.5600       688
    71.5800       678
    71.6000       730
    71.6200       706
    71.6400       688
    71.6600       658
    71.6800       696
    71.7000       648
    71.7200       670
    71.7400       680
    71.7600       582
    71.7800       616
    71.8000       618
    71.8200       568
    71.8400       588
    71.8600       534
    71.8800       562
    71.9000       542
    71.9200       548
    71.9400       548
    71.9600       504
    71.9800       478
    72.0000       498
    72.0200       504
    72.0400       494
    72.0600       488
    72.0800       516
    72.1000       512
    72.1200       502
    72.1400       494
    72.1600       536
    72.1800       524
    72.2000       506
    72.2200       544
    72.2400       574
    72.2600       540
    72.2800       508
    72.3000       530
    72.3200       508
    72.3400       524
    72.3600       504
    72.3800       480
    72.4000       452
    72.4200       468
    72.4400       450
    72.4600       458
    72.4800       426
    72.5000       394
    72.5200       382
    72.5400       378
    72.5600       370
    72.5800       348
    72.6000       338
    72.6200       340
    72.6400       352
    72.6600       342
    72.6800       328
    72.7000       300
    72.7200       302
    72.7400       294
    72.7600       274
    72.7800       320
    72.8000       328
    72.8200       326
    72.8400       324
    72.8600       316
    72.8800       310
    72.9000       264
    72.9200       284
    72.9400       290
    72.9600       286
    72.9800       270
    73.0000       258
    73.0200       268
    73.0400       262
    73.0600       258
    73.0800       260
    73.1000       270
    73.1200       238
    73.1400       232
    73.1600       234
    73.1800       240
    73.2000       252
    73.2200       242
    73.2400       240
    73.2600       230
    73.2800       218
    73.3000       202
    73.3200       200
    73.3400       206
    73.3600       222
    73.3800       192
    73.4000       186
    73.4200       210
    73.4400       218
    73.4600       196
    73.4800       196
    73.5000       202
    73.5200       208
    73.5400       218
    73.5600       222
    73.5800       196
    73.6000       194
    73.6200       200
    73.6400       208
    73.6600       192
    73.6800       228
    73.7000       234
    73.7200       198
    73.7400       202
    73.7600       226
    73.7800       216
    73.8000       238
    73.8200       232
    73.8400       256
    73.8600       200
    73.8800       234
    73.9000       256
    73.9200       268
    73.9400       244
    73.9600       254
    73.9800       260
    74.0000       264
    74.0200       304
    74.0400       300
    74.0600       298
    74.0800       288
    74.1000       302
    74.1200       292
    74.1400       306
    74.1600       300
    74.1800       272
    74.2000       282
    74.2200       294
    74.2400       236
    74.2600       256
    74.2800       238
    74.3000       238
    74.3200       250
    74.3400       254
    74.3600       246
    74.3800       242
    74.4000       208
    74.4200       240
    74.4400       212
    74.4600       204
    74.4800       188
    74.5000       174
    74.5200       180
    74.5400       220
    74.5600       188
    74.5800       190
    74.6000       184
    74.6200       206
    74.6400       190
    74.6600       172
    74.6800       184
    74.7000       194
    74.7200       176
    74.7400       192
    74.7600       184
    74.7800       186
    74.8000       172
    74.8200       178
    74.8400       178
    74.8600       178
    74.8800       204
    74.9000       174
    74.9200       174
    74.9400       192
    74.9600       192
    74.9800       152
    75.0000       168
    75.0200       188
    75.0400       186
    75.0600       168
    75.0800       178
    75.1000       182
    75.1200       184
    75.1400       192
    75.1600       204
    75.1800       200
    75.2000       198
    75.2200       184
    75.2400       188
    75.2600       228
    75.2800       204
    75.3000       182
    75.3200       206
    75.3400       230
    75.3600       222
    75.3800       218
    75.4000       230
    75.4200       236
    75.4400       228
    75.4600       238
    75.4800       242
    75.5000       250
    75.5200       244
    75.5400       274
    75.5600       288
    75.5800       272
    75.6000       280
    75.6200       296
    75.6400       316
    75.6600       322
    75.6800       358
    75.7000       354
    75.7200       366
    75.7400       362
    75.7600       364
    75.7800       372
    75.8000       386
    75.8200       432
    75.8400       412
    75.8600       444
    75.8800       382
    75.9000       414
    75.9200       420
    75.9400       398
    75.9600       386
    75.9800       410
    76.0000       394
    76.0200       396
    76.0400       376
    76.0600       382
    76.0800       374
    76.1000       370
    76.1200       358
    76.1400       360
    76.1600       354
    76.1800       346
    76.2000       378
    76.2200       334
    76.2400       380
    76.2600       342
    76.2800       334
    76.3000       394
    76.3200       336
    76.3400       364
    76.3600       360
    76.3800       368
    76.4000       360
    76.4200       340
    76.4400       360
    76.4600       370
    76.4800       374
    76.5000       362
    76.5200       382
    76.5400       362
    76.5600       406
    76.5800       376
    76.6000       384
    76.6200       442
    76.6400       394
    76.6600       426
    76.6800       410
    76.7000       396
    76.7200       362
    76.7400       376
    76.7600       376
    76.7800       344
    76.8000       406
    76.8200       374
    76.8400       354
    76.8600       346
    76.8800       386
    76.9000       356
    76.9200       342
    76.9400       338
    76.9600       312
    76.9800       292
    77.0000       272
    77.0200       368
    77.0400       316
    77.0600       316
    77.0800       334
    77.1000       318
    77.1200       332
    77.1400       352
    77.1600       364
    77.1800       372
    77.2000       360
    77.2200       382
    77.2400       440
    77.2600       418
    77.2800       402
    77.3000       404
    77.3200       472
    77.3400       496
    77.3600       538
    77.3800       534
    77.4000       562
    77.4200       612
    77.4400       672
    77.4600       728
    77.4800       780
    77.5000       826
    77.5200       870
    77.5400       958
    77.5600       900
    77.5800       948
    77.6000       964
    77.6200       898
    77.6400       902
    77.6600       876
    77.6800       920
    77.7000       956
    77.7200       900
    77.7400       832
    77.7600       844
    77.7800       812
    77.8000       794
    77.8200       768
    77.8400       778
    77.8600       686
    77.8800       632
    77.9000       648
    77.9200       626
    77.9400       590
    77.9600       546
    77.9800       470
    78.0000       476
    78.0200       456
    78.0400       446
    78.0600       416
    78.0800       458
    78.1000       430
    78.1200       410
    78.1400       382
    78.1600       398
    78.1800       398
    78.2000       394
    78.2200       390
    78.2400       390
    78.2600       394
    78.2800       382
    78.3000       366
    78.3200       408
    78.3400       368
    78.3600       384
    78.3800       406
    78.4000       432
    78.4200       440
    78.4400       438
    78.4600       416
    78.4800       452
    78.5000       448
    78.5200       442
    78.5400       432
    78.5600       412
    78.5800       430
    78.6000       442
    78.6200       480
    78.6400       424
    78.6600       458
    78.6800       442
    78.7000       458
    78.7200       442
    78.7400       394
    78.7600       382
    78.7800       394
    78.8000       408
    78.8200       396
    78.8400       380
    78.8600       370
    78.8800       338
    78.9000       352
    78.9200       316
    78.9400       324
    78.9600       326
    78.9800       308
    79.0000       298
    79.0200       280
    79.0400       282
    79.0600       256
    79.0800       262
    79.1000       278
    79.1200       236
    79.1400       242
    79.1600       258
    79.1800       238
    79.2000       210
    79.2200       228
    79.2400       194
    79.2600       236
    79.2800       204
    79.3000       226
    79.3200       232
    79.3400       254
    79.3600       232
    79.3800       218
    79.4000       242
    79.4200       216
    79.4400       248
    79.4600       220
    79.4800       244
    79.5000       244
    79.5200       212
    79.5400       236
    79.5600       258
    79.5800       238
    79.6000       290
    79.6200       254
    79.6400       258
    79.6600       286
    79.6800       270
    79.7000       272
    79.7200       230
    79.7400       252
    79.7600       258
    79.7800       252
    79.8000       230
    79.8200       244
    79.8400       228
    79.8600       246
    79.8800       254
    79.9000       288
    79.9200       260
    79.9400       246
    79.9600       248
    79.9800       276
    80.0000       218
    80.0200       218
    80.0400       218
    80.0600       212
    80.0800       230
    80.1000       236
    80.1200       210
    80.1400       236
    80.1600       222
    80.1800       226
    80.2000       218
    80.2200       218
    80.2400       218
    80.2600       200
    80.2800       218
    80.3000       214
    80.3200       220
    80.3400       240
    80.3600       228
    80.3800       220
    80.4000       226
    80.4200       210
    80.4400       202
    80.4600       216
    80.4800       218
    80.5000       208
    80.5200       182
    80.5400       210
    80.5600       178
    80.5800       204
    80.6000       206
    80.6200       174
    80.6400       196
    80.6600       208
    80.6800       194
    80.7000       178
    80.7200       194
    80.7400       204
    80.7600       180
    80.7800       184
    80.8000       186
    80.8200       180
    80.8400       172
    80.8600       192
    80.8800       176
    80.9000       194
    80.9200       196
    80.9400       194
    80.9600       214
    80.9800       202
    81.0000       184
    81.0200       218
    81.0400       254
    81.0600       206
    81.0800       216
    81.1000       252
    81.1200       226
    81.1400       218
    81.1600       256
    81.1800       238
    81.2000       258
    81.2200       218
    81.2400       272
    81.2600       272
    81.2800       258
    81.3000       250
    81.3200       254
    81.3400       238
    81.3600       254
    81.3800       240
    81.4000       266
    81.4200       260
    81.4400       242
    81.4600       230
    81.4800       248
    81.5000       252
    81.5200       276
    81.5400       262
    81.5600       264
    81.5800       234
    81.6000       238
    81.6200       264
    81.6400       206
    81.6600       236
    81.6800       232
    81.7000       244
    81.7200       250
    81.7400       262
    81.7600       244
    81.7800       258
    81.8000       232
    81.8200       234
    81.8400       260
    81.8600       270
    81.8800       240
    81.9000       282
    81.9200       278
    81.9400       272
    81.9600       282
    81.9800       224
    82.0000       226
    82.0200       258
    82.0400       266
    82.0600       274
    82.0800       304
    82.1000       290
    82.1200       300
    82.1400       296
    82.1600       272
    82.1800       282
    82.2000       344
    82.2200       320
    82.2400       308
    82.2600       326
    82.2800       332
    82.3000       346
    82.3200       330
    82.3400       322
    82.3600       296
    82.3800       290
    82.4000       336
    82.4200       308
    82.4400       348
    82.4600       296
    82.4800       370
    82.5000       340
    82.5200       350
    82.5400       376
    82.5600       388
    82.5800       350
    82.6000       392
    82.6200       386
    82.6400       422
    82.6600       390
    82.6800       390
    82.7000       408
    82.7200       426
    82.7400       428
    82.7600       410
    82.7800       420
    82.8000       412
    82.8200       392
    82.8400       418
    82.8600       410
    82.8800       388
    82.9000       406
    82.9200       416
    82.9400       390
    82.9600       388
    82.9800       412
    83.0000       424
    83.0200       438
    83.0400       468
    83.0600       418
    83.0800       470
    83.1000       440
    83.1200       440
    83.1400       470
    83.1600       462
    83.1800       410
    83.2000       442
    83.2200       468
    83.2400       464
    83.2600       494
    83.2800       464
    83.3000       462
    83.3200       516
    83.3400       460
    83.3600       490
    83.3800       422
    83.4000       436
    83.4200       430
    83.4400       416
    83.4600       434
    83.4800       412
    83.5000       428
    83.5200       406
    83.5400       400
    83.5600       400
    83.5800       378
    83.6000       386
    83.6200       366
    83.6400       336
    83.6600       352
    83.6800       376
    83.7000       350
    83.7200       362
    83.7400       330
    83.7600       310
    83.7800       306
    83.8000       324
    83.8200       308
    83.8400       310
    83.8600       296
    83.8800       296
    83.9000       274
    83.9200       296
    83.9400       294
    83.9600       294
    83.9800       322
    84.0000       322
    84.0200       296
    84.0400       286
    84.0600       258
    84.0800       282
    84.1000       280
    84.1200       266
    84.1400       276
    84.1600       220
    84.1800       254
    84.2000       256
    84.2200       246
    84.2400       234
    84.2600       252
    84.2800       266
    84.3000       236
    84.3200       220
    84.3400       236
    84.3600       224
    84.3800       224
    84.4000       224
    84.4200       196
    84.4400       216
    84.4600       196
    84.4800       214
    84.5000       224
    84.5200       200
    84.5400       208
    84.5600       202
    84.5800       212
    84.6000       180
    84.6200       192
    84.6400       194
    84.6600       198
    84.6800       200
    84.7000       208
    84.7200       230
    84.7400       220
    84.7600       180
    84.7800       214
    84.8000       188
    84.8200       214
    84.8400       222
    84.8600       190
    84.8800       192
    84.9000       198
    84.9200       176
    84.9400       174
    84.9600       184
    84.9800       252
    85.0000       180
    85.0200       182
    85.0400       184
    85.0600       194
    85.0800       212
    85.1000       214
    85.1200       198
    85.1400       210
    85.1600       232
    85.1800       210
    85.2000       222
    85.2200       192
    85.2400       224
    85.2600       224
    85.2800       212
    85.3000       228
    85.3200       254
    85.3400       226
    85.3600       230
    85.3800       220
    85.4000       262
    85.4200       246
    85.4400       272
    85.4600       312
    85.4800       270
    85.5000       286
    85.5200       280
    85.5400       256
    85.5600       272
    85.5800       260
    85.6000       270
    85.6200       242
    85.6400       234
    85.6600       242
    85.6800       248
    85.7000       240
    85.7200       248
    85.7400       238
    85.7600       236
    85.7800       250
    85.8000       234
    85.8200       242
    85.8400       212
    85.8600       220
    85.8800       220
    85.9000       232
    85.9200       206
    85.9400       202
    85.9600       192
    85.9800       178
    86.0000       198
    86.0200       206
    86.0400       194
    86.0600       188
    86.0800       174
    86.1000       192
    86.1200       184
    86.1400       214
    86.1600       188
    86.1800       198
    86.2000       202
    86.2200       208
    86.2400       198
    86.2600       182
    86.2800       196
    86.3000       222
    86.3200       192
    86.3400       196
    86.3600       204
    86.3800       202
    86.4000       206
    86.4200       244
    86.4400       224
    86.4600       204
    86.4800       232
    86.5000       244
    86.5200       246
    86.5400       250
    86.5600       232
    86.5800       248
    86.6000       240
    86.6200       258
    86.6400       216
    86.6600       272
    86.6800       280
    86.7000       278
    86.7200       334
    86.7400       290
    86.7600       316
    86.7800       326
    86.8000       330
    86.8200       336
    86.8400       386
    86.8600       390
    86.8800       374
    86.9000       362
    86.9200       360
    86.9400       384
    86.9600       420
    86.9800       414
    87.0000       396
    87.0200       432
    87.0400       428
    87.0600       442
    87.0800       470
    87.1000       444
    87.1200       498
    87.1400       466
    87.1600       484
    87.1800       544
    87.2000       492
    87.2200       536
    87.2400       546
    87.2600       552
    87.2800       562
    87.3000       568
    87.3200       570
    87.3400       590
    87.3600       654
    87.3800       580
    87.4000       604
    87.4200       610
    87.4400       582
    87.4600       574
    87.4800       564
    87.5000       526
    87.5200       552
    87.5400       562
    87.5600       530
    87.5800       564
    87.6000       536
    87.6200       516
    87.6400       588
    87.6600       544
    87.6800       532
    87.7000       528
    87.7200       528
    87.7400       530
    87.7600       492
    87.7800       486
    87.8000       488
    87.8200       460
    87.8400       454
    87.8600       446
    87.8800       452
    87.9000       426
    87.9200       414
    87.9400       394
    87.9600       424
    87.9800       382
    88.0000       402
    88.0200       362
    88.0400       372
    88.0600       350
    88.0800       378
    88.1000       376
    88.1200       348
    88.1400       344
    88.1600       332
    88.1800       294
    88.2000       276
    88.2200       288
    88.2400       310
    88.2600       276
    88.2800       298
    88.3000       270
    88.3200       268
    88.3400       296
    88.3600       284
    88.3800       274
    88.4000       288
    88.4200       274
    88.4400       308
    88.4600       258
    88.4800       290
    88.5000       258
    88.5200       266
    88.5400       304
    88.5600       260
    88.5800       280
    88.6000       272
    88.6200       260
    88.6400       256
    88.6600       246
    88.6800       256
    88.7000       238
    88.7200       276
    88.7400       252
    88.7600       232
    88.7800       258
    88.8000       276
    88.8200       240
    88.8400       254
    88.8600       272
    88.8800       222
    88.9000       234
    88.9200       250
    88.9400       274
    88.9600       204
    88.9800       260
    89.0000       242
    89.0200       226
    89.0400       236
    89.0600       240
    89.0800       230
    89.1000       208
    89.1200       222
    89.1400       244
    89.1600       202
    89.1800       242
    89.2000       238
    89.2200       232
    89.2400       224
    89.2600       244
    89.2800       250
    89.3000       266
    89.3200       240
    89.3400       268
    89.3600       256
    89.3800       246
    89.4000       262
    89.4200       254
    89.4400       282
    89.4600       248
    89.4800       268
    89.5000       244
    89.5200       254
    89.5400       254
    89.5600       288
    89.5800       260
    89.6000       264
    89.6200       256
    89.6400       288
    89.6600       286
    89.6800       302
    89.7000       288
    89.7200       294
    89.7400       270
    89.7600       272
    89.7800       268
    89.8000       276
    89.8200       288
    89.8400       282
    89.8600       308
    89.8800       296
    89.9000       266
    89.9200       334
    89.9400       310
    89.9600       318
    89.9800       310
    90.0000       332
