    10.0000       378
    10.0200       386
    10.0400       372
    10.0600       332
    10.0800       298
    10.1000       318
    10.1200       348
    10.1400       334
    10.1600       348
    10.1800       344
    10.2000       370
    10.2200       342
    10.2400       322
    10.2600       358
    10.2800       330
    10.3000       358
    10.3200       360
    10.3400       356
    10.3600       322
    10.3800       326
    10.4000       300
    10.4200       332
    10.4400       342
    10.4600       302
    10.4800       350
    10.5000       312
    10.5200       314
    10.5400       350
    10.5600       332
    10.5800       326
    10.6000       336
    10.6200       304
    10.6400       312
    10.6600       336
    10.6800       338
    10.7000       328
    10.7200       284
    10.7400       330
    10.7600       322
    10.7800       334
    10.8000       338
    10.8200       328
    10.8400       318
    10.8600       310
    10.8800       322
    10.9000       308
    10.9200       326
    10.9400       308
    10.9600       330
    10.9800       328
    11.0000       304
    11.0200       292
    11.0400       334
    11.0600       286
    11.0800       306
    11.1000       344
    11.1200       332
    11.1400       278
    11.1600       258
    11.1800       320
    11.2000       318
    11.2200       320
    11.2400       302
    11.2600       314
    11.2800       320
    11.3000       296
    11.3200       302
    11.3400       298
    11.3600       318
    11.3800       318
    11.4000       282
    11.4200       306
    11.4400       310
    11.4600       322
    11.4800       300
    11.5000       258
    11.5200       284
    11.5400       354
    11.5600       306
    11.5800       320
    11.6000       306
    11.6200       320
    11.6400       302
    11.6600       276
    11.6800       282
    11.7000       290
    11.7200       308
    11.7400       302
    11.7600       300
    11.7800       280
    11.8000       280
    11.8200       290
    11.8400       288
    11.8600       298
    11.8800       288
    11.9000       288
    11.9200       270
    11.9400       312
    11.9600       302
    11.9800       306
    12.0000       276
    12.0200       310
    12.0400       258
    12.0600       288
    12.0800       286
    12.1000       292
    12.1200       278
    12.1400       296
    12.1600       262
    12.1800       276
    12.2000       278
    12.2200       284
    12.2400       306
    12.2600       276
    12.2800       302
    12.3000       272
    12.3200       284
    12.3400       272
    12.3600       286
    12.3800       290
    12.4000       298
    12.4200       264
    12.4400       268
    12.4600       260
    12.4800       270
    12.5000       246
    12.5200       284
    12.5400       250
    12.5600       262
    12.5800       304
    12.6000       300
    12.6200       272
    12.6400       294
    12.6600       240
    12.6800       260
    12.7000       264
    12.7200       310
    12.7400       246
    12.7600       268
    12.7800       276
    12.8000       276
    12.8200       248
    12.8400       260
    12.8600       244
    12.8800       258
    12.9000       280
    12.9200       244
    12.9400       242
    12.9600       240
    12.9800       268
    13.0000       250
    13.0200       252
    13.0400       246
    13.0600       258
    13.0800       274
    13.1000       238
    13.1200       274
    13.1400       244
    13.1600       246
    13.1800       240
    13.2000       286
    13.2200       272
    13.2400       260
    13.2600       240
    13.2800       246
    13.3000       216
    13.3200       266
    13.3400       248
    13.3600       242
    13.3800       248
    13.4000       246
    13.4200       244
    13.4400       252
    13.4600       270
    13.4800       262
    13.5000       230
    13.5200       250
    13.5400       260
    13.5600       248
    13.5800       258
    13.6000       258
    13.6200       254
    13.6400       248
    13.6600       250
    13.6800       252
    13.7000       234
    13.7200       244
    13.7400       270
    13.7600       244
    13.7800       232
    13.8000       242
    13.8200       224
    13.8400       250
    13.8600       252
    13.8800       250
    13.9000       228
    13.9200       242
    13.9400       252
    13.9600       198
    13.9800       230
    14.0000       210
    14.0200       222
    14.0400       222
    14.0600       230
    14.0800       238
    14.1000       222
    14.1200       238
    14.1400       228
    14.1600       230
    14.1800       262
    14.2000       224
    14.2200       216
    14.2400       200
    14.2600       246
    14.2800       236
    14.3000       248
    14.3200       226
    14.3400       210
    14.3600       226
    14.3800       214
    14.4000       248
    14.4200       248
    14.4400       214
    14.4600       216
    14.4800       242
    14.5000       230
    14.5200       188
    14.5400       230
    14.5600       214
    14.5800       206
    14.6000       194
    14.6200       204
    14.6400       240
    14.6600       222
    14.6800       206
    14.7000       228
    14.7200       204
    14.7400       218
    14.7600       232
    14.7800       244
    14.8000       218
    14.8200       214
    14.8400       184
    14.8600       206
    14.8800       196
    14.9000       210
    14.9200       234
    14.9400       208
    14.9600       192
    14.9800       216
    15.0000       218
    15.0200       248
    15.0400       196
    15.0600       244
    15.0800       198
    15.1000       212
    15.1200       202
    15.1400       196
    15.1600       208
    15.1800       188
    15.2000       206
    15.2200       224
    15.2400       218
    15.2600       192
    15.2800       226
    15.3000       194
    15.3200       188
    15.3400       222
    15.3600       222
    15.3800       216
    15.4000       190
    15.4200       210
    15.4400       218
    15.4600       204
    15.4800       236
    15.5000       204
    15.5200       236
    15.5400       190
    15.5600       190
    15.5800       212
    15.6000       206
    15.6200       204
    15.6400       206
    15.6600       210
    15.6800       250
    15.7000       190
    15.7200       192
    15.7400       238
    15.7600       218
    15.7800       202
    15.8000       206
    15.8200       184
    15.8400       190
    15.8600       198
    15.8800       218
    15.9000       198
    15.9200       184
    15.9400       192
    15.9600       216
    15.9800       196
    16.0000       182
    16.0200       230
    16.0400       206
    16.0600       220
    16.0800       194
    16.1000       222
    16.1200       198
    16.1400       194
    16.1600       216
    16.1800       202
    16.2000       196
    16.2200       192
    16.2400       244
    16.2600       220
    16.2800       208
    16.3000       208
    16.3200       204
    16.3400       210
    16.3600       190
    16.3800       206
    16.4000       208
    16.4200       216
    16.4400       200
    16.4600       194
    16.4800       196
    16.5000       200
    16.5200       186
    16.5400       182
    16.5600       194
    16.5800       216
    16.6000       214
    16.6200       194
    16.6400       174
    16.6600       164
    16.6800       202
    16.7000       200
    16.7200       206
    16.7400       174
    16.7600       210
    16.7800       174
    16.8000       210
    16.8200       190
    16.8400       174
    16.8600       206
    16.8800       196
    16.9000       192
    16.9200       194
    16.9400       212
    16.9600       178
    16.9800       184
    17.0000       178
    17.0200       204
    17.0400       202
    17.0600       204
    17.0800       180
    17.1000       220
    17.1200       182
    17.1400       192
    17.1600       186
    17.1800       188
    17.2000       186
    17.2200       200
    17.2400       190
    17.2600       186
    17.2800       186
    17.3000       218
    17.3200       192
    17.3400       210
    17.3600       184
    17.3800       196
    17.4000       184
    17.4200       176
    17.4400       192
    17.4600       196
    17.4800       174
    17.5000       188
    17.5200       192
    17.5400       176
    17.5600       198
    17.5800       176
    17.6000       180
    17.6200       180
    17.6400       182
    17.6600       176
    17.6800       204
    17.7000       162
    17.7200       174
    17.7400       176
    17.7600       204
    17.7800       188
    17.8000       170
    17.8200       206
    17.8400       172
    17.8600       196
    17.8800       176
    17.9000       178
    17.9200       190
    17.9400       184
    17.9600       174
    17.9800       182
    18.0000       200
    18.0200       200
    18.0400       176
    18.0600       184
    18.0800       164
    18.1000       196
    18.1200       174
    18.1400       202
    18.1600       170
    18.1800       174
    18.2000       194
    18.2200       200
    18.2400       156
    18.2600       194
    18.2800       160
    18.3000       190
    18.3200       174
    18.3400       198
    18.3600       180
    18.3800       190
    18.4000       192
    18.4200       194
    18.4400       196
    18.4600       216
    18.4800       186
    18.5000       174
    18.5200       190
    18.5400       182
    18.5600       186
    18.5800       184
    18.6000       214
    18.6200       214
    18.6400       206
    18.6600       212
    18.6800       198
    18.7000       200
    18.7200       224
    18.7400       242
    18.7600       216
    18.7800       262
    18.8000       268
    18.8200       246
    18.8400       276
    18.8600       290
    18.8800       304
    18.9000       260
    18.9200       302
    18.9400       302
    18.9600       352
    18.9800       342
    19.0000       354
    19.0200       336
    19.0400       344
    19.0600       382
    19.0800       388
    19.1000       388
    19.1200       446
    19.1400       420
    19.1600       432
    19.1800       518
    19.2000       550
    19.2200       600
    19.2400       692
    19.2600       722
    19.2800       802
    19.3000       938
    19.3200      1086
    19.3400      1192
    19.3600      1384
    19.3800      1558
    19.4000      1868
    19.4200      2126
    19.4400      2546
    19.4600      2936
    19.4800      3402
    19.5000      3682
    19.5200      3848
    19.5400      3822
    19.5600      3638
    19.5800      3176
    19.6000      2778
    19.6200      2230
    19.6400      1748
    19.6600      1476
    19.6800      1194
    19.7000      1174
    19.7200      1188
    19.7400      1212
    19.7600      1246
    19.7800      1362
    19.8000      1590
    19.8200      1592
    19.8400      1910
    19.8600      2056
    19.8800      2302
    19.9000      2464
    19.9200      2704
    19.9400      2504
    19.9600      2480
    19.9800      2368
    20.0000      2146
    20.0200      1798
    20.0400      1550
    20.0600      1278
    20.0800      1038
    20.1000       842
    20.1200       640
    20.1400       526
    20.1600       452
    20.1800       410
    20.2000       358
    20.2200       336
    20.2400       304
    20.2600       300
    20.2800       258
    20.3000       240
    20.3200       224
    20.3400       250
    20.3600       240
    20.3800       222
    20.4000       238
    20.4200       210
    20.4400       218
    20.4600       204
    20.4800       206
    20.5000       190
    20.5200       224
    20.5400       214
    20.5600       204
    20.5800       214
    20.6000       178
    20.6200       164
    20.6400       174
    20.6600       204
    20.6800       166
    20.7000       208
    20.7200       172
    20.7400       188
    20.7600       178
    20.7800       174
    20.8000       172
    20.8200       164
    20.8400       156
    20.8600       176
    20.8800       200
    20.9000       182
    20.9200       166
    20.9400       194
    20.9600       194
    20.9800       176
    21.0000       190
    21.0200       166
    21.0400       172
    21.0600       184
    21.0800       186
    21.1000       170
    21.1200       166
    21.1400       182
    21.1600       186
    21.1800       198
    21.2000       144
    21.2200       168
    21.2400       168
    21.2600       168
    21.2800       186
    21.3000       200
    21.3200       172
    21.3400       166
    21.3600       158
    21.3800       186
    21.4000       190
    21.4200       178
    21.4400       206
    21.4600       164
    21.4800       184
    21.5000       150
    21.5200       176
    21.5400       148
    21.5600       182
    21.5800       180
    21.6000       152
    21.6200       138
    21.6400       168
    21.6600       160
    21.6800       162
    21.7000       144
    21.7200       156
    21.7400       166
    21.7600       188
    21.7800       162
    21.8000       180
    21.8200       150
    21.8400       188
    21.8600       174
    21.8800       220
    21.9000       188
    21.9200       198
    21.9400       190
    21.9600       174
    21.9800       176
    22.0000       214
    22.0200       200
    22.0400       212
    22.0600       190
    22.0800       204
    22.1000       228
    22.1200       196
    22.1400       238
    22.1600       234
    22.1800       210
    22.2000       210
    22.2200       238
    22.2400       246
    22.2600       260
    22.2800       254
    22.3000       272
    22.3200       320
    22.3400       290
    22.3600       326
    22.3800       338
    22.4000       350
    22.4200       436
    22.4400       462
    22.4600       474
    22.4800       588
    22.5000       566
    22.5200       708
    22.5400       760
    22.5600       912
    22.5800      1002
    22.6000      1214
    22.6200      1228
    22.6400      1500
    22.6600      1744
    22.6800      2002
    22.7000      2256
    22.7200      2620
    22.7400      3260
    22.7600      3592
    22.7800      4062
    22.8000      4340
    22.8200      4592
    22.8400      4424
    22.8600      4324
    22.8800      3774
    22.9000      3292
    22.9200      2630
    22.9400      2090
    22.9600      1628
    22.9800      1312
    23.0000      1056
    23.0200       916
    23.0400       788
    23.0600       680
    23.0800       660
    23.1000       680
    23.1200       584
    23.1400       578
    23.1600       510
    23.1800       466
    23.2000       404
    23.2200       370
    23.2400       314
    23.2600       288
    23.2800       288
    23.3000       260
    23.3200       262
    23.3400       218
    23.3600       222
    23.3800       238
    23.4000       232
    23.4200       218
    23.4400       206
    23.4600       216
    23.4800       220
    23.5000       184
    23.5200       192
    23.5400       190
    23.5600       182
    23.5800       182
    23.6000       166
    23.6200       168
    23.6400       174
    23.6600       164
    23.6800       186
    23.7000       170
    23.7200       184
    23.7400       192
    23.7600       168
    23.7800       158
    23.8000       160
    23.8200       140
    23.8400       184
    23.8600       158
    23.8800       162
    23.9000       162
    23.9200       172
    23.9400       170
    23.9600       196
    23.9800       164
    24.0000       144
    24.0200       156
    24.0400       178
    24.0600       182
    24.0800       164
    24.1000       154
    24.1200       172
    24.1400       188
    24.1600       174
    24.1800       152
    24.2000       174
    24.2200       152
    24.2400       152
    24.2600       160
    24.2800       178
    24.3000       172
    24.3200       148
    24.3400       178
    24.3600       144
    24.3800       170
    24.4000       172
    24.4200       148
    24.4400       178
    24.4600       184
    24.4800       168
    24.5000       144
    24.5200       154
    24.5400       164
    24.5600       178
    24.5800       166
    24.6000       154
    24.6200       182
    24.6400       184
    24.6600       178
    24.6800       168
    24.7000       162
    24.7200       162
    24.7400       160
    24.7600       160
    24.7800       174
    24.8000       178
    24.8200       186
    24.8400       170
    24.8600       178
    24.8800       172
    24.9000       174
    24.9200       162
    24.9400       176
    24.9600       172
    24.9800       150
    25.0000       196
    25.0200       194
    25.0400       196
    25.0600       154
    25.0800       160
    25.1000       186
    25.1200       202
    25.1400       218
    25.1600       214
    25.1800       222
    25.2000       248
    25.2200       244
    25.2400       280
    25.2600       234
    25.2800       304
    25.3000       326
    25.3200       316
    25.3400       368
    25.3600       374
    25.3800       422
    25.4000       482
    25.4200       512
    25.4400       626
    25.4600       686
    25.4800       800
    25.5000       912
    25.5200      1046
    25.5400      1058
    25.5600      1086
    25.5800      1134
    25.6000      1030
    25.6200      1008
    25.6400       882
    25.6600       684
    25.6800       622
    25.7000       562
    25.7200       454
    25.7400       420
    25.7600       352
    25.7800       300
    25.8000       316
    25.8200       272
    25.8400       280
    25.8600       248
    25.8800       282
    25.9000       262
    25.9200       228
    25.9400       226
    25.9600       226
    25.9800       210
    26.0000       212
    26.0200       200
    26.0400       196
    26.0600       174
    26.0800       188
    26.1000       184
    26.1200       164
    26.1400       192
    26.1600       186
    26.1800       162
    26.2000       190
    26.2200       168
    26.2400       182
    26.2600       174
    26.2800       156
    26.3000       158
    26.3200       158
    26.3400       160
    26.3600       190
    26.3800       186
    26.4000       176
    26.4200       184
    26.4400       176
    26.4600       204
    26.4800       164
    26.5000       174
    26.5200       172
    26.5400       164
    26.5600       184
    26.5800       168
    26.6000       180
    26.6200       154
    26.6400       138
    26.6600       168
    26.6800       172
    26.7000       166
    26.7200       154
    26.7400       198
    26.7600       168
    26.7800       180
    26.8000       180
    26.8200       188
    26.8400       156
    26.8600       164
    26.8800       166
    26.9000       166
    26.9200       154
    26.9400       170
    26.9600       166
    26.9800       158
    27.0000       178
    27.0200       178
    27.0400       168
    27.0600       210
    27.0800       140
    27.1000       172
    27.1200       164
    27.1400       160
    27.1600       178
    27.1800       180
    27.2000       180
    27.2200       170
    27.2400       176
    27.2600       164
    27.2800       140
    27.3000       170
    27.3200       162
    27.3400       188
    27.3600       180
    27.3800       190
    27.4000       164
    27.4200       206
    27.4400       198
    27.4600       198
    27.4800       186
    27.5000       214
    27.5200       178
    27.5400       202
    27.5600       202
    27.5800       178
    27.6000       208
    27.6200       210
    27.6400       238
    27.6600       232
    27.6800       208
    27.7000       232
    27.7200       266
    27.7400       282
    27.7600       292
    27.7800       332
    27.8000       346
    27.8200       342
    27.8400       356
    27.8600       404
    27.8800       452
    27.9000       518
    27.9200       594
    27.9400       648
    27.9600       752
    27.9800       858
    28.0000       896
    28.0200      1048
    28.0400      1260
    28.0600      1438
    28.0800      1758
    28.1000      1984
    28.1200      2368
    28.1400      2810
    28.1600      3350
    28.1800      4030
    28.2000      4864
    28.2200      5704
    28.2400      6490
    28.2600      6810
    28.2800      7026
    28.3000      6652
    28.3200      6036
    28.3400      5164
    28.3600      4302
    28.3800      3546
    28.4000      2758
    28.4200      2056
    28.4400      1600
    28.4600      1334
    28.4800      1094
    28.5000       904
    28.5200       758
    28.5400       646
    28.5600       594
    28.5800       542
    28.6000       444
    28.6200       462
    28.6400       370
    28.6600       368
    28.6800       322
    28.7000       304
    28.7200       280
    28.7400       280
    28.7600       244
    28.7800       264
    28.8000       236
    28.8200       240
    28.8400       210
    28.8600       224
    28.8800       220
    28.9000       202
    28.9200       212
    28.9400       208
    28.9600       200
    28.9800       204
    29.0000       208
    29.0200       184
    29.0400       212
    29.0600       212
    29.0800       212
    29.1000       178
    29.1200       176
    29.1400       192
    29.1600       204
    29.1800       170
    29.2000       186
    29.2200       162
    29.2400       170
    29.2600       170
    29.2800       204
    29.3000       166
    29.3200       176
    29.3400       168
    29.3600       194
    29.3800       160
    29.4000       186
    29.4200       160
    29.4400       172
    29.4600       190
    29.4800       186
    29.5000       200
    29.5200       162
    29.5400       196
    29.5600       200
    29.5800       170
    29.6000       176
    29.6200       168
    29.6400       174
    29.6600       168
    29.6800       168
    29.7000       156
    29.7200       170
    29.7400       158
    29.7600       174
    29.7800       150
    29.8000       180
    29.8200       188
    29.8400       176
    29.8600       186
    29.8800       164
    29.9000       152
    29.9200       152
    29.9400       164
    29.9600       174
    29.9800       156
    30.0000       178
    30.0200       164
    30.0400       172
    30.0600       168
    30.0800       180
    30.1000       194
    30.1200       152
    30.1400       186
    30.1600       212
    30.1800       172
    30.2000       190
    30.2200       184
    30.2400       196
    30.2600       188
    30.2800       204
    30.3000       184
    30.3200       174
    30.3400       198
    30.3600       168
    30.3800       182
    30.4000       208
    30.4200       170
    30.4400       206
    30.4600       200
    30.4800       188
    30.5000       226
    30.5200       206
    30.5400       186
    30.5600       214
    30.5800       186
    30.6000       216
    30.6200       210
    30.6400       248
    30.6600       258
    30.6800       208
    30.7000       228
    30.7200       254
    30.7400       236
    30.7600       232
    30.7800       240
    30.8000       256
    30.8200       284
    30.8400       258
    30.8600       310
    30.8800       222
    30.9000       270
    30.9200       292
    30.9400       314
    30.9600       316
    30.9800       330
    31.0000       344
    31.0200       396
    31.0400       374
    31.0600       400
    31.0800       436
    31.1000       466
    31.1200       538
    31.1400       518
    31.1600       570
    31.1800       544
    31.2000       542
    31.2200       600
    31.2400       606
    31.2600       608
    31.2800       606
    31.3000       544
    31.3200       558
    31.3400       534
    31.3600       574
    31.3800       500
    31.4000       506
    31.4200       494
    31.4400       460
    31.4600       454
    31.4800       450
    31.5000       490
    31.5200       498
    31.5400       468
    31.5600       484
    31.5800       530
    31.6000       544
    31.6200       510
    31.6400       540
    31.6600       606
    31.6800       668
    31.7000       642
    31.7200       714
    31.7400       730
    31.7600       872
    31.7800       980
    31.8000      1014
    31.8200      1230
    31.8400      1368
    31.8600      1536
    31.8800      1822
    31.9000      1974
    31.9200      2240
    31.9400      2486
    31.9600      2800
    31.9800      2936
    32.0000      2826
    32.0200      2812
    32.0400      2754
    32.0600      2576
    32.0800      2406
    32.1000      2290
    32.1200      2222
    32.1400      1984
    32.1600      1924
    32.1800      1818
    32.2000      1944
    32.2200      2002
    32.2400      2132
    32.2600      2350
    32.2800      2638
    32.3000      2956
    32.3200      3296
    32.3400      3938
    32.3600      4470
    32.3800      5210
    32.4000      5940
    32.4200      6442
    32.4400      7310
    32.4600      7692
    32.4800      8018
    32.5000      8276
    32.5200      8260
    32.5400      7976
    32.5600      7440
    32.5800      6664
    32.6000      6038
    32.6200      5220
    32.6400      4506
    32.6600      3906
    32.6800      3218
    32.7000      2762
    32.7200      2390
    32.7400      2166
    32.7600      1796
    32.7800      1748
    32.8000      1530
    32.8200      1572
    32.8400      1552
    32.8600      1536
    32.8800      1626
    32.9000      1710
    32.9200      1690
    32.9400      1786
    32.9600      1814
    32.9800      1778
    33.0000      1856
    33.0200      1704
    33.0400      1670
    33.0600      1602
    33.0800      1536
    33.1000      1532
    33.1200      1358
    33.1400      1206
    33.1600      1040
    33.1800       950
    33.2000       794
    33.2200       738
    33.2400       660
    33.2600       594
    33.2800       550
    33.3000       506
    33.3200       460
    33.3400       408
    33.3600       398
    33.3800       356
    33.4000       358
    33.4200       344
    33.4400       350
    33.4600       344
    33.4800       296
    33.5000       292
    33.5200       260
    33.5400       276
    33.5600       252
    33.5800       248
    33.6000       270
    33.6200       212
    33.6400       252
    33.6600       182
    33.6800       200
    33.7000       230
    33.7200       210
    33.7400       214
    33.7600       186
    33.7800       190
    33.8000       216
    33.8200       204
    33.8400       180
    33.8600       208
    33.8800       196
    33.9000       222
    33.9200       198
    33.9400       218
    33.9600       206
    33.9800       210
    34.0000       218
    34.0200       224
    34.0400       220
    34.0600       192
    34.0800       234
    34.1000       224
    34.1200       230
    34.1400       218
    34.1600       222
    34.1800       216
    34.2000       196
    34.2200       230
    34.2400       220
    34.2600       214
    34.2800       204
    34.3000       194
    34.3200       206
    34.3400       200
    34.3600       198
    34.3800       204
    34.4000       232
    34.4200       206
    34.4400       194
    34.4600       186
    34.4800       196
    34.5000       196
    34.5200       216
    34.5400       202
    34.5600       214
    34.5800       200
    34.6000       192
    34.6200       208
    34.6400       198
    34.6600       222
    34.6800       220
    34.7000       232
    34.7200       208
    34.7400       218
    34.7600       210
    34.7800       216
    34.8000       214
    34.8200       210
    34.8400       172
    34.8600       236
    34.8800       248
    34.9000       170
    34.9200       182
    34.9400       200
    34.9600       226
    34.9800       190
    35.0000       208
    35.0200       210
    35.0400       194
    35.0600       218
    35.0800       216
    35.1000       204
    35.1200       214
    35.1400       200
    35.1600       210
    35.1800       192
    35.2000       210
    35.2200       192
    35.2400       200
    35.2600       198
    35.2800       194
    35.3000       196
    35.3200       216
    35.3400       200
    35.3600       198
    35.3800       204
    35.4000       210
    35.4200       204
    35.4400       226
    35.4600       216
    35.4800       236
    35.5000       208
    35.5200       212
    35.5400       238
    35.5600       232
    35.5800       206
    35.6000       212
    35.6200       244
    35.6400       262
    35.6600       244
    35.6800       238
    35.7000       256
    35.7200       256
    35.7400       298
    35.7600       272
    35.7800       260
    35.8000       296
    35.8200       294
    35.8400       302
    35.8600       320
    35.8800       346
    35.9000       334
    35.9200       370
    35.9400       430
    35.9600       432
    35.9800       438
    36.0000       500
    36.0200       522
    36.0400       600
    36.0600       600
    36.0800       680
    36.1000       800
    36.1200       700
    36.1400       706
    36.1600       720
    36.1800       698
    36.2000       628
    36.2200       632
    36.2400       612
    36.2600       532
    36.2800       502
    36.3000       452
    36.3200       466
    36.3400       398
    36.3600       442
    36.3800       434
    36.4000       396
    36.4200       428
    36.4400       424
    36.4600       470
    36.4800       440
    36.5000       478
    36.5200       534
    36.5400       584
    36.5600       634
    36.5800       688
    36.6000       750
    36.6200       752
    36.6400       942
    36.6600      1064
    36.6800      1140
    36.7000      1284
    36.7200      1314
    36.7400      1500
    36.7600      1570
    36.7800      1662
    36.8000      1732
    36.8200      1806
    36.8400      1812
    36.8600      1886
    36.8800      1814
    36.9000      1768
    36.9200      1626
    36.9400      1498
    36.9600      1350
    36.9800      1222
    37.0000      1096
    37.0200       924
    37.0400       862
    37.0600       758
    37.0800       742
    37.1000       682
    37.1200       572
    37.1400       574
    37.1600       520
    37.1800       530
    37.2000       510
    37.2200       486
    37.2400       412
    37.2600       452
    37.2800       456
    37.3000       398
    37.3200       406
    37.3400       380
    37.3600       420
    37.3800       398
    37.4000       348
    37.4200       354
    37.4400       368
    37.4600       372
    37.4800       414
    37.5000       386
    37.5200       400
    37.5400       452
    37.5600       398
    37.5800       428
    37.6000       466
    37.6200       462
    37.6400       488
    37.6600       510
    37.6800       526
    37.7000       568
    37.7200       620
    37.7400       696
    37.7600       740
    37.7800       740
    37.8000       894
    37.8200       930
    37.8400      1096
    37.8600      1242
    37.8800      1390
    37.9000      1484
    37.9200      1746
    37.9400      1876
    37.9600      2064
    37.9800      2090
    38.0000      2150
    38.0200      2198
    38.0400      2324
    38.0600      2206
    38.0800      2134
    38.1000      2108
    38.1200      1986
    38.1400      1930
    38.1600      1870
    38.1800      1890
    38.2000      2046
    38.2200      2008
    38.2400      2230
    38.2600      2370
    38.2800      2584
    38.3000      2984
    38.3200      3226
    38.3400      3356
    38.3600      3702
    38.3800      3938
    38.4000      4006
    38.4200      4242
    38.4400      4212
    38.4600      4314
    38.4800      4326
    38.5000      4310
    38.5200      4260
    38.5400      4168
    38.5600      4156
    38.5800      3992
    38.6000      3938
    38.6200      3846
    38.6400      3690
    38.6600      3456
    38.6800      3524
    38.7000      3344
    38.7200      3120
    38.7400      3026
    38.7600      2812
    38.7800      2542
    38.8000      2354
    38.8200      2072
    38.8400      1968
    38.8600      1802
    38.8800      1612
    38.9000      1514
    38.9200      1346
    38.9400      1282
    38.9600      1128
    38.9800      1054
    39.0000       900
    39.0200       906
    39.0400       826
    39.0600       798
    39.0800       736
    39.1000       750
    39.1200       718
    39.1400       678
    39.1600       610
    39.1800       634
    39.2000       646
    39.2200       614
    39.2400       600
    39.2600       628
    39.2800       658
    39.3000       626
    39.3200       676
    39.3400       686
    39.3600       744
    39.3800       742
    39.4000       830
    39.4200       822
    39.4400       960
    39.4600       958
    39.4800      1106
    39.5000      1308
    39.5200      1400
    39.5400      1562
    39.5600      1862
    39.5800      1986
    39.6000      2192
    39.6200      2428
    39.6400      2590
    39.6600      2642
    39.6800      2626
    39.7000      2516
    39.7200      2424
    39.7400      2224
    39.7600      1994
    39.7800      1828
    39.8000      1534
    39.8200      1430
    39.8400      1208
    39.8600      1076
    39.8800       938
    39.9000       798
    39.9200       690
    39.9400       636
    39.9600       582
    39.9800       558
    40.0000       544
    40.0200       520
    40.0400       480
    40.0600       468
    40.0800       506
    40.1000       476
    40.1200       476
    40.1400       504
    40.1600       514
    40.1800       548
    40.2000       560
    40.2200       570
    40.2400       658
    40.2600       702
    40.2800       732
    40.3000       862
    40.3200       862
    40.3400       946
    40.3600      1060
    40.3800      1070
    40.4000      1098
    40.4200      1242
    40.4400      1246
    40.4600      1298
    40.4800      1288
    40.5000      1388
    40.5200      1284
    40.5400      1338
    40.5600      1258
    40.5800      1276
    40.6000      1154
    40.6200      1112
    40.6400      1082
    40.6600      1006
    40.6800       870
    40.7000       802
    40.7200       748
    40.7400       760
    40.7600       636
    40.7800       634
    40.8000       570
    40.8200       514
    40.8400       546
    40.8600       486
    40.8800       444
    40.9000       458
    40.9200       402
    40.9400       454
    40.9600       434
    40.9800       396
    41.0000       366
    41.0200       384
    41.0400       396
    41.0600       330
    41.0800       352
    41.1000       340
    41.1200       310
    41.1400       326
    41.1600       326
    41.1800       314
    41.2000       324
    41.2200       324
    41.2400       296
    41.2600       300
    41.2800       354
    41.3000       306
    41.3200       330
    41.3400       350
    41.3600       384
    41.3800       336
    41.4000       366
    41.4200       386
    41.4400       426
    41.4600       428
    41.4800       446
    41.5000       516
    41.5200       536
    41.5400       516
    41.5600       648
    41.5800       624
    41.6000       766
    41.6200       800
    41.6400       908
    41.6600      1040
    41.6800      1104
    41.7000      1138
    41.7200      1268
    41.7400      1346
    41.7600      1530
    41.7800      1598
    41.8000      1590
    41.8200      1664
    41.8400      1676
    41.8600      1614
    41.8800      1648
    41.9000      1460
    41.9200      1440
    41.9400      1336
    41.9600      1276
    41.9800      1144
    42.0000       994
    42.0200       936
    42.0400       856
    42.0600       748
    42.0800       646
    42.1000       614
    42.1200       518
    42.1400       464
    42.1600       496
    42.1800       510
    42.2000       440
    42.2200       424
    42.2400       378
    42.2600       390
    42.2800       350
    42.3000       388
    42.3200       354
    42.3400       392
    42.3600       362
    42.3800       316
    42.4000       320
    42.4200       354
    42.4400       360
    42.4600       348
    42.4800       348
    42.5000       368
    42.5200       352
    42.5400       346
    42.5600       350
    42.5800       322
    42.6000       320
    42.6200       338
    42.6400       352
    42.6600       374
    42.6800       342
    42.7000       380
    42.7200       350
    42.7400       384
    42.7600       408
    42.7800       388
    42.8000       436
    42.8200       430
    42.8400       466
    42.8600       506
    42.8800       524
    42.9000       578
    42.9200       614
    42.9400       708
    42.9600       786
    42.9800       862
    43.0000       984
    43.0200      1092
    43.0400      1178
    43.0600      1298
    43.0800      1442
    43.1000      1594
    43.1200      1692
    43.1400      1758
    43.1600      1788
    43.1800      1810
    43.2000      1798
    43.2200      1734
    43.2400      1544
    43.2600      1418
    43.2800      1348
    43.3000      1256
    43.3200      1124
    43.3400      1016
    43.3600       912
    43.3800       764
    43.4000       724
    43.4200       654
    43.4400       586
    43.4600       586
    43.4800       532
    43.5000       542
    43.5200       514
    43.5400       550
    43.5600       516
    43.5800       538
    43.6000       570
    43.6200       558
    43.6400       600
    43.6600       658
    43.6800       632
    43.7000       670
    43.7200       652
    43.7400       662
    43.7600       750
    43.7800       672
    43.8000       754
    43.8200       674
    43.8400       726
    43.8600       628
    43.8800       646
    43.9000       606
    43.9200       544
    43.9400       548
    43.9600       482
    43.9800       508
    44.0000       438
    44.0200       424
    44.0400       414
    44.0600       378
    44.0800       394
    44.1000       364
    44.1200       366
    44.1400       364
    44.1600       360
    44.1800       356
    44.2000       354
    44.2200       336
    44.2400       332
    44.2600       348
    44.2800       344
    44.3000       346
    44.3200       372
    44.3400       356
    44.3600       372
    44.3800       354
    44.4000       368
    44.4200       356
    44.4400       344
    44.4600       416
    44.4800       422
    44.5000       408
    44.5200       450
    44.5400       426
    44.5600       462
    44.5800       456
    44.6000       468
    44.6200       520
    44.6400       532
    44.6600       528
    44.6800       544
    44.7000       522
    44.7200       518
    44.7400       560
    44.7600       534
    44.7800       506
    44.8000       532
    44.8200       512
    44.8400       562
    44.8600       520
    44.8800       516
    44.9000       548
    44.9200       444
    44.9400       506
    44.9600       462
    44.9800       472
    45.0000       446
    45.0200       424
    45.0400       500
    45.0600       428
    45.0800       390
    45.1000       414
    45.1200       408
    45.1400       410
    45.1600       366
    45.1800       428
    45.2000       410
    45.2200       408
    45.2400       408
    45.2600       400
    45.2800       404
    45.3000       420
    45.3200       382
    45.3400       392
    45.3600       390
    45.3800       396
    45.4000       420
    45.4200       400
    45.4400       358
    45.4600       398
    45.4800       434
    45.5000       420
    45.5200       416
    45.5400       420
    45.5600       402
    45.5800       440
    45.6000       426
    45.6200       438
    45.6400       486
    45.6600       444
    45.6800       486
    45.7000       474
    45.7200       506
    45.7400       488
    45.7600       520
    45.7800       506
    45.8000       534
    45.8200       530
    45.8400       516
    45.8600       542
    45.8800       588
    45.9000       596
    45.9200       632
    45.9400       602
    45.9600       598
    45.9800       678
    46.0000       640
    46.0200       654
    46.0400       734
    46.0600       746
    46.0800       780
    46.1000       836
    46.1200       878
    46.1400       868
    46.1600       920
    46.1800       966
    46.2000      1046
    46.2200      1146
    46.2400      1164
    46.2600      1324
    46.2800      1482
    46.3000      1642
    46.3200      1802
    46.3400      1896
    46.3600      2268
    46.3800      2512
    46.4000      2816
    46.4200      3108
    46.4400      3564
    46.4600      4028
    46.4800      4510
    46.5000      4996
    46.5200      5550
    46.5400      6074
    46.5600      6718
    46.5800      7108
    46.6000      7448
    46.6200      7586
    46.6400      7908
    46.6600      7996
    46.6800      7932
    46.7000      7880
    46.7200      7566
    46.7400      7512
    46.7600      6954
    46.7800      6630
    46.8000      6130
    46.8200      5900
    46.8400      5772
    46.8600      5562
    46.8800      5502
    46.9000      5648
    46.9200      5772
    46.9400      6316
    46.9600      6686
    46.9800      7206
    47.0000      7212
    47.0200      7000
    47.0400      6542
    47.0600      6084
    47.0800      5616
    47.1000      5252
    47.1200      4918
    47.1400      4524
    47.1600      4048
    47.1800      3634
    47.2000      3110
    47.2200      2778
    47.2400      2480
    47.2600      2234
    47.2800      2040
    47.3000      1770
    47.3200      1578
    47.3400      1496
    47.3600      1322
    47.3800      1234
    47.4000      1228
    47.4200      1056
    47.4400      1050
    47.4600       960
    47.4800       836
    47.5000       770
    47.5200       774
    47.5400       698
    47.5600       724
    47.5800       706
    47.6000       712
    47.6200       652
    47.6400       708
    47.6600       716
    47.6800       764
    47.7000       704
    47.7200       746
    47.7400       804
    47.7600       808
    47.7800       806
    47.8000       800
    47.8200       834
    47.8400       756
    47.8600       784
    47.8800       760
    47.9000       764
    47.9200       760
    47.9400       716
    47.9600       704
    47.9800       640
    48.0000       650
    48.0200       712
    48.0400       742
    48.0600       724
    48.0800       742
    48.1000       664
    48.1200       760
    48.1400       740
    48.1600       748
    48.1800       756
    48.2000       788
    48.2200       740
    48.2400       722
    48.2600       696
    48.2800       642
    48.3000       648
    48.3200       560
    48.3400       572
    48.3600       508
    48.3800       472
    48.4000       442
    48.4200       426
    48.4400       412
    48.4600       384
    48.4800       346
    48.5000       336
    48.5200       346
    48.5400       324
    48.5600       326
    48.5800       326
    48.6000       292
    48.6200       296
    48.6400       302
    48.6600       300
    48.6800       276
    48.7000       274
    48.7200       284
    48.7400       284
    48.7600       262
    48.7800       274
    48.8000       292
    48.8200       282
    48.8400       256
    48.8600       266
    48.8800       268
    48.9000       270
    48.9200       232
    48.9400       238
    48.9600       266
    48.9800       248
    49.0000       254
    49.0200       250
    49.0400       254
    49.0600       262
    49.0800       272
    49.1000       258
    49.1200       222
    49.1400       252
    49.1600       244
    49.1800       206
    49.2000       200
    49.2200       228
    49.2400       232
    49.2600       238
    49.2800       256
    49.3000       210
    49.3200       254
    49.3400       250
    49.3600       218
    49.3800       226
    49.4000       212
    49.4200       228
    49.4400       232
    49.4600       268
    49.4800       238
    49.5000       254
    49.5200       264
    49.5400       266
    49.5600       232
    49.5800       238
    49.6000       242
    49.6200       252
    49.6400       268
    49.6600       252
    49.6800       230
    49.7000       258
    49.7200       248
    49.7400       236
    49.7600       240
    49.7800       200
    49.8000       236
    49.8200       228
    49.8400       236
    49.8600       272
    49.8800       228
    49.9000       250
    49.9200       214
    49.9400       236
    49.9600       240
    49.9800       214
    50.0000       236
    50.0200       242
    50.0400       232
    50.0600       224
    50.0800       252
    50.1000       268
    50.1200       232
    50.1400       244
    50.1600       262
    50.1800       248
    50.2000       296
    50.2200       288
    50.2400       290
    50.2600       270
    50.2800       270
    50.3000       270
    50.3200       258
    50.3400       306
    50.3600       282
    50.3800       278
    50.4000       258
    50.4200       284
    50.4400       278
    50.4600       298
    50.4800       286
    50.5000       320
    50.5200       330
    50.5400       318
    50.5600       364
    50.5800       320
    50.6000       350
    50.6200       332
    50.6400       408
    50.6600       412
    50.6800       466
    50.7000       490
    50.7200       480
    50.7400       542
    50.7600       544
    50.7800       580
    50.8000       586
    50.8200       626
    50.8400       658
    50.8600       634
    50.8800       644
    50.9000       608
    50.9200       630
    50.9400       632
    50.9600       596
    50.9800       566
    51.0000       526
    51.0200       554
    51.0400       532
    51.0600       502
    51.0800       484
    51.1000       482
    51.1200       466
    51.1400       480
    51.1600       474
    51.1800       480
    51.2000       504
    51.2200       510
    51.2400       534
    51.2600       516
    51.2800       538
    51.3000       540
    51.3200       554
    51.3400       576
    51.3600       610
    51.3800       610
    51.4000       586
    51.4200       566
    51.4400       548
    51.4600       592
    51.4800       566
    51.5000       582
    51.5200       532
    51.5400       570
    51.5600       602
    51.5800       574
    51.6000       570
    51.6200       594
    51.6400       618
    51.6600       604
    51.6800       624
    51.7000       736
    51.7200       730
    51.7400       784
    51.7600       860
    51.7800       888
    51.8000       968
    51.8200       934
    51.8400       942
    51.8600       970
    51.8800       934
    51.9000       928
    51.9200       886
    51.9400       952
    51.9600       868
    51.9800       864
    52.0000       808
    52.0200       834
    52.0400       732
    52.0600       776
    52.0800       678
    52.1000       688
    52.1200       710
    52.1400       642
    52.1600       654
    52.1800       614
    52.2000       640
    52.2200       660
    52.2400       674
    52.2600       704
    52.2800       720
    52.3000       716
    52.3200       804
    52.3400       826
    52.3600       828
    52.3800       938
    52.4000       970
    52.4200      1076
    52.4400      1050
    52.4600      1154
    52.4800      1218
    52.5000      1234
    52.5200      1232
    52.5400      1248
    52.5600      1288
    52.5800      1270
    52.6000      1306
    52.6200      1270
    52.6400      1232
    52.6600      1162
    52.6800      1090
    52.7000      1024
    52.7200       966
    52.7400       928
    52.7600       888
    52.7800       860
    52.8000       790
    52.8200       764
    52.8400       790
    52.8600       712
    52.8800       668
    52.9000       698
    52.9200       666
    52.9400       696
    52.9600       706
    52.9800       716
    53.0000       810
    53.0200       788
    53.0400       808
    53.0600       900
    53.0800      1064
    53.1000      1076
    53.1200      1138
    53.1400      1244
    53.1600      1322
    53.1800      1466
    53.2000      1608
    53.2200      1654
    53.2400      1636
    53.2600      1616
    53.2800      1734
    53.3000      1622
    53.3200      1580
    53.3400      1548
    53.3600      1362
    53.3800      1326
    53.4000      1298
    53.4200      1136
    53.4400      1000
    53.4600       926
    53.4800       812
    53.5000       748
    53.5200       680
    53.5400       642
    53.5600       530
    53.5800       510
    53.6000       466
    53.6200       450
    53.6400       384
    53.6600       388
    53.6800       360
    53.7000       366
    53.7200       344
    53.7400       332
    53.7600       318
    53.7800       346
    53.8000       296
    53.8200       290
    53.8400       324
    53.8600       288
    53.8800       274
    53.9000       258
    53.9200       262
    53.9400       258
    53.9600       272
    53.9800       250
    54.0000       278
    54.0200       272
    54.0400       290
    54.0600       284
    54.0800       288
    54.1000       306
    54.1200       288
    54.1400       304
    54.1600       292
    54.1800       318
    54.2000       332
    54.2200       350
    54.2400       304
    54.2600       314
    54.2800       350
    54.3000       364
    54.3200       360
    54.3400       408
    54.3600       406
    54.3800       428
    54.4000       468
    54.4200       488
    54.4400       514
    54.4600       518
    54.4800       574
    54.5000       578
    54.5200       612
    54.5400       628
    54.5600       692
    54.5800       726
    54.6000       694
    54.6200       690
    54.6400       692
    54.6600       690
    54.6800       710
    54.7000       670
    54.7200       684
    54.7400       670
    54.7600       684
    54.7800       654
    54.8000       584
    54.8200       560
    54.8400       486
    54.8600       526
    54.8800       468
    54.9000       506
    54.9200       492
    54.9400       450
    54.9600       418
    54.9800       368
    55.0000       366
    55.0200       348
    55.0400       354
    55.0600       340
    55.0800       308
    55.1000       302
    55.1200       344
    55.1400       336
    55.1600       326
    55.1800       328
    55.2000       358
    55.2200       326
    55.2400       334
    55.2600       316
    55.2800       356
    55.3000       354
    55.3200       370
    55.3400       378
    55.3600       380
    55.3800       410
    55.4000       452
    55.4200       446
    55.4400       486
    55.4600       496
    55.4800       564
    55.5000       614
    55.5200       612
    55.5400       698
    55.5600       732
    55.5800       760
    55.6000       844
    55.6200       958
    55.6400      1136
    55.6600      1294
    55.6800      1436
    55.7000      1602
    55.7200      1806
    55.7400      1948
    55.7600      1964
    55.7800      1858
    55.8000      1836
    55.8200      1714
    55.8400      1656
    55.8600      1588
    55.8800      1516
    55.9000      1376
    55.9200      1428
    55.9400      1300
    55.9600      1148
    55.9800       996
    56.0000       860
    56.0200       766
    56.0400       708
    56.0600       590
    56.0800       610
    56.1000       512
    56.1200       492
    56.1400       476
    56.1600       436
    56.1800       398
    56.2000       416
    56.2200       390
    56.2400       392
    56.2600       370
    56.2800       350
    56.3000       326
    56.3200       340
    56.3400       322
    56.3600       322
    56.3800       310
    56.4000       336
    56.4200       320
    56.4400       318
    56.4600       338
    56.4800       296
    56.5000       294
    56.5200       322
    56.5400       354
    56.5600       334
    56.5800       332
    56.6000       314
    56.6200       320
    56.6400       334
    56.6600       368
    56.6800       332
    56.7000       348
    56.7200       350
    56.7400       378
    56.7600       380
    56.7800       380
    56.8000       388
    56.8200       384
    56.8400       400
    56.8600       390
    56.8800       410
    56.9000       412
    56.9200       492
    56.9400       484
    56.9600       506
    56.9800       534
    57.0000       568
    57.0200       626
    57.0400       618
    57.0600       638
    57.0800       766
    57.1000       740
    57.1200       804
    57.1400       890
    57.1600       930
    57.1800      1108
    57.2000      1164
    57.2200      1294
    57.2400      1372
    57.2600      1472
    57.2800      1586
    57.3000      1728
    57.3200      1688
    57.3400      1756
    57.3600      1814
    57.3800      1924
    57.4000      1794
    57.4200      1842
    57.4400      1824
    57.4600      1854
    57.4800      1846
    57.5000      1850
    57.5200      1808
    57.5400      1800
    57.5600      1956
    57.5800      1944
    57.6000      1918
    57.6200      1884
    57.6400      1778
    57.6600      1802
    57.6800      1786
    57.7000      1836
    57.7200      1764
    57.7400      1710
    57.7600      1590
    57.7800      1542
    57.8000      1510
    57.8200      1370
    57.8400      1260
    57.8600      1204
    57.8800      1246
    57.9000      1206
    57.9200      1090
    57.9400      1000
    57.9600       974
    57.9800       970
    58.0000       982
    58.0200      1034
    58.0400      1018
    58.0600       988
    58.0800      1010
    58.1000      1070
    58.1200      1112
    58.1400      1220
    58.1600      1162
    58.1800      1262
    58.2000      1282
    58.2200      1382
    58.2400      1518
    58.2600      1614
    58.2800      1632
    58.3000      1798
    58.3200      1762
    58.3400      1936
    58.3600      2034
    58.3800      2144
    58.4000      2274
    58.4200      2348
    58.4400      2438
    58.4600      2456
    58.4800      2668
    58.5000      2778
    58.5200      2668
    58.5400      2862
    58.5600      2908
    58.5800      2900
    58.6000      2964
    58.6200      2924
    58.6400      2926
    58.6600      2918
    58.6800      2820
    58.7000      2760
    58.7200      2724
    58.7400      2654
    58.7600      2586
    58.7800      2484
    58.8000      2406
    58.8200      2238
    58.8400      2110
    58.8600      1964
    58.8800      1820
    58.9000      1710
    58.9200      1592
    58.9400      1448
    58.9600      1380
    58.9800      1278
    59.0000      1182
    59.0200      1028
    59.0400       948
    59.0600       890
    59.0800       808
    59.1000       776
    59.1200       722
    59.1400       730
    59.1600       688
    59.1800       664
    59.2000       588
    59.2200       604
    59.2400       626
    59.2600       562
    59.2800       516
    59.3000       528
    59.3200       544
    59.3400       460
    59.3600       464
    59.3800       446
    59.4000       408
    59.4200       428
    59.4400       400
    59.4600       398
    59.4800       402
    59.5000       340
    59.5200       342
    59.5400       316
    59.5600       312
    59.5800       308
    59.6000       312
    59.6200       296
    59.6400       318
    59.6600       302
    59.6800       300
    59.7000       280
    59.7200       292
    59.7400       270
    59.7600       296
    59.7800       232
    59.8000       252
    59.8200       250
    59.8400       232
    59.8600       268
    59.8800       234
    59.9000       268
    59.9200       228
    59.9400       238
    59.9600       230
    59.9800       268
    60.0000       252
    60.0200       216
    60.0400       252
    60.0600       242
    60.0800       262
    60.1000       268
    60.1200       236
    60.1400       240
    60.1600       240
    60.1800       272
    60.2000       226
    60.2200       252
    60.2400       276
    60.2600       236
    60.2800       252
    60.3000       276
    60.3200       262
    60.3400       254
    60.3600       266
    60.3800       234
    60.4000       272
    60.4200       276
    60.4400       274
    60.4600       282
    60.4800       266
    60.5000       276
    60.5200       254
    60.5400       234
    60.5600       254
    60.5800       274
    60.6000       264
    60.6200       240
    60.6400       280
    60.6600       284
    60.6800       266
    60.7000       294
    60.7200       298
    60.7400       292
    60.7600       286
    60.7800       312
    60.8000       304
    60.8200       326
    60.8400       378
    60.8600       338
    60.8800       348
    60.9000       340
    60.9200       390
    60.9400       364
    60.9600       402
    60.9800       406
    61.0000       398
    61.0200       434
    61.0400       430
    61.0600       436
    61.0800       426
    61.1000       412
    61.1200       402
    61.1400       446
    61.1600       450
    61.1800       452
    61.2000       418
    61.2200       400
    61.2400       398
    61.2600       428
    61.2800       404
    61.3000       464
    61.3200       446
    61.3400       480
    61.3600       474
    61.3800       446
    61.4000       472
    61.4200       482
    61.4400       506
    61.4600       448
    61.4800       472
    61.5000       500
    61.5200       484
    61.5400       480
    61.5600       482
    61.5800       546
    61.6000       520
    61.6200       542
    61.6400       526
    61.6600       512
    61.6800       494
    61.7000       554
    61.7200       500
    61.7400       480
    61.7600       544
    61.7800       526
    61.8000       486
    61.8200       506
    61.8400       484
    61.8600       488
    61.8800       522
    61.9000       508
    61.9200       500
    61.9400       494
    61.9600       504
    61.9800       510
    62.0000       476
    62.0200       488
    62.0400       482
    62.0600       486
    62.0800       498
    62.1000       498
    62.1200       474
    62.1400       460
    62.1600       432
    62.1800       442
    62.2000       496
    62.2200       422
    62.2400       420
    62.2600       408
    62.2800       402
    62.3000       390
    62.3200       358
    62.3400       380
    62.3600       368
    62.3800       344
    62.4000       306
    62.4200       314
    62.4400       324
    62.4600       302
    62.4800       292
    62.5000       282
    62.5200       316
    62.5400       302
    62.5600       264
    62.5800       256
    62.6000       286
    62.6200       230
    62.6400       234
    62.6600       236
    62.6800       238
    62.7000       254
    62.7200       222
    62.7400       204
    62.7600       228
    62.7800       238
    62.8000       210
    62.8200       200
    62.8400       166
    62.8600       234
    62.8800       210
    62.9000       192
    62.9200       218
    62.9400       176
    62.9600       206
    62.9800       206
    63.0000       184
    63.0200       188
    63.0400       200
    63.0600       190
    63.0800       194
    63.1000       182
    63.1200       224
    63.1400       184
    63.1600       194
    63.1800       174
    63.2000       182
    63.2200       196
    63.2400       226
    63.2600       202
    63.2800       192
    63.3000       202
    63.3200       196
    63.3400       218
    63.3600       204
    63.3800       194
    63.4000       230
    63.4200       226
    63.4400       186
    63.4600       194
    63.4800       188
    63.5000       232
    63.5200       234
    63.5400       238
    63.5600       272
    63.5800       286
    63.6000       280
    63.6200       302
    63.6400       302
    63.6600       314
    63.6800       312
    63.7000       344
    63.7200       362
    63.7400       366
    63.7600       398
    63.7800       392
    63.8000       410
    63.8200       432
    63.8400       396
    63.8600       390
    63.8800       398
    63.9000       396
    63.9200       428
    63.9400       374
    63.9600       400
    63.9800       320
    64.0000       312
    64.0200       306
    64.0400       314
    64.0600       300
    64.0800       276
    64.1000       252
    64.1200       252
    64.1400       252
    64.1600       230
    64.1800       248
    64.2000       228
    64.2200       214
    64.2400       220
    64.2600       240
    64.2800       204
    64.3000       200
    64.3200       188
    64.3400       214
    64.3600       194
    64.3800       212
    64.4000       218
    64.4200       220
    64.4400       196
    64.4600       210
    64.4800       210
    64.5000       208
    64.5200       206
    64.5400       214
    64.5600       230
    64.5800       230
    64.6000       206
    64.6200       222
    64.6400       260
    64.6600       256
    64.6800       240
    64.7000       236
    64.7200       242
    64.7400       242
    64.7600       252
    64.7800       266
    64.8000       282
    64.8200       274
    64.8400       252
    64.8600       310
    64.8800       302
    64.9000       296
    64.9200       338
    64.9400       346
    64.9600       318
    64.9800       340
    65.0000       352
    65.0200       348
    65.0400       372
    65.0600       374
    65.0800       394
    65.1000       424
    65.1200       390
    65.1400       416
    65.1600       424
    65.1800       412
    65.2000       418
    65.2200       446
    65.2400       418
    65.2600       458
    65.2800       434
    65.3000       446
    65.3200       432
    65.3400       426
    65.3600       412
    65.3800       424
    65.4000       392
    65.4200       384
    65.4400       340
    65.4600       344
    65.4800       314
    65.5000       304
    65.5200       300
    65.5400       312
    65.5600       270
    65.5800       270
    65.6000       302
    65.6200       274
    65.6400       284
    65.6600       272
    65.6800       248
    65.7000       256
    65.7200       248
    65.7400       212
    65.7600       254
    65.7800       220
    65.8000       218
    65.8200       236
    65.8400       230
    65.8600       196
    65.8800       246
    65.9000       216
    65.9200       204
    65.9400       232
    65.9600       204
    65.9800       236
    66.0000       238
    66.0200       202
    66.0400       254
    66.0600       186
    66.0800       208
    66.1000       220
    66.1200       230
    66.1400       218
    66.1600       258
    66.1800       226
    66.2000       224
    66.2200       246
    66.2400       212
    66.2600       222
    66.2800       250
    66.3000       242
    66.3200       244
    66.3400       258
    66.3600       274
    66.3800       260
    66.4000       276
    66.4200       286
    66.4400       290
    66.4600       278
    66.4800       282
    66.5000       292
    66.5200       288
    66.5400       336
    66.5600       322
    66.5800       288
    66.6000       342
    66.6200       346
    66.6400       344
    66.6600       392
    66.6800       412
    66.7000       402
    66.7200       410
    66.7400       470
    66.7600       446
    66.7800       504
    66.8000       484
    66.8200       520
    66.8400       522
    66.8600       562
    66.8800       588
    66.9000       526
    66.9200       518
    66.9400       534
    66.9600       490
    66.9800       530
    67.0000       478
    67.0200       464
    67.0400       492
    67.0600       464
    67.0800       414
    67.1000       414
    67.1200       432
    67.1400       364
    67.1600       378
    67.1800       370
    67.2000       374
    67.2200       352
    67.2400       330
    67.2600       344
    67.2800       356
    67.3000       318
    67.3200       288
    67.3400       322
    67.3600       300
    67.3800       292
    67.4000       304
    67.4200       304
    67.4400       326
    67.4600       298
    67.4800       330
    67.5000       338
    67.5200       330
    67.5400       342
    67.5600       316
    67.5800       332
    67.6000       342
    67.6200       400
    67.6400       360
    67.6600       424
    67.6800       412
    67.7000       460
    67.7200       474
    67.7400       472
    67.7600       488
    67.7800       562
    67.8000       604
    67.8200       624
    67.8400       656
    67.8600       704
    67.8800       778
    67.9000       854
    67.9200       878
    67.9400       962
    67.9600       944
    67.9800      1050
    68.0000      1010
    68.0200      1052
    68.0400      1130
    68.0600      1132
    68.0800      1136
    68.1000      1098
    68.1200      1114
    68.1400      1098
    68.1600      1108
    68.1800      1012
    68.2000      1040
    68.2200      1064
    68.2400      1030
    68.2600       976
    68.2800       948
    68.3000       900
    68.3200       840
    68.3400       868
    68.3600       800
    68.3800       752
    68.4000       768
    68.4200       714
    68.4400       704
    68.4600       678
    68.4800       656
    68.5000       646
    68.5200       650
    68.5400       688
    68.5600       720
    68.5800       760
    68.6000       760
    68.6200       878
    68.6400       834
    68.6600       854
    68.6800       872
    68.7000       770
    68.7200       754
    68.7400       702
    68.7600       662
    68.7800       666
    68.8000       664
    68.8200       632
    68.8400       692
    68.8600       626
    68.8800       614
    68.9000       572
    68.9200       556
    68.9400       530
    68.9600       496
    68.9800       520
    69.0000       474
    69.0200       486
    69.0400       466
    69.0600       508
    69.0800       494
    69.1000       458
    69.1200       462
    69.1400       454
    69.1600       434
    69.1800       474
    69.2000       468
    69.2200       470
    69.2400       440
    69.2600       448
    69.2800       472
    69.3000       496
    69.3200       472
    69.3400       518
    69.3600       448
    69.3800       472
    69.4000       504
    69.4200       474
    69.4400       406
    69.4600       486
    69.4800       446
    69.5000       412
    69.5200       400
    69.5400       422
    69.5600       400
    69.5800       386
    69.6000       364
    69.6200       362
    69.6400       338
    69.6600       330
    69.6800       330
    69.7000       326
    69.7200       278
    69.7400       282
    69.7600       264
    69.7800       232
    69.8000       258
    69.8200       236
    69.8400       236
    69.8600       236
    69.8800       258
    69.9000       226
    69.9200       224
    69.9400       218
    69.9600       210
    69.9800       240
    70.0000       224
    70.0200       216
    70.0400       208
    70.0600       184
    70.0800       184
    70.1000       208
    70.1200       210
    70.1400       196
    70.1600       202
    70.1800       180
    70.2000       204
    70.2200       210
    70.2400       170
    70.2600       180
    70.2800       194
    70.3000       180
    70.3200       196
    70.3400       200
    70.3600       222
    70.3800       214
    70.4000       200
    70.4200       254
    70.4400       236
    70.4600       254
    70.4800       208
    70.5000       252
    70.5200       236
    70.5400       210
    70.5600       226
    70.5800       238
    70.6000       244
    70.6200       214
    70.6400       240
    70.6600       232
    70.6800       220
    70.7000       240
    70.7200       226
    70.7400       246
    70.7600       224
    70.7800       228
    70.8000       232
    70.8200       256
    70.8400       254
    70.8600       234
    70.8800       208
    70.9000       232
    70.9200       230
    70.9400       230
    70.9600       248
    70.9800       276
    71.0000       270
    71.0200       288
    71.0400       294
    71.0600       312
    71.0800       304
    71.1000       296
    71.1200       312
    71.1400       348
    71.1600       372
    71.1800       376
    71.2000       396
    71.2200       434
    71.2400       444
    71.2600       468
    71.2800       478
    71.3000       520
    71.3200       530
    71.3400       520
    71.3600       514
    71.3800       532
    71.4000       542
    71.4200       550
    71.4400       562
    71.4600       596
    71.4800       564
    71.5000       612
    71.5200       560
    71.5400       584
    71.5600       550
    71.5800       606
    71.6000       568
    71.6200       532
    71.6400       544
    71.6600       542
    71.6800       496
    71.7000       536
    71.7200       576
    71.7400       506
    71.7600       510
    71.7800       506
    71.8000       516
    71.8200       490
    71.8400       470
    71.8600       482
    71.8800       416
    71.9000       444
    71.9200       456
    71.9400       424
    71.9600       418
    71.9800       390
    72.0000       456
    72.0200       452
    72.0400       414
    72.0600       442
    72.0800       422
    72.1000       446
    72.1200       424
    72.1400       408
    72.1600       462
    72.1800       446
    72.2000       430
    72.2200       442
    72.2400       416
    72.2600       420
    72.2800       394
    72.3000       444
    72.3200       446
    72.3400       382
    72.3600       380
    72.3800       382
    72.4000       406
    72.4200       376
    72.4400       364
    72.4600       346
    72.4800       336
    72.5000       322
    72.5200       358
    72.5400       322
    72.5600       322
    72.5800       308
    72.6000       312
    72.6200       302
    72.6400       288
    72.6600       276
    72.6800       274
    72.7000       286
    72.7200       294
    72.7400       286
    72.7600       274
    72.7800       264
    72.8000       270
    72.8200       280
    72.8400       272
    72.8600       274
    72.8800       246
    72.9000       238
    72.9200       224
    72.9400       248
    72.9600       246
    72.9800       264
    73.0000       244
    73.0200       262
    73.0400       242
    73.0600       238
    73.0800       216
    73.1000       216
    73.1200       212
    73.1400       222
    73.1600       214
    73.1800       214
    73.2000       200
    73.2200       202
    73.2400       196
    73.2600       212
    73.2800       172
    73.3000       202
    73.3200       178
    73.3400       216
    73.3600       208
    73.3800       198
    73.4000       186
    73.4200       216
    73.4400       198
    73.4600       220
    73.4800       204
    73.5000       232
    73.5200       222
    73.5400       210
    73.5600       218
    73.5800       214
    73.6000       200
    73.6200       230
    73.6400       208
    73.6600       220
    73.6800       222
    73.7000       222
    73.7200       208
    73.7400       216
    73.7600       230
    73.7800       242
    73.8000       218
    73.8200       236
    73.8400       224
    73.8600       234
    73.8800       268
    73.9000       230
    73.9200       248
    73.9400       266
    73.9600       230
    73.9800       254
    74.0000       284
    74.0200       248
    74.0400       276
    74.0600       246
    74.0800       242
    74.1000       252
    74.1200       260
    74.1400       268
    74.1600       248
    74.1800       264
    74.2000       254
    74.2200       236
    74.2400       236
    74.2600       236
    74.2800       202
    74.3000       230
    74.3200       204
    74.3400       220
    74.3600       208
    74.3800       198
    74.4000       216
    74.4200       178
    74.4400       212
    74.4600       226
    74.4800       196
    74.5000       190
    74.5200       196
    74.5400       180
    74.5600       176
    74.5800       172
    74.6000       178
    74.6200       184
    74.6400       162
    74.6600       168
    74.6800       178
    74.7000       194
    74.7200       184
    74.7400       170
    74.7600       184
    74.7800       154
    74.8000       180
    74.8200       152
    74.8400       174
    74.8600       186
    74.8800       182
    74.9000       188
    74.9200       166
    74.9400       170
    74.9600       162
    74.9800       182
    75.0000       172
    75.0200       204
    75.0400       182
    75.0600       176
    75.0800       152
    75.1000       178
    75.1200       180
    75.1400       172
    75.1600       150
    75.1800       210
    75.2000       200
    75.2200       168
    75.2400       200
    75.2600       184
    75.2800       182
    75.3000       182
    75.3200       190
    75.3400       182
    75.3600       190
    75.3800       194
    75.4000       206
    75.4200       196
    75.4400       226
    75.4600       242
    75.4800       242
    75.5000       228
    75.5200       234
    75.5400       292
    75.5600       280
    75.5800       274
    75.6000       326
    75.6200       320
    75.6400       278
    75.6600       364
    75.6800       360
    75.7000       374
    75.7200       406
    75.7400       472
    75.7600       488
    75.7800       512
    75.8000       586
    75.8200       608
    75.8400       586
    75.8600       582
    75.8800       582
    75.9000       560
    75.9200       560
    75.9400       560
    75.9600       520
    75.9800       522
    76.0000       520
    76.0200       520
    76.0400       504
    76.0600       506
    76.0800       482
    76.1000       494
    76.1200       440
    76.1400       470
    76.1600       388
    76.1800       390
    76.2000       412
    76.2200       370
    76.2400       374
    76.2600       354
    76.2800       362
    76.3000       352
    76.3200       316
    76.3400       332
    76.3600       324
    76.3800       358
    76.4000       358
    76.4200       306
    76.4400       316
    76.4600       322
    76.4800       326
    76.5000       332
    76.5200       346
    76.5400       348
    76.5600       364
    76.5800       354
    76.6000       362
    76.6200       374
    76.6400       354
    76.6600       372
    76.6800       324
    76.7000       350
    76.7200       344
    76.7400       334
    76.7600       326
    76.7800       356
    76.8000       334
    76.8200       332
    76.8400       354
    76.8600       334
    76.8800       330
    76.9000       352
    76.9200       360
    76.9400       318
    76.9600       310
    76.9800       352
    77.0000       348
    77.0200       338
    77.0400       362
    77.0600       342
    77.0800       360
    77.1000       352
    77.1200       390
    77.1400       410
    77.1600       418
    77.1800       424
    77.2000       442
    77.2200       410
    77.2400       518
    77.2600       530
    77.2800       550
    77.3000       570
    77.3200       588
    77.3400       616
    77.3600       632
    77.3800       624
    77.4000       684
    77.4200       656
    77.4400       682
    77.4600       648
    77.4800       730
    77.5000       756
    77.5200       664
    77.5400       668
    77.5600       726
    77.5800       726
    77.6000       704
    77.6200       724
    77.6400       700
    77.6600       708
    77.6800       630
    77.7000       674
    77.7200       682
    77.7400       620
    77.7600       616
    77.7800       632
    77.8000       578
    77.8200       560
    77.8400       488
    77.8600       490
    77.8800       500
    77.9000       488
    77.9200       488
    77.9400       430
    77.9600       442
    77.9800       396
    78.0000       344
    78.0200       376
    78.0400       368
    78.0600       378
    78.0800       396
    78.1000       388
    78.1200       364
    78.1400       410
    78.1600       376
    78.1800       406
    78.2000       368
    78.2200       410
    78.2400       380
    78.2600       346
    78.2800       356
    78.3000       380
    78.3200       358
    78.3400       364
    78.3600       388
    78.3800       346
    78.4000       394
    78.4200       352
    78.4400       398
    78.4600       364
    78.4800       426
    78.5000       372
    78.5200       368
    78.5400       398
    78.5600       428
    78.5800       362
    78.6000       388
    78.6200       416
    78.6400       376
    78.6600       358
    78.6800       406
    78.7000       374
    78.7200       344
    78.7400       372
    78.7600       334
    78.7800       326
    78.8000       350
    78.8200       300
    78.8400       294
    78.8600       286
    78.8800       294
    78.9000       274
    78.9200       248
    78.9400       272
    78.9600       274
    78.9800       258
    79.0000       260
    79.0200       262
    79.0400       228
    79.0600       248
    79.0800       218
    79.1000       224
    79.1200       214
    79.1400       220
    79.1600       188
    79.1800       224
    79.2000       214
    79.2200       228
    79.2400       220
    79.2600       228
    79.2800       188
    79.3000       200
    79.3200       196
    79.3400       210
    79.3600       222
    79.3800       238
    79.4000       218
    79.4200       200
    79.4400       226
    79.4600       196
    79.4800       220
    79.5000       208
    79.5200       184
    79.5400       212
    79.5600       204
    79.5800       228
    79.6000       214
    79.6200       210
    79.6400       224
    79.6600       216
    79.6800       220
    79.7000       216
    79.7200       232
    79.7400       230
    79.7600       200
    79.7800       246
    79.8000       210
    79.8200       236
    79.8400       206
    79.8600       238
    79.8800       240
    79.9000       238
    79.9200       238
    79.9400       216
    79.9600       206
    79.9800       206
    80.0000       188
    80.0200       204
    80.0400       192
    80.0600       214
    80.0800       196
    80.1000       216
    80.1200       228
    80.1400       228
    80.1600       166
    80.1800       190
    80.2000       186
    80.2200       168
    80.2400       192
    80.2600       188
    80.2800       200
    80.3000       206
    80.3200       162
    80.3400       184
    80.3600       192
    80.3800       198
    80.4000       198
    80.4200       162
    80.4400       182
    80.4600       166
    80.4800       182
    80.5000       162
    80.5200       176
    80.5400       182
    80.5600       166
    80.5800       162
    80.6000       156
    80.6200       182
    80.6400       152
    80.6600       180
    80.6800       184
    80.7000       166
    80.7200       144
    80.7400       158
    80.7600       174
    80.7800       156
    80.8000       192
    80.8200       166
    80.8400       212
    80.8600       164
    80.8800       182
    80.9000       166
    80.9200       166
    80.9400       164
    80.9600       172
    80.9800       184
    81.0000       144
    81.0200       198
    81.0400       162
    81.0600       200
    81.0800       180
    81.1000       198
    81.1200       228
    81.1400       238
    81.1600       202
    81.1800       180
    81.2000       214
    81.2200       226
    81.2400       228
    81.2600       238
    81.2800       224
    81.3000       246
    81.3200       236
    81.3400       254
    81.3600       226
    81.3800       264
    81.4000       270
    81.4200       226
    81.4400       208
    81.4600       262
    81.4800       242
    81.5000       238
    81.5200       206
    81.5400       244
    81.5600       274
    81.5800       226
    81.6000       232
    81.6200       214
    81.6400       246
    81.6600       246
    81.6800       244
    81.7000       232
    81.7200       278
    81.7400       244
    81.7600       242
    81.7800       240
    81.8000       244
    81.8200       256
    81.8400       260
    81.8600       256
    81.8800       272
    81.9000       232
    81.9200       264
    81.9400       244
    81.9600       222
    81.9800       264
    82.0000       232
    82.0200       252
    82.0400       272
    82.0600       262
    82.0800       250
    82.1000       264
    82.1200       264
    82.1400       254
    82.1600       268
    82.1800       258
    82.2000       252
    82.2200       270
    82.2400       280
    82.2600       292
    82.2800       296
    82.3000       288
    82.3200       296
    82.3400       310
    82.3600       290
    82.3800       284
    82.4000       286
    82.4200       328
    82.4400       304
    82.4600       316
    82.4800       338
    82.5000       316
    82.5200       322
    82.5400       368
    82.5600       342
    82.5800       356
    82.6000       344
    82.6200       372
    82.6400       372
    82.6600       332
    82.6800       368
    82.7000       324
    82.7200       358
    82.7400       358
    82.7600       364
    82.7800       338
    82.8000       356
    82.8200       334
    82.8400       356
    82.8600       346
    82.8800       354
    82.9000       314
    82.9200       354
    82.9400       324
    82.9600       370
    82.9800       354
    83.0000       354
    83.0200       340
    83.0400       332
    83.0600       318
    83.0800       350
    83.1000       328
    83.1200       346
    83.1400       334
    83.1600       294
    83.1800       344
    83.2000       334
    83.2200       348
    83.2400       328
    83.2600       296
    83.2800       320
    83.3000       348
    83.3200       336
    83.3400       272
    83.3600       322
    83.3800       318
    83.4000       298
    83.4200       300
    83.4400       282
    83.4600       302
    83.4800       296
    83.5000       306
    83.5200       290
    83.5400       252
    83.5600       290
    83.5800       276
    83.6000       270
    83.6200       278
    83.6400       238
    83.6600       260
    83.6800       272
    83.7000       280
    83.7200       288
    83.7400       252
    83.7600       250
    83.7800       228
    83.8000       218
    83.8200       256
    83.8400       236
    83.8600       214
    83.8800       234
    83.9000       236
    83.9200       228
    83.9400       236
    83.9600       220
    83.9800       226
    84.0000       226
    84.0200       232
    84.0400       224
    84.0600       234
    84.0800       236
    84.1000       214
    84.1200       222
    84.1400       218
    84.1600       208
    84.1800       224
    84.2000       218
    84.2200       186
    84.2400       206
    84.2600       208
    84.2800       204
    84.3000       194
    84.3200       204
    84.3400       210
    84.3600       194
    84.3800       184
    84.4000       172
    84.4200       182
    84.4400       172
    84.4600       188
    84.4800       190
    84.5000       182
    84.5200       200
    84.5400       210
    84.5600       176
    84.5800       188
    84.6000       184
    84.6200       178
    84.6400       184
    84.6600       170
    84.6800       188
    84.7000       194
    84.7200       172
    84.7400       176
    84.7600       184
    84.7800       184
    84.8000       158
    84.8200       184
    84.8400       162
    84.8600       172
    84.8800       164
    84.9000       174
    84.9200       180
    84.9400       172
    84.9600       202
    84.9800       164
    85.0000       166
    85.0200       180
    85.0400       180
    85.0600       208
    85.0800       196
    85.1000       186
    85.1200       190
    85.1400       180
    85.1600       180
    85.1800       198
    85.2000       190
    85.2200       200
    85.2400       214
    85.2600       206
    85.2800       238
    85.3000       216
    85.3200       240
    85.3400       212
    85.3600       238
    85.3800       294
    85.4000       222
    85.4200       230
    85.4400       232
    85.4600       234
    85.4800       218
    85.5000       232
    85.5200       232
    85.5400       252
    85.5600       242
    85.5800       236
    85.6000       258
    85.6200       226
    85.6400       230
    85.6600       222
    85.6800       192
    85.7000       200
    85.7200       206
    85.7400       248
    85.7600       226
    85.7800       186
    85.8000       230
    85.8200       200
    85.8400       208
    85.8600       212
    85.8800       184
    85.9000       182
    85.9200       166
    85.9400       168
    85.9600       196
    85.9800       148
    86.0000       190
    86.0200       182
    86.0400       176
    86.0600       184
    86.0800       206
    86.1000       194
    86.1200       164
    86.1400       170
    86.1600       178
    86.1800       144
    86.2000       186
    86.2200       168
    86.2400       158
    86.2600       186
    86.2800       182
    86.3000       214
    86.3200       184
    86.3400       186
    86.3600       184
    86.3800       180
    86.4000       174
    86.4200       190
    86.4400       182
    86.4600       208
    86.4800       186
    86.5000       210
    86.5200       242
    86.5400       210
    86.5600       248
    86.5800       238
    86.6000       224
    86.6200       220
    86.6400       260
    86.6600       252
    86.6800       298
    86.7000       242
    86.7200       268
    86.7400       308
    86.7600       298
    86.7800       306
    86.8000       296
    86.8200       310
    86.8400       336
    86.8600       342
    86.8800       350
    86.9000       320
    86.9200       366
    86.9400       338
    86.9600       382
    86.9800       388
    87.0000       412
    87.0200       422
    87.0400       424
    87.0600       402
    87.0800       474
    87.1000       450
    87.1200       514
    87.1400       522
    87.1600       496
    87.1800       550
    87.2000       588
    87.2200       644
    87.2400       624
    87.2600       702
    87.2800       744
    87.3000       764
    87.3200       812
    87.3400       844
    87.3600       926
    87.3800       916
    87.4000       912
    87.4200       930
    87.4400       850
    87.4600       808
    87.4800       776
    87.5000       746
    87.5200       708
    87.5400       748
    87.5600       678
    87.5800       712
    87.6000       696
    87.6200       742
    87.6400       738
    87.6600       688
    87.6800       670
    87.7000       646
    87.7200       626
    87.7400       610
    87.7600       564
    87.7800       492
    87.8000       488
    87.8200       534
    87.8400       490
    87.8600       458
    87.8800       432
    87.9000       370
    87.9200       362
    87.9400       372
    87.9600       378
    87.9800       408
    88.0000       354
    88.0200       342
    88.0400       380
    88.0600       298
    88.0800       302
    88.1000       292
    88.1200       310
    88.1400       290
    88.1600       282
    88.1800       274
    88.2000       260
    88.2200       262
    88.2400       266
    88.2600       286
    88.2800       266
    88.3000       278
    88.3200       274
    88.3400       270
    88.3600       258
    88.3800       254
    88.4000       232
    88.4200       260
    88.4400       244
    88.4600       232
    88.4800       224
    88.5000       220
    88.5200       234
    88.5400       220
    88.5600       240
    88.5800       216
    88.6000       216
    88.6200       224
    88.6400       236
    88.6600       218
    88.6800       214
    88.7000       222
    88.7200       238
    88.7400       210
    88.7600       244
    88.7800       216
    88.8000       220
    88.8200       206
    88.8400       210
    88.8600       204
    88.8800       218
    88.9000       190
    88.9200       198
    88.9400       216
    88.9600       204
    88.9800       208
    89.0000       204
    89.0200       232
    89.0400       208
    89.0600       198
    89.0800       214
    89.1000       202
    89.1200       186
    89.1400       230
    89.1600       206
    89.1800       220
    89.2000       202
    89.2200       192
    89.2400       220
    89.2600       230
    89.2800       218
    89.3000       246
    89.3200       196
    89.3400       220
    89.3600       232
    89.3800       238
    89.4000       228
    89.4200       240
    89.4400       250
    89.4600       236
    89.4800       222
    89.5000       228
    89.5200       252
    89.5400       264
    89.5600       232
    89.5800       264
    89.6000       278
    89.6200       286
    89.6400       242
    89.6600       260
    89.6800       242
    89.7000       242
    89.7200       268
    89.7400       274
    89.7600       248
    89.7800       282
    89.8000       266
    89.8200       254
    89.8400       268
    89.8600       252
    89.8800       262
    89.9000       268
    89.9200       270
    89.9400       254
    89.9600       232
    89.9800       248
    90.0000       246
