    10.0000       336
    10.0200       376
    10.0400       334
    10.0600       344
    10.0800       342
    10.1000       378
    10.1200       364
    10.1400       336
    10.1600       346
    10.1800       336
    10.2000       336
    10.2200       358
    10.2400       374
    10.2600       312
    10.2800       338
    10.3000       348
    10.3200       358
    10.3400       320
    10.3600       356
    10.3800       336
    10.4000       350
    10.4200       342
    10.4400       312
    10.4600       346
    10.4800       324
    10.5000       350
    10.5200       338
    10.5400       316
    10.5600       298
    10.5800       360
    10.6000       348
    10.6200       314
    10.6400       362
    10.6600       370
    10.6800       344
    10.7000       314
    10.7200       328
    10.7400       318
    10.7600       356
    10.7800       306
    10.8000       324
    10.8200       314
    10.8400       336
    10.8600       324
    10.8800       360
    10.9000       314
    10.9200       334
    10.9400       322
    10.9600       346
    10.9800       320
    11.0000       336
    11.0200       296
    11.0400       340
    11.0600       300
    11.0800       304
    11.1000       314
    11.1200       322
    11.1400       328
    11.1600       318
    11.1800       334
    11.2000       324
    11.2200       326
    11.2400       320
    11.2600       318
    11.2800       308
    11.3000       320
    11.3200       314
    11.3400       316
    11.3600       332
    11.3800       334
    11.4000       292
    11.4200       312
    11.4400       318
    11.4600       304
    11.4800       308
    11.5000       290
    11.5200       280
    11.5400       326
    11.5600       342
    11.5800       332
    11.6000       308
    11.6200       344
    11.6400       302
    11.6600       292
    11.6800       292
    11.7000       330
    11.7200       292
    11.7400       320
    11.7600       304
    11.7800       290
    11.8000       312
    11.8200       322
    11.8400       320
    11.8600       280
    11.8800       300
    11.9000       274
    11.9200       274
    11.9400       290
    11.9600       294
    11.9800       322
    12.0000       294
    12.0200       242
    12.0400       310
    12.0600       298
    12.0800       272
    12.1000       300
    12.1200       296
    12.1400       308
    12.1600       284
    12.1800       282
    12.2000       316
    12.2200       292
    12.2400       268
    12.2600       260
    12.2800       286
    12.3000       304
    12.3200       296
    12.3400       308
    12.3600       304
    12.3800       282
    12.4000       258
    12.4200       280
    12.4400       294
    12.4600       270
    12.4800       270
    12.5000       296
    12.5200       270
    12.5400       282
    12.5600       278
    12.5800       292
    12.6000       266
    12.6200       246
    12.6400       288
    12.6600       248
    12.6800       272
    12.7000       278
    12.7200       266
    12.7400       278
    12.7600       282
    12.7800       270
    12.8000       282
    12.8200       270
    12.8400       258
    12.8600       278
    12.8800       278
    12.9000       240
    12.9200       260
    12.9400       254
    12.9600       270
    12.9800       256
    13.0000       252
    13.0200       270
    13.0400       252
    13.0600       232
    13.0800       284
    13.1000       258
    13.1200       268
    13.1400       256
    13.1600       256
    13.1800       234
    13.2000       262
    13.2200       232
    13.2400       280
    13.2600       282
    13.2800       238
    13.3000       272
    13.3200       250
    13.3400       250
    13.3600       282
    13.3800       266
    13.4000       270
    13.4200       250
    13.4400       268
    13.4600       238
    13.4800       250
    13.5000       246
    13.5200       252
    13.5400       246
    13.5600       194
    13.5800       244
    13.6000       242
    13.6200       256
    13.6400       250
    13.6600       264
    13.6800       248
    13.7000       276
    13.7200       228
    13.7400       222
    13.7600       244
    13.7800       254
    13.8000       258
    13.8200       230
    13.8400       260
    13.8600       266
    13.8800       236
    13.9000       224
    13.9200       230
    13.9400       258
    13.9600       252
    13.9800       238
    14.0000       240
    14.0200       274
    14.0400       242
    14.0600       246
    14.0800       242
    14.1000       236
    14.1200       230
    14.1400       230
    14.1600       240
    14.1800       216
    14.2000       226
    14.2200       228
    14.2400       238
    14.2600       254
    14.2800       230
    14.3000       222
    14.3200       200
    14.3400       238
    14.3600       228
    14.3800       238
    14.4000       190
    14.4200       248
    14.4400       236
    14.4600       228
    14.4800       230
    14.5000       224
    14.5200       244
    14.5400       220
    14.5600       232
    14.5800       220
    14.6000       248
    14.6200       220
    14.6400       238
    14.6600       224
    14.6800       228
    14.7000       246
    14.7200       208
    14.7400       228
    14.7600       248
    14.7800       192
    14.8000       232
    14.8200       244
    14.8400       210
    14.8600       250
    14.8800       244
    14.9000       200
    14.9200       220
    14.9400       202
    14.9600       222
    14.9800       248
    15.0000       196
    15.0200       230
    15.0400       226
    15.0600       208
    15.0800       192
    15.1000       214
    15.1200       204
    15.1400       216
    15.1600       244
    15.1800       252
    15.2000       228
    15.2200       248
    15.2400       224
    15.2600       246
    15.2800       208
    15.3000       240
    15.3200       226
    15.3400       220
    15.3600       248
    15.3800       224
    15.4000       230
    15.4200       232
    15.4400       240
    15.4600       198
    15.4800       248
    15.5000       230
    15.5200       214
    15.5400       262
    15.5600       228
    15.5800       232
    15.6000       232
    15.6200       246
    15.6400       230
    15.6600       208
    15.6800       218
    15.7000       236
    15.7200       232
    15.7400       208
    15.7600       224
    15.7800       224
    15.8000       224
    15.8200       238
    15.8400       250
    15.8600       240
    15.8800       230
    15.9000       204
    15.9200       246
    15.9400       218
    15.9600       226
    15.9800       240
    16.0000       194
    16.0200       200
    16.0400       220
    16.0600       228
    16.0800       228
    16.1000       206
    16.1200       184
    16.1400       246
    16.1600       220
    16.1800       210
    16.2000       236
    16.2200       236
    16.2400       210
    16.2600       208
    16.2800       208
    16.3000       208
    16.3200       214
    16.3400       224
    16.3600       204
    16.3800       242
    16.4000       224
    16.4200       228
    16.4400       208
    16.4600       208
    16.4800       182
    16.5000       212
    16.5200       236
    16.5400       204
    16.5600       212
    16.5800       208
    16.6000       208
    16.6200       210
    16.6400       204
    16.6600       202
    16.6800       208
    16.7000       196
    16.7200       194
    16.7400       208
    16.7600       208
    16.7800       188
    16.8000       222
    16.8200       198
    16.8400       194
    16.8600       204
    16.8800       202
    16.9000       176
    16.9200       220
    16.9400       224
    16.9600       244
    16.9800       202
    17.0000       214
    17.0200       208
    17.0400       204
    17.0600       210
    17.0800       184
    17.1000       230
    17.1200       188
    17.1400       192
    17.1600       212
    17.1800       226
    17.2000       220
    17.2200       212
    17.2400       242
    17.2600       188
    17.2800       214
    17.3000       216
    17.3200       218
    17.3400       228
    17.3600       212
    17.3800       206
    17.4000       208
    17.4200       204
    17.4400       200
    17.4600       214
    17.4800       192
    17.5000       210
    17.5200       184
    17.5400       176
    17.5600       180
    17.5800       206
    17.6000       214
    17.6200       174
    17.6400       208
    17.6600       208
    17.6800       164
    17.7000       218
    17.7200       224
    17.7400       200
    17.7600       196
    17.7800       206
    17.8000       164
    17.8200       190
    17.8400       204
    17.8600       194
    17.8800       192
    17.9000       198
    17.9200       182
    17.9400       184
    17.9600       176
    17.9800       198
    18.0000       176
    18.0200       186
    18.0400       202
    18.0600       190
    18.0800       188
    18.1000       202
    18.1200       168
    18.1400       190
    18.1600       164
    18.1800       192
    18.2000       188
    18.2200       206
    18.2400       188
    18.2600       212
    18.2800       152
    18.3000       174
    18.3200       200
    18.3400       214
    18.3600       190
    18.3800       190
    18.4000       232
    18.4200       196
    18.4400       188
    18.4600       242
    18.4800       218
    18.5000       206
    18.5200       202
    18.5400       232
    18.5600       184
    18.5800       204
    18.6000       192
    18.6200       228
    18.6400       218
    18.6600       224
    18.6800       202
    18.7000       240
    18.7200       230
    18.7400       204
    18.7600       248
    18.7800       238
    18.8000       206
    18.8200       220
    18.8400       222
    18.8600       238
    18.8800       248
    18.9000       248
    18.9200       276
    18.9400       268
    18.9600       254
    18.9800       314
    19.0000       312
    19.0200       346
    19.0400       336
    19.0600       360
    19.0800       368
    19.1000       380
    19.1200       442
    19.1400       470
    19.1600       506
    19.1800       496
    19.2000       602
    19.2200       650
    19.2400       680
    19.2600       828
    19.2800       846
    19.3000       956
    19.3200      1112
    19.3400      1230
    19.3600      1476
    19.3800      1742
    19.4000      2092
    19.4200      2368
    19.4400      2728
    19.4600      3126
    19.4800      3316
    19.5000      3482
    19.5200      3418
    19.5400      3028
    19.5600      2680
    19.5800      2380
    19.6000      1864
    19.6200      1518
    19.6400      1306
    19.6600      1174
    19.6800      1076
    19.7000      1160
    19.7200      1178
    19.7400      1212
    19.7600      1354
    19.7800      1538
    19.8000      1668
    19.8200      1886
    19.8400      2072
    19.8600      2204
    19.8800      2454
    19.9000      2572
    19.9200      2466
    19.9400      2308
    19.9600      2002
    19.9800      1712
    20.0000      1348
    20.0200      1120
    20.0400       896
    20.0600       680
    20.0800       604
    20.1000       566
    20.1200       470
    20.1400       412
    20.1600       380
    20.1800       380
    20.2000       360
    20.2200       314
    20.2400       296
    20.2600       266
    20.2800       246
    20.3000       276
    20.3200       256
    20.3400       232
    20.3600       226
    20.3800       224
    20.4000       250
    20.4200       234
    20.4400       222
    20.4600       218
    20.4800       184
    20.5000       230
    20.5200       232
    20.5400       208
    20.5600       212
    20.5800       206
    20.6000       208
    20.6200       202
    20.6400       214
    20.6600       214
    20.6800       198
    20.7000       184
    20.7200       210
    20.7400       220
    20.7600       186
    20.7800       192
    20.8000       222
    20.8200       226
    20.8400       228
    20.8600       212
    20.8800       210
    20.9000       204
    20.9200       192
    20.9400       216
    20.9600       188
    20.9800       194
    21.0000       216
    21.0200       182
    21.0400       210
    21.0600       200
    21.0800       196
    21.1000       204
    21.1200       182
    21.1400       200
    21.1600       208
    21.1800       218
    21.2000       204
    21.2200       196
    21.2400       196
    21.2600       178
    21.2800       200
    21.3000       194
    21.3200       182
    21.3400       200
    21.3600       184
    21.3800       188
    21.4000       186
    21.4200       180
    21.4400       186
    21.4600       196
    21.4800       172
    21.5000       164
    21.5200       184
    21.5400       174
    21.5600       176
    21.5800       168
    21.6000       176
    21.6200       184
    21.6400       204
    21.6600       174
    21.6800       194
    21.7000       176
    21.7200       186
    21.7400       176
    21.7600       184
    21.7800       184
    21.8000       202
    21.8200       194
    21.8400       186
    21.8600       184
    21.8800       160
    21.9000       190
    21.9200       190
    21.9400       208
    21.9600       170
    21.9800       190
    22.0000       154
    22.0200       208
    22.0400       208
    22.0600       212
    22.0800       178
    22.1000       196
    22.1200       220
    22.1400       220
    22.1600       200
    22.1800       232
    22.2000       254
    22.2200       254
    22.2400       242
    22.2600       236
    22.2800       308
    22.3000       266
    22.3200       288
    22.3400       330
    22.3600       366
    22.3800       396
    22.4000       430
    22.4200       464
    22.4400       504
    22.4600       556
    22.4800       610
    22.5000       712
    22.5200       802
    22.5400       866
    22.5600      1034
    22.5800      1162
    22.6000      1246
    22.6200      1434
    22.6400      1726
    22.6600      1942
    22.6800      2268
    22.7000      2708
    22.7200      3146
    22.7400      3594
    22.7600      3858
    22.7800      4122
    22.8000      4236
    22.8200      4164
    22.8400      3728
    22.8600      3212
    22.8800      2532
    22.9000      2144
    22.9200      1692
    22.9400      1348
    22.9600      1104
    22.9800       952
    23.0000       830
    23.0200       800
    23.0400       824
    23.0600       778
    23.0800       766
    23.1000       792
    23.1200       790
    23.1400       768
    23.1600       700
    23.1800       584
    23.2000       484
    23.2200       400
    23.2400       380
    23.2600       350
    23.2800       288
    23.3000       276
    23.3200       284
    23.3400       236
    23.3600       226
    23.3800       206
    23.4000       218
    23.4200       208
    23.4400       188
    23.4600       206
    23.4800       202
    23.5000       194
    23.5200       186
    23.5400       188
    23.5600       166
    23.5800       196
    23.6000       168
    23.6200       174
    23.6400       186
    23.6600       184
    23.6800       198
    23.7000       170
    23.7200       190
    23.7400       170
    23.7600       186
    23.7800       182
    23.8000       178
    23.8200       170
    23.8400       194
    23.8600       198
    23.8800       178
    23.9000       166
    23.9200       198
    23.9400       178
    23.9600       164
    23.9800       170
    24.0000       166
    24.0200       180
    24.0400       160
    24.0600       172
    24.0800       170
    24.1000       156
    24.1200       184
    24.1400       154
    24.1600       150
    24.1800       188
    24.2000       158
    24.2200       180
    24.2400       174
    24.2600       174
    24.2800       160
    24.3000       160
    24.3200       170
    24.3400       162
    24.3600       178
    24.3800       170
    24.4000       188
    24.4200       162
    24.4400       176
    24.4600       172
    24.4800       186
    24.5000       168
    24.5200       170
    24.5400       170
    24.5600       190
    24.5800       186
    24.6000       154
    24.6200       172
    24.6400       170
    24.6600       162
    24.6800       170
    24.7000       168
    24.7200       160
    24.7400       160
    24.7600       166
    24.7800       202
    24.8000       168
    24.8200       156
    24.8400       182
    24.8600       180
    24.8800       154
    24.9000       210
    24.9200       194
    24.9400       182
    24.9600       218
    24.9800       188
    25.0000       208
    25.0200       218
    25.0400       218
    25.0600       200
    25.0800       216
    25.1000       196
    25.1200       250
    25.1400       238
    25.1600       264
    25.1800       224
    25.2000       258
    25.2200       296
    25.2400       268
    25.2600       308
    25.2800       344
    25.3000       352
    25.3200       398
    25.3400       434
    25.3600       474
    25.3800       518
    25.4000       674
    25.4200       726
    25.4400       786
    25.4600       922
    25.4800      1020
    25.5000      1120
    25.5200      1298
    25.5400      1200
    25.5600      1242
    25.5800      1164
    25.6000      1058
    25.6200       850
    25.6400       722
    25.6600       602
    25.6800       496
    25.7000       420
    25.7200       348
    25.7400       366
    25.7600       314
    25.7800       288
    25.8000       326
    25.8200       292
    25.8400       302
    25.8600       290
    25.8800       292
    25.9000       264
    25.9200       252
    25.9400       222
    25.9600       268
    25.9800       214
    26.0000       208
    26.0200       226
    26.0400       200
    26.0600       218
    26.0800       188
    26.1000       202
    26.1200       194
    26.1400       184
    26.1600       168
    26.1800       196
    26.2000       186
    26.2200       194
    26.2400       166
    26.2600       168
    26.2800       202
    26.3000       186
    26.3200       180
    26.3400       194
    26.3600       164
    26.3800       196
    26.4000       168
    26.4200       198
    26.4400       174
    26.4600       192
    26.4800       166
    26.5000       180
    26.5200       162
    26.5400       196
    26.5600       202
    26.5800       172
    26.6000       182
    26.6200       154
    26.6400       196
    26.6600       174
    26.6800       176
    26.7000       180
    26.7200       176
    26.7400       188
    26.7600       184
    26.7800       190
    26.8000       162
    26.8200       180
    26.8400       176
    26.8600       172
    26.8800       172
    26.9000       162
    26.9200       178
    26.9400       184
    26.9600       192
    26.9800       186
    27.0000       170
    27.0200       198
    27.0400       184
    27.0600       180
    27.0800       184
    27.1000       170
    27.1200       194
    27.1400       178
    27.1600       176
    27.1800       178
    27.2000       184
    27.2200       182
    27.2400       184
    27.2600       200
    27.2800       188
    27.3000       204
    27.3200       180
    27.3400       190
    27.3600       202
    27.3800       206
    27.4000       220
    27.4200       196
    27.4400       212
    27.4600       202
    27.4800       200
    27.5000       200
    27.5200       210
    27.5400       226
    27.5600       230
    27.5800       232
    27.6000       242
    27.6200       248
    27.6400       234
    27.6600       248
    27.6800       262
    27.7000       272
    27.7200       282
    27.7400       316
    27.7600       328
    27.7800       348
    27.8000       366
    27.8200       394
    27.8400       478
    27.8600       532
    27.8800       528
    27.9000       622
    27.9200       664
    27.9400       752
    27.9600       856
    27.9800       906
    28.0000      1054
    28.0200      1226
    28.0400      1394
    28.0600      1618
    28.0800      1982
    28.1000      2244
    28.1200      2758
    28.1400      3276
    28.1600      3782
    28.1800      4586
    28.2000      5356
    28.2200      6144
    28.2400      6748
    28.2600      7202
    28.2800      6848
    28.3000      6204
    28.3200      5538
    28.3400      4620
    28.3600      3910
    28.3800      3088
    28.4000      2408
    28.4200      1896
    28.4400      1450
    28.4600      1202
    28.4800      1022
    28.5000       916
    28.5200       782
    28.5400       608
    28.5600       582
    28.5800       548
    28.6000       476
    28.6200       418
    28.6400       422
    28.6600       424
    28.6800       358
    28.7000       332
    28.7200       316
    28.7400       280
    28.7600       266
    28.7800       268
    28.8000       242
    28.8200       266
    28.8400       254
    28.8600       236
    28.8800       236
    28.9000       214
    28.9200       210
    28.9400       218
    28.9600       198
    28.9800       210
    29.0000       200
    29.0200       174
    29.0400       210
    29.0600       200
    29.0800       188
    29.1000       212
    29.1200       190
    29.1400       196
    29.1600       212
    29.1800       188
    29.2000       212
    29.2200       196
    29.2400       214
    29.2600       198
    29.2800       182
    29.3000       186
    29.3200       206
    29.3400       192
    29.3600       180
    29.3800       194
    29.4000       214
    29.4200       162
    29.4400       190
    29.4600       184
    29.4800       188
    29.5000       180
    29.5200       168
    29.5400       178
    29.5600       178
    29.5800       194
    29.6000       184
    29.6200       180
    29.6400       190
    29.6600       202
    29.6800       206
    29.7000       202
    29.7200       190
    29.7400       196
    29.7600       188
    29.7800       202
    29.8000       190
    29.8200       200
    29.8400       188
    29.8600       196
    29.8800       192
    29.9000       200
    29.9200       198
    29.9400       180
    29.9600       190
    29.9800       176
    30.0000       182
    30.0200       206
    30.0400       208
    30.0600       190
    30.0800       178
    30.1000       200
    30.1200       200
    30.1400       190
    30.1600       184
    30.1800       198
    30.2000       216
    30.2200       200
    30.2400       202
    30.2600       214
    30.2800       226
    30.3000       224
    30.3200       190
    30.3400       238
    30.3600       204
    30.3800       196
    30.4000       212
    30.4200       226
    30.4400       206
    30.4600       210
    30.4800       214
    30.5000       190
    30.5200       182
    30.5400       214
    30.5600       208
    30.5800       192
    30.6000       182
    30.6200       196
    30.6400       176
    30.6600       258
    30.6800       200
    30.7000       216
    30.7200       216
    30.7400       212
    30.7600       200
    30.7800       236
    30.8000       228
    30.8200       222
    30.8400       216
    30.8600       252
    30.8800       226
    30.9000       224
    30.9200       232
    30.9400       264
    30.9600       236
    30.9800       222
    31.0000       266
    31.0200       244
    31.0400       248
    31.0600       276
    31.0800       242
    31.1000       276
    31.1200       276
    31.1400       284
    31.1600       286
    31.1800       300
    31.2000       286
    31.2200       286
    31.2400       326
    31.2600       274
    31.2800       316
    31.3000       354
    31.3200       340
    31.3400       322
    31.3600       324
    31.3800       330
    31.4000       360
    31.4200       362
    31.4400       362
    31.4600       390
    31.4800       432
    31.5000       398
    31.5200       446
    31.5400       462
    31.5600       488
    31.5800       518
    31.6000       530
    31.6200       564
    31.6400       564
    31.6600       674
    31.6800       710
    31.7000       754
    31.7200       876
    31.7400       942
    31.7600      1028
    31.7800      1196
    31.8000      1350
    31.8200      1554
    31.8400      1706
    31.8600      1962
    31.8800      2192
    31.9000      2354
    31.9200      2580
    31.9400      2696
    31.9600      2830
    31.9800      2804
    32.0000      2670
    32.0200      2632
    32.0400      2480
    32.0600      2394
    32.0800      2170
    32.1000      2062
    32.1200      2006
    32.1400      1960
    32.1600      1968
    32.1800      2102
    32.2000      2172
    32.2200      2326
    32.2400      2586
    32.2600      2866
    32.2800      3132
    32.3000      3686
    32.3200      4184
    32.3400      4748
    32.3600      5490
    32.3800      6254
    32.4000      7016
    32.4200      7580
    32.4400      7990
    32.4600      8292
    32.4800      8196
    32.5000      7596
    32.5200      7122
    32.5400      6406
    32.5600      5642
    32.5800      4908
    32.6000      4148
    32.6200      3610
    32.6400      2902
    32.6600      2506
    32.6800      2180
    32.7000      1920
    32.7200      1816
    32.7400      1658
    32.7600      1552
    32.7800      1606
    32.8000      1682
    32.8200      1682
    32.8400      1720
    32.8600      1930
    32.8800      1980
    32.9000      2038
    32.9200      2250
    32.9400      2162
    32.9600      2252
    32.9800      2246
    33.0000      2094
    33.0200      1914
    33.0400      1724
    33.0600      1488
    33.0800      1322
    33.1000      1192
    33.1200      1016
    33.1400       914
    33.1600       796
    33.1800       740
    33.2000       658
    33.2200       598
    33.2400       568
    33.2600       594
    33.2800       526
    33.3000       532
    33.3200       478
    33.3400       468
    33.3600       442
    33.3800       412
    33.4000       406
    33.4200       366
    33.4400       324
    33.4600       370
    33.4800       312
    33.5000       274
    33.5200       254
    33.5400       282
    33.5600       288
    33.5800       286
    33.6000       280
    33.6200       258
    33.6400       250
    33.6600       242
    33.6800       252
    33.7000       244
    33.7200       222
    33.7400       268
    33.7600       230
    33.7800       242
    33.8000       256
    33.8200       232
    33.8400       230
    33.8600       218
    33.8800       242
    33.9000       230
    33.9200       254
    33.9400       226
    33.9600       248
    33.9800       260
    34.0000       240
    34.0200       236
    34.0400       234
    34.0600       294
    34.0800       244
    34.1000       266
    34.1200       244
    34.1400       260
    34.1600       276
    34.1800       266
    34.2000       280
    34.2200       268
    34.2400       286
    34.2600       270
    34.2800       278
    34.3000       306
    34.3200       284
    34.3400       274
    34.3600       296
    34.3800       296
    34.4000       282
    34.4200       314
    34.4400       264
    34.4600       282
    34.4800       266
    34.5000       282
    34.5200       276
    34.5400       288
    34.5600       296
    34.5800       254
    34.6000       292
    34.6200       284
    34.6400       280
    34.6600       270
    34.6800       266
    34.7000       286
    34.7200       290
    34.7400       266
    34.7600       268
    34.7800       274
    34.8000       254
    34.8200       262
    34.8400       250
    34.8600       268
    34.8800       306
    34.9000       284
    34.9200       282
    34.9400       332
    34.9600       326
    34.9800       348
    35.0000       386
    35.0200       406
    35.0400       500
    35.0600       542
    35.0800       612
    35.1000       780
    35.1200       774
    35.1400       784
    35.1600       692
    35.1800       634
    35.2000       530
    35.2200       482
    35.2400       490
    35.2600       374
    35.2800       328
    35.3000       328
    35.3200       262
    35.3400       282
    35.3600       284
    35.3800       292
    35.4000       250
    35.4200       282
    35.4400       300
    35.4600       290
    35.4800       268
    35.5000       252
    35.5200       276
    35.5400       274
    35.5600       286
    35.5800       324
    35.6000       284
    35.6200       278
    35.6400       286
    35.6600       296
    35.6800       298
    35.7000       318
    35.7200       306
    35.7400       380
    35.7600       332
    35.7800       348
    35.8000       372
    35.8200       348
    35.8400       416
    35.8600       416
    35.8800       386
    35.9000       422
    35.9200       478
    35.9400       452
    35.9600       566
    35.9800       578
    36.0000       576
    36.0200       630
    36.0400       718
    36.0600       744
    36.0800       696
    36.1000       736
    36.1200       668
    36.1400       694
    36.1600       674
    36.1800       614
    36.2000       628
    36.2200       564
    36.2400       550
    36.2600       492
    36.2800       480
    36.3000       482
    36.3200       436
    36.3400       484
    36.3600       424
    36.3800       424
    36.4000       468
    36.4200       478
    36.4400       520
    36.4600       512
    36.4800       488
    36.5000       570
    36.5200       592
    36.5400       658
    36.5600       736
    36.5800       812
    36.6000       956
    36.6200      1020
    36.6400      1076
    36.6600      1206
    36.6800      1414
    36.7000      1560
    36.7200      1648
    36.7400      1764
    36.7600      1898
    36.7800      1912
    36.8000      1814
    36.8200      1824
    36.8400      1608
    36.8600      1454
    36.8800      1510
    36.9000      1252
    36.9200      1188
    36.9400      1020
    36.9600       944
    36.9800       828
    37.0000       768
    37.0200       704
    37.0400       672
    37.0600       664
    37.0800       626
    37.1000       562
    37.1200       612
    37.1400       610
    37.1600       568
    37.1800       568
    37.2000       568
    37.2200       590
    37.2400       534
    37.2600       532
    37.2800       484
    37.3000       508
    37.3200       512
    37.3400       470
    37.3600       470
    37.3800       452
    37.4000       442
    37.4200       472
    37.4400       460
    37.4600       458
    37.4800       452
    37.5000       454
    37.5200       476
    37.5400       476
    37.5600       486
    37.5800       518
    37.6000       528
    37.6200       552
    37.6400       588
    37.6600       644
    37.6800       660
    37.7000       722
    37.7200       850
    37.7400       906
    37.7600       986
    37.7800      1048
    37.8000      1134
    37.8200      1246
    37.8400      1390
    37.8600      1488
    37.8800      1712
    37.9000      1786
    37.9200      1918
    37.9400      1938
    37.9600      2060
    37.9800      2052
    38.0000      1978
    38.0200      1936
    38.0400      1886
    38.0600      1838
    38.0800      1776
    38.1000      1816
    38.1200      1748
    38.1400      1760
    38.1600      1864
    38.1800      1918
    38.2000      2106
    38.2200      2194
    38.2400      2488
    38.2600      2690
    38.2800      3068
    38.3000      3284
    38.3200      3560
    38.3400      3748
    38.3600      4086
    38.3800      4086
    38.4000      4044
    38.4200      3988
    38.4400      3890
    38.4600      3906
    38.4800      3758
    38.5000      3758
    38.5200      3624
    38.5400      3748
    38.5600      3744
    38.5800      3824
    38.6000      3706
    38.6200      3646
    38.6400      3704
    38.6600      3442
    38.6800      3316
    38.7000      3186
    38.7200      3064
    38.7400      2900
    38.7600      2840
    38.7800      2716
    38.8000      2560
    38.8200      2608
    38.8400      2462
    38.8600      2416
    38.8800      2240
    38.9000      2012
    38.9200      1990
    38.9400      1912
    38.9600      1756
    38.9800      1594
    39.0000      1518
    39.0200      1324
    39.0400      1278
    39.0600      1186
    39.0800      1070
    39.1000      1076
    39.1200       944
    39.1400       906
    39.1600       880
    39.1800       792
    39.2000       824
    39.2200       738
    39.2400       774
    39.2600       730
    39.2800       710
    39.3000       768
    39.3200       796
    39.3400       832
    39.3600       874
    39.3800       982
    39.4000       960
    39.4200      1034
    39.4400      1124
    39.4600      1276
    39.4800      1368
    39.5000      1534
    39.5200      1682
    39.5400      1980
    39.5600      2150
    39.5800      2244
    39.6000      2462
    39.6200      2540
    39.6400      2400
    39.6600      2402
    39.6800      2186
    39.7000      2056
    39.7200      1908
    39.7400      1766
    39.7600      1556
    39.7800      1332
    39.8000      1218
    39.8200      1034
    39.8400       894
    39.8600       824
    39.8800       710
    39.9000       702
    39.9200       614
    39.9400       596
    39.9600       544
    39.9800       554
    40.0000       566
    40.0200       534
    40.0400       506
    40.0600       488
    40.0800       564
    40.1000       558
    40.1200       586
    40.1400       610
    40.1600       624
    40.1800       684
    40.2000       700
    40.2200       794
    40.2400       856
    40.2600      1030
    40.2800      1040
    40.3000      1152
    40.3200      1222
    40.3400      1318
    40.3600      1418
    40.3800      1428
    40.4000      1498
    40.4200      1528
    40.4400      1628
    40.4600      1560
    40.4800      1442
    40.5000      1396
    40.5200      1330
    40.5400      1262
    40.5600      1108
    40.5800      1096
    40.6000       978
    40.6200       850
    40.6400       778
    40.6600       678
    40.6800       620
    40.7000       602
    40.7200       576
    40.7400       564
    40.7600       538
    40.7800       542
    40.8000       488
    40.8200       502
    40.8400       474
    40.8600       524
    40.8800       510
    40.9000       482
    40.9200       540
    40.9400       568
    40.9600       486
    40.9800       496
    41.0000       482
    41.0200       476
    41.0400       450
    41.0600       418
    41.0800       418
    41.1000       402
    41.1200       382
    41.1400       390
    41.1600       360
    41.1800       348
    41.2000       322
    41.2200       322
    41.2400       370
    41.2600       344
    41.2800       354
    41.3000       370
    41.3200       360
    41.3400       374
    41.3600       384
    41.3800       436
    41.4000       458
    41.4200       474
    41.4400       474
    41.4600       496
    41.4800       534
    41.5000       598
    41.5200       628
    41.5400       698
    41.5600       718
    41.5800       796
    41.6000       932
    41.6200      1036
    41.6400      1136
    41.6600      1140
    41.6800      1354
    41.7000      1418
    41.7200      1492
    41.7400      1558
    41.7600      1532
    41.7800      1622
    41.8000      1510
    41.8200      1526
    41.8400      1438
    41.8600      1270
    41.8800      1264
    41.9000      1122
    41.9200      1008
    41.9400       892
    41.9600       828
    41.9800       792
    42.0000       716
    42.0200       640
    42.0400       552
    42.0600       482
    42.0800       486
    42.1000       442
    42.1200       426
    42.1400       484
    42.1600       434
    42.1800       416
    42.2000       378
    42.2200       412
    42.2400       410
    42.2600       394
    42.2800       408
    42.3000       398
    42.3200       428
    42.3400       426
    42.3600       428
    42.3800       410
    42.4000       388
    42.4200       388
    42.4400       370
    42.4600       340
    42.4800       416
    42.5000       354
    42.5200       390
    42.5400       354
    42.5600       372
    42.5800       386
    42.6000       380
    42.6200       348
    42.6400       350
    42.6600       338
    42.6800       356
    42.7000       352
    42.7200       396
    42.7400       432
    42.7600       442
    42.7800       440
    42.8000       478
    42.8200       486
    42.8400       516
    42.8600       620
    42.8800       616
    42.9000       722
    42.9200       744
    42.9400       836
    42.9600       970
    42.9800      1014
    43.0000      1168
    43.0200      1276
    43.0400      1398
    43.0600      1484
    43.0800      1566
    43.1000      1656
    43.1200      1652
    43.1400      1650
    43.1600      1526
    43.1800      1594
    43.2000      1506
    43.2200      1382
    43.2400      1364
    43.2600      1270
    43.2800      1264
    43.3000      1162
    43.3200      1192
    43.3400      1130
    43.3600       988
    43.3800       924
    43.4000       802
    43.4200       744
    43.4400       716
    43.4600       744
    43.4800       700
    43.5000       638
    43.5200       632
    43.5400       580
    43.5600       630
    43.5800       618
    43.6000       630
    43.6200       680
    43.6400       610
    43.6600       732
    43.6800       702
    43.7000       702
    43.7200       678
    43.7400       748
    43.7600       722
    43.7800       730
    43.8000       706
    43.8200       680
    43.8400       666
    43.8600       598
    43.8800       596
    43.9000       506
    43.9200       510
    43.9400       450
    43.9600       442
    43.9800       452
    44.0000       436
    44.0200       414
    44.0400       372
    44.0600       358
    44.0800       354
    44.1000       366
    44.1200       336
    44.1400       348
    44.1600       350
    44.1800       350
    44.2000       340
    44.2200       332
    44.2400       356
    44.2600       364
    44.2800       366
    44.3000       358
    44.3200       344
    44.3400       382
    44.3600       346
    44.3800       328
    44.4000       334
    44.4200       304
    44.4400       318
    44.4600       334
    44.4800       288
    44.5000       308
    44.5200       354
    44.5400       286
    44.5600       264
    44.5800       322
    44.6000       348
    44.6200       294
    44.6400       274
    44.6600       322
    44.6800       320
    44.7000       332
    44.7200       310
    44.7400       298
    44.7600       296
    44.7800       314
    44.8000       316
    44.8200       296
    44.8400       292
    44.8600       292
    44.8800       356
    44.9000       336
    44.9200       326
    44.9400       348
    44.9600       300
    44.9800       322
    45.0000       350
    45.0200       370
    45.0400       316
    45.0600       330
    45.0800       348
    45.1000       380
    45.1200       344
    45.1400       378
    45.1600       370
    45.1800       390
    45.2000       380
    45.2200       376
    45.2400       384
    45.2600       410
    45.2800       412
    45.3000       412
    45.3200       398
    45.3400       400
    45.3600       396
    45.3800       438
    45.4000       400
    45.4200       388
    45.4400       438
    45.4600       406
    45.4800       406
    45.5000       480
    45.5200       470
    45.5400       490
    45.5600       528
    45.5800       484
    45.6000       478
    45.6200       572
    45.6400       476
    45.6600       526
    45.6800       536
    45.7000       526
    45.7200       588
    45.7400       582
    45.7600       578
    45.7800       634
    45.8000       594
    45.8200       600
    45.8400       644
    45.8600       606
    45.8800       632
    45.9000       686
    45.9200       742
    45.9400       708
    45.9600       746
    45.9800       762
    46.0000       792
    46.0200       858
    46.0400       812
    46.0600       826
    46.0800       938
    46.1000       950
    46.1200      1022
    46.1400      1052
    46.1600      1132
    46.1800      1156
    46.2000      1310
    46.2200      1352
    46.2400      1492
    46.2600      1618
    46.2800      1862
    46.3000      2048
    46.3200      2312
    46.3400      2478
    46.3600      2868
    46.3800      3194
    46.4000      3614
    46.4200      4114
    46.4400      4704
    46.4600      5322
    46.4800      5874
    46.5000      6454
    46.5200      6930
    46.5400      7480
    46.5600      7794
    46.5800      8102
    46.6000      8018
    46.6200      8014
    46.6400      7574
    46.6600      7176
    46.6800      6912
    46.7000      6480
    46.7200      6122
    46.7400      5764
    46.7600      5318
    46.7800      4958
    46.8000      4730
    46.8200      4534
    46.8400      4494
    46.8600      4636
    46.8800      4734
    46.9000      5004
    46.9200      5454
    46.9400      6000
    46.9600      6572
    46.9800      6990
    47.0000      7068
    47.0200      6828
    47.0400      6312
    47.0600      5824
    47.0800      5524
    47.1000      5128
    47.1200      5020
    47.1400      4722
    47.1600      4180
    47.1800      3796
    47.2000      3368
    47.2200      3092
    47.2400      2934
    47.2600      2702
    47.2800      2616
    47.3000      2360
    47.3200      2204
    47.3400      1982
    47.3600      1794
    47.3800      1656
    47.4000      1526
    47.4200      1356
    47.4400      1204
    47.4600      1196
    47.4800      1052
    47.5000       980
    47.5200       922
    47.5400       852
    47.5600       824
    47.5800       828
    47.6000       858
    47.6200       792
    47.6400       842
    47.6600       828
    47.6800       818
    47.7000       862
    47.7200       844
    47.7400       886
    47.7600       820
    47.7800       798
    47.8000       860
    47.8200       798
    47.8400       770
    47.8600       698
    47.8800       700
    47.9000       660
    47.9200       674
    47.9400       676
    47.9600       704
    47.9800       726
    48.0000       684
    48.0200       652
    48.0400       684
    48.0600       730
    48.0800       656
    48.1000       752
    48.1200       710
    48.1400       740
    48.1600       692
    48.1800       704
    48.2000       666
    48.2200       622
    48.2400       576
    48.2600       574
    48.2800       504
    48.3000       508
    48.3200       446
    48.3400       442
    48.3600       366
    48.3800       404
    48.4000       382
    48.4200       368
    48.4400       348
    48.4600       352
    48.4800       322
    48.5000       362
    48.5200       324
    48.5400       310
    48.5600       312
    48.5800       340
    48.6000       292
    48.6200       300
    48.6400       306
    48.6600       276
    48.6800       270
    48.7000       288
    48.7200       284
    48.7400       296
    48.7600       298
    48.7800       292
    48.8000       330
    48.8200       276
    48.8400       258
    48.8600       258
    48.8800       252
    48.9000       296
    48.9200       266
    48.9400       250
    48.9600       274
    48.9800       268
    49.0000       264
    49.0200       228
    49.0400       258
    49.0600       240
    49.0800       248
    49.1000       234
    49.1200       236
    49.1400       246
    49.1600       272
    49.1800       234
    49.2000       224
    49.2200       230
    49.2400       212
    49.2600       226
    49.2800       234
    49.3000       226
    49.3200       248
    49.3400       228
    49.3600       242
    49.3800       244
    49.4000       218
    49.4200       258
    49.4400       236
    49.4600       284
    49.4800       238
    49.5000       240
    49.5200       236
    49.5400       286
    49.5600       286
    49.5800       260
    49.6000       238
    49.6200       244
    49.6400       236
    49.6600       234
    49.6800       266
    49.7000       254
    49.7200       244
    49.7400       224
    49.7600       226
    49.7800       238
    49.8000       244
    49.8200       248
    49.8400       204
    49.8600       232
    49.8800       222
    49.9000       250
    49.9200       212
    49.9400       232
    49.9600       220
    49.9800       246
    50.0000       238
    50.0200       240
    50.0400       246
    50.0600       218
    50.0800       244
    50.1000       284
    50.1200       264
    50.1400       262
    50.1600       234
    50.1800       282
    50.2000       292
    50.2200       244
    50.2400       276
    50.2600       252
    50.2800       276
    50.3000       284
    50.3200       276
    50.3400       290
    50.3600       294
    50.3800       286
    50.4000       298
    50.4200       278
    50.4400       302
    50.4600       270
    50.4800       300
    50.5000       308
    50.5200       324
    50.5400       334
    50.5600       332
    50.5800       334
    50.6000       388
    50.6200       444
    50.6400       470
    50.6600       482
    50.6800       562
    50.7000       520
    50.7200       538
    50.7400       562
    50.7600       628
    50.7800       586
    50.8000       582
    50.8200       644
    50.8400       550
    50.8600       590
    50.8800       574
    50.9000       554
    50.9200       578
    50.9400       528
    50.9600       496
    50.9800       508
    51.0000       488
    51.0200       458
    51.0400       468
    51.0600       440
    51.0800       448
    51.1000       458
    51.1200       450
    51.1400       470
    51.1600       532
    51.1800       486
    51.2000       510
    51.2200       520
    51.2400       582
    51.2600       584
    51.2800       598
    51.3000       640
    51.3200       530
    51.3400       550
    51.3600       566
    51.3800       570
    51.4000       592
    51.4200       546
    51.4400       530
    51.4600       498
    51.4800       546
    51.5000       538
    51.5200       516
    51.5400       518
    51.5600       546
    51.5800       598
    51.6000       604
    51.6200       654
    51.6400       690
    51.6600       694
    51.6800       728
    51.7000       784
    51.7200       800
    51.7400       858
    51.7600       854
    51.7800       836
    51.8000       912
    51.8200       908
    51.8400       886
    51.8600       916
    51.8800       928
    51.9000       860
    51.9200       832
    51.9400       822
    51.9600       756
    51.9800       714
    52.0000       724
    52.0200       696
    52.0400       632
    52.0600       632
    52.0800       620
    52.1000       642
    52.1200       618
    52.1400       604
    52.1600       602
    52.1800       604
    52.2000       656
    52.2200       594
    52.2400       700
    52.2600       752
    52.2800       766
    52.3000       856
    52.3200       958
    52.3400       990
    52.3600       996
    52.3800      1054
    52.4000      1232
    52.4200      1284
    52.4400      1274
    52.4600      1348
    52.4800      1390
    52.5000      1410
    52.5200      1390
    52.5400      1294
    52.5600      1298
    52.5800      1170
    52.6000      1120
    52.6200      1058
    52.6400       970
    52.6600       916
    52.6800       946
    52.7000       858
    52.7200       770
    52.7400       754
    52.7600       764
    52.7800       718
    52.8000       642
    52.8200       652
    52.8400       644
    52.8600       640
    52.8800       690
    52.9000       706
    52.9200       688
    52.9400       702
    52.9600       728
    52.9800       770
    53.0000       794
    53.0200       870
    53.0400       974
    53.0600      1066
    53.0800      1136
    53.1000      1220
    53.1200      1418
    53.1400      1388
    53.1600      1506
    53.1800      1508
    53.2000      1520
    53.2200      1534
    53.2400      1506
    53.2600      1440
    53.2800      1334
    53.3000      1330
    53.3200      1336
    53.3400      1208
    53.3600      1132
    53.3800       982
    53.4000       906
    53.4200       868
    53.4400       810
    53.4600       720
    53.4800       640
    53.5000       608
    53.5200       528
    53.5400       510
    53.5600       464
    53.5800       428
    53.6000       394
    53.6200       422
    53.6400       324
    53.6600       332
    53.6800       370
    53.7000       386
    53.7200       308
    53.7400       316
    53.7600       316
    53.7800       248
    53.8000       312
    53.8200       298
    53.8400       258
    53.8600       282
    53.8800       302
    53.9000       262
    53.9200       284
    53.9400       274
    53.9600       288
    53.9800       274
    54.0000       266
    54.0200       314
    54.0400       294
    54.0600       304
    54.0800       286
    54.1000       310
    54.1200       332
    54.1400       344
    54.1600       378
    54.1800       368
    54.2000       384
    54.2200       390
    54.2400       424
    54.2600       430
    54.2800       420
    54.3000       424
    54.3200       440
    54.3400       500
    54.3600       476
    54.3800       544
    54.4000       570
    54.4200       564
    54.4400       602
    54.4600       650
    54.4800       650
    54.5000       722
    54.5200       662
    54.5400       732
    54.5600       686
    54.5800       732
    54.6000       668
    54.6200       676
    54.6400       626
    54.6600       616
    54.6800       624
    54.7000       604
    54.7200       582
    54.7400       580
    54.7600       514
    54.7800       492
    54.8000       484
    54.8200       432
    54.8400       426
    54.8600       354
    54.8800       382
    54.9000       344
    54.9200       380
    54.9400       342
    54.9600       372
    54.9800       320
    55.0000       300
    55.0200       316
    55.0400       324
    55.0600       282
    55.0800       304
    55.1000       332
    55.1200       304
    55.1400       320
    55.1600       346
    55.1800       396
    55.2000       308
    55.2200       318
    55.2400       322
    55.2600       362
    55.2800       370
    55.3000       358
    55.3200       374
    55.3400       392
    55.3600       450
    55.3800       472
    55.4000       398
    55.4200       478
    55.4400       566
    55.4600       522
    55.4800       568
    55.5000       624
    55.5200       658
    55.5400       764
    55.5600       724
    55.5800       854
    55.6000       994
    55.6200      1144
    55.6400      1238
    55.6600      1388
    55.6800      1632
    55.7000      1730
    55.7200      1954
    55.7400      2110
    55.7600      2100
    55.7800      2000
    55.8000      1886
    55.8200      1850
    55.8400      1776
    55.8600      1620
    55.8800      1590
    55.9000      1698
    55.9200      1496
    55.9400      1402
    55.9600      1258
    55.9800      1150
    56.0000      1132
    56.0200      1082
    56.0400      1018
    56.0600       974
    56.0800       970
    56.1000       920
    56.1200       822
    56.1400       852
    56.1600       804
    56.1800       798
    56.2000       710
    56.2200       698
    56.2400       640
    56.2600       638
    56.2800       586
    56.3000       620
    56.3200       566
    56.3400       540
    56.3600       504
    56.3800       478
    56.4000       474
    56.4200       458
    56.4400       436
    56.4600       394
    56.4800       358
    56.5000       374
    56.5200       410
    56.5400       398
    56.5600       406
    56.5800       390
    56.6000       428
    56.6200       418
    56.6400       414
    56.6600       386
    56.6800       444
    56.7000       436
    56.7200       400
    56.7400       400
    56.7600       434
    56.7800       472
    56.8000       428
    56.8200       436
    56.8400       448
    56.8600       506
    56.8800       518
    56.9000       508
    56.9200       580
    56.9400       576
    56.9600       590
    56.9800       634
    57.0000       664
    57.0200       794
    57.0400       742
    57.0600       844
    57.0800       882
    57.1000       916
    57.1200       972
    57.1400      1172
    57.1600      1206
    57.1800      1304
    57.2000      1386
    57.2200      1590
    57.2400      1590
    57.2600      1690
    57.2800      1732
    57.3000      1758
    57.3200      1868
    57.3400      1828
    57.3600      1948
    57.3800      1926
    57.4000      2082
    57.4200      2080
    57.4400      2134
    57.4600      2154
    57.4800      2144
    57.5000      2072
    57.5200      2122
    57.5400      2034
    57.5600      1986
    57.5800      2046
    57.6000      1994
    57.6200      1848
    57.6400      1782
    57.6600      1706
    57.6800      1728
    57.7000      1592
    57.7200      1484
    57.7400      1458
    57.7600      1342
    57.7800      1206
    57.8000      1188
    57.8200      1136
    57.8400      1048
    57.8600      1040
    57.8800      1008
    57.9000       938
    57.9200       914
    57.9400       912
    57.9600       908
    57.9800       938
    58.0000      1006
    58.0200      1066
    58.0400      1026
    58.0600      1072
    58.0800      1116
    58.1000      1214
    58.1200      1252
    58.1400      1330
    58.1600      1428
    58.1800      1574
    58.2000      1678
    58.2200      1662
    58.2400      1810
    58.2600      1846
    58.2800      2016
    58.3000      2118
    58.3200      2110
    58.3400      2366
    58.3600      2348
    58.3800      2410
    58.4000      2566
    58.4200      2658
    58.4400      2880
    58.4600      2842
    58.4800      2918
    58.5000      2920
    58.5200      2976
    58.5400      3022
    58.5600      3044
    58.5800      2958
    58.6000      2926
    58.6200      2758
    58.6400      2682
    58.6600      2588
    58.6800      2482
    58.7000      2276
    58.7200      2134
    58.7400      2082
    58.7600      1876
    58.7800      1760
    58.8000      1628
    58.8200      1468
    58.8400      1354
    58.8600      1234
    58.8800      1136
    58.9000      1108
    58.9200       990
    58.9400       906
    58.9600       928
    58.9800       844
    59.0000       810
    59.0200       748
    59.0400       770
    59.0600       692
    59.0800       678
    59.1000       612
    59.1200       668
    59.1400       650
    59.1600       690
    59.1800       658
    59.2000       640
    59.2200       634
    59.2400       654
    59.2600       680
    59.2800       666
    59.3000       602
    59.3200       592
    59.3400       566
    59.3600       512
    59.3800       528
    59.4000       500
    59.4200       498
    59.4400       494
    59.4600       416
    59.4800       418
    59.5000       394
    59.5200       394
    59.5400       348
    59.5600       384
    59.5800       310
    59.6000       340
    59.6200       328
    59.6400       320
    59.6600       296
    59.6800       302
    59.7000       288
    59.7200       286
    59.7400       288
    59.7600       294
    59.7800       304
    59.8000       274
    59.8200       282
    59.8400       276
    59.8600       262
    59.8800       276
    59.9000       278
    59.9200       280
    59.9400       246
    59.9600       250
    59.9800       276
    60.0000       264
    60.0200       236
    60.0400       256
    60.0600       234
    60.0800       254
    60.1000       236
    60.1200       300
    60.1400       252
    60.1600       272
    60.1800       252
    60.2000       264
    60.2200       278
    60.2400       262
    60.2600       254
    60.2800       254
    60.3000       248
    60.3200       264
    60.3400       256
    60.3600       250
    60.3800       248
    60.4000       288
    60.4200       312
    60.4400       278
    60.4600       252
    60.4800       244
    60.5000       284
    60.5200       258
    60.5400       258
    60.5600       266
    60.5800       314
    60.6000       282
    60.6200       288
    60.6400       324
    60.6600       308
    60.6800       300
    60.7000       316
    60.7200       326
    60.7400       346
    60.7600       332
    60.7800       346
    60.8000       390
    60.8200       394
    60.8400       404
    60.8600       386
    60.8800       454
    60.9000       422
    60.9200       392
    60.9400       394
    60.9600       422
    60.9800       436
    61.0000       454
    61.0200       434
    61.0400       428
    61.0600       422
    61.0800       402
    61.1000       424
    61.1200       460
    61.1400       458
    61.1600       414
    61.1800       446
    61.2000       432
    61.2200       470
    61.2400       488
    61.2600       454
    61.2800       464
    61.3000       460
    61.3200       464
    61.3400       496
    61.3600       476
    61.3800       480
    61.4000       480
    61.4200       496
    61.4400       464
    61.4600       558
    61.4800       510
    61.5000       510
    61.5200       520
    61.5400       496
    61.5600       520
    61.5800       516
    61.6000       506
    61.6200       488
    61.6400       502
    61.6600       496
    61.6800       544
    61.7000       558
    61.7200       504
    61.7400       534
    61.7600       546
    61.7800       550
    61.8000       562
    61.8200       536
    61.8400       480
    61.8600       542
    61.8800       516
    61.9000       538
    61.9200       552
    61.9400       456
    61.9600       516
    61.9800       510
    62.0000       494
    62.0200       476
    62.0400       450
    62.0600       440
    62.0800       434
    62.1000       410
    62.1200       452
    62.1400       462
    62.1600       422
    62.1800       462
    62.2000       408
    62.2200       426
    62.2400       356
    62.2600       372
    62.2800       358
    62.3000       330
    62.3200       310
    62.3400       324
    62.3600       330
    62.3800       320
    62.4000       324
    62.4200       322
    62.4400       300
    62.4600       280
    62.4800       290
    62.5000       296
    62.5200       240
    62.5400       266
    62.5600       250
    62.5800       246
    62.6000       236
    62.6200       224
    62.6400       246
    62.6600       228
    62.6800       240
    62.7000       248
    62.7200       210
    62.7400       222
    62.7600       222
    62.7800       240
    62.8000       250
    62.8200       242
    62.8400       244
    62.8600       230
    62.8800       216
    62.9000       220
    62.9200       226
    62.9400       212
    62.9600       200
    62.9800       176
    63.0000       224
    63.0200       228
    63.0400       218
    63.0600       222
    63.0800       200
    63.1000       224
    63.1200       214
    63.1400       200
    63.1600       206
    63.1800       212
    63.2000       194
    63.2200       222
    63.2400       218
    63.2600       194
    63.2800       206
    63.3000       226
    63.3200       222
    63.3400       214
    63.3600       208
    63.3800       220
    63.4000       226
    63.4200       262
    63.4400       246
    63.4600       234
    63.4800       272
    63.5000       264
    63.5200       282
    63.5400       300
    63.5600       304
    63.5800       318
    63.6000       300
    63.6200       360
    63.6400       372
    63.6600       376
    63.6800       386
    63.7000       396
    63.7200       356
    63.7400       360
    63.7600       360
    63.7800       398
    63.8000       394
    63.8200       404
    63.8400       368
    63.8600       354
    63.8800       334
    63.9000       320
    63.9200       300
    63.9400       296
    63.9600       312
    63.9800       260
    64.0000       276
    64.0200       290
    64.0400       246
    64.0600       240
    64.0800       238
    64.1000       222
    64.1200       218
    64.1400       214
    64.1600       228
    64.1800       230
    64.2000       224
    64.2200       220
    64.2400       238
    64.2600       206
    64.2800       202
    64.3000       188
    64.3200       218
    64.3400       196
    64.3600       230
    64.3800       228
    64.4000       176
    64.4200       210
    64.4400       202
    64.4600       190
    64.4800       208
    64.5000       212
    64.5200       210
    64.5400       246
    64.5600       210
    64.5800       240
    64.6000       196
    64.6200       236
    64.6400       216
    64.6600       224
    64.6800       240
    64.7000       224
    64.7200       230
    64.7400       240
    64.7600       254
    64.7800       246
    64.8000       302
    64.8200       278
    64.8400       244
    64.8600       296
    64.8800       282
    64.9000       324
    64.9200       310
    64.9400       328
    64.9600       282
    64.9800       294
    65.0000       324
    65.0200       328
    65.0400       358
    65.0600       308
    65.0800       358
    65.1000       356
    65.1200       318
    65.1400       350
    65.1600       376
    65.1800       348
    65.2000       362
    65.2200       342
    65.2400       372
    65.2600       312
    65.2800       306
    65.3000       318
    65.3200       342
    65.3400       288
    65.3600       332
    65.3800       246
    65.4000       266
    65.4200       270
    65.4400       284
    65.4600       286
    65.4800       226
    65.5000       266
    65.5200       250
    65.5400       230
    65.5600       248
    65.5800       230
    65.6000       256
    65.6200       232
    65.6400       232
    65.6600       232
    65.6800       222
    65.7000       230
    65.7200       256
    65.7400       194
    65.7600       216
    65.7800       236
    65.8000       212
    65.8200       242
    65.8400       214
    65.8600       254
    65.8800       220
    65.9000       228
    65.9200       268
    65.9400       236
    65.9600       274
    65.9800       204
    66.0000       238
    66.0200       244
    66.0400       250
    66.0600       236
    66.0800       260
    66.1000       240
    66.1200       242
    66.1400       246
    66.1600       250
    66.1800       282
    66.2000       246
    66.2200       270
    66.2400       272
    66.2600       292
    66.2800       282
    66.3000       304
    66.3200       298
    66.3400       352
    66.3600       358
    66.3800       402
    66.4000       412
    66.4200       430
    66.4400       452
    66.4600       458
    66.4800       520
    66.5000       528
    66.5200       508
    66.5400       478
    66.5600       512
    66.5800       558
    66.6000       536
    66.6200       572
    66.6400       554
    66.6600       576
    66.6800       648
    66.7000       602
    66.7200       622
    66.7400       596
    66.7600       624
    66.7800       602
    66.8000       586
    66.8200       632
    66.8400       628
    66.8600       578
    66.8800       610
    66.9000       592
    66.9200       584
    66.9400       562
    66.9600       570
    66.9800       586
    67.0000       584
    67.0200       552
    67.0400       536
    67.0600       488
    67.0800       494
    67.1000       468
    67.1200       464
    67.1400       442
    67.1600       428
    67.1800       406
    67.2000       424
    67.2200       432
    67.2400       386
    67.2600       398
    67.2800       362
    67.3000       368
    67.3200       408
    67.3400       364
    67.3600       394
    67.3800       366
    67.4000       340
    67.4200       330
    67.4400       366
    67.4600       356
    67.4800       376
    67.5000       394
    67.5200       414
    67.5400       410
    67.5600       376
    67.5800       424
    67.6000       414
    67.6200       454
    67.6400       474
    67.6600       496
    67.6800       546
    67.7000       548
    67.7200       554
    67.7400       596
    67.7600       674
    67.7800       728
    67.8000       744
    67.8200       762
    67.8400       836
    67.8600       852
    67.8800       974
    67.9000      1068
    67.9200      1092
    67.9400      1082
    67.9600      1068
    67.9800      1152
    68.0000      1198
    68.0200      1170
    68.0400      1208
    68.0600      1184
    68.0800      1106
    68.1000      1110
    68.1200      1192
    68.1400      1144
    68.1600      1118
    68.1800      1052
    68.2000      1110
    68.2200       990
    68.2400       940
    68.2600       932
    68.2800       762
    68.3000       756
    68.3200       688
    68.3400       702
    68.3600       692
    68.3800       656
    68.4000       642
    68.4200       638
    68.4400       586
    68.4600       550
    68.4800       604
    68.5000       612
    68.5200       612
    68.5400       654
    68.5600       704
    68.5800       762
    68.6000       798
    68.6200       802
    68.6400       804
    68.6600       840
    68.6800       844
    68.7000       784
    68.7200       756
    68.7400       744
    68.7600       672
    68.7800       692
    68.8000       700
    68.8200       684
    68.8400       708
    68.8600       656
    68.8800       698
    68.9000       604
    68.9200       570
    68.9400       542
    68.9600       582
    68.9800       566
    69.0000       590
    69.0200       576
    69.0400       568
    69.0600       620
    69.0800       616
    69.1000       562
    69.1200       568
    69.1400       572
    69.1600       614
    69.1800       560
    69.2000       554
    69.2200       566
    69.2400       566
    69.2600       506
    69.2800       552
    69.3000       532
    69.3200       530
    69.3400       486
    69.3600       542
    69.3800       478
    69.4000       428
    69.4200       450
    69.4400       476
    69.4600       410
    69.4800       424
    69.5000       408
    69.5200       394
    69.5400       356
    69.5600       340
    69.5800       336
    69.6000       338
    69.6200       290
    69.6400       312
    69.6600       284
    69.6800       260
    69.7000       268
    69.7200       264
    69.7400       298
    69.7600       268
    69.7800       292
    69.8000       250
    69.8200       260
    69.8400       286
    69.8600       256
    69.8800       280
    69.9000       258
    69.9200       250
    69.9400       246
    69.9600       236
    69.9800       272
    70.0000       254
    70.0200       262
    70.0400       246
    70.0600       270
    70.0800       248
    70.1000       274
    70.1200       254
    70.1400       284
    70.1600       292
    70.1800       296
    70.2000       270
    70.2200       276
    70.2400       302
    70.2600       298
    70.2800       282
    70.3000       284
    70.3200       292
    70.3400       314
    70.3600       312
    70.3800       314
    70.4000       300
    70.4200       306
    70.4400       322
    70.4600       306
    70.4800       252
    70.5000       306
    70.5200       292
    70.5400       304
    70.5600       292
    70.5800       286
    70.6000       296
    70.6200       290
    70.6400       270
    70.6600       258
    70.6800       280
    70.7000       276
    70.7200       286
    70.7400       242
    70.7600       288
    70.7800       252
    70.8000       248
    70.8200       300
    70.8400       294
    70.8600       258
    70.8800       266
    70.9000       290
    70.9200       266
    70.9400       276
    70.9600       308
    70.9800       272
    71.0000       318
    71.0200       318
    71.0400       352
    71.0600       350
    71.0800       332
    71.1000       376
    71.1200       368
    71.1400       394
    71.1600       424
    71.1800       440
    71.2000       450
    71.2200       506
    71.2400       496
    71.2600       556
    71.2800       550
    71.3000       534
    71.3200       532
    71.3400       560
    71.3600       574
    71.3800       578
    71.4000       536
    71.4200       584
    71.4400       584
    71.4600       588
    71.4800       514
    71.5000       552
    71.5200       514
    71.5400       520
    71.5600       504
    71.5800       496
    71.6000       482
    71.6200       458
    71.6400       492
    71.6600       472
    71.6800       444
    71.7000       420
    71.7200       444
    71.7400       438
    71.7600       438
    71.7800       428
    71.8000       414
    71.8200       414
    71.8400       404
    71.8600       402
    71.8800       368
    71.9000       402
    71.9200       394
    71.9400       386
    71.9600       406
    71.9800       374
    72.0000       398
    72.0200       408
    72.0400       400
    72.0600       350
    72.0800       398
    72.1000       432
    72.1200       434
    72.1400       346
    72.1600       408
    72.1800       394
    72.2000       406
    72.2200       408
    72.2400       398
    72.2600       400
    72.2800       398
    72.3000       368
    72.3200       362
    72.3400       370
    72.3600       344
    72.3800       354
    72.4000       336
    72.4200       334
    72.4400       350
    72.4600       338
    72.4800       360
    72.5000       328
    72.5200       358
    72.5400       316
    72.5600       356
    72.5800       296
    72.6000       322
    72.6200       326
    72.6400       298
    72.6600       300
    72.6800       296
    72.7000       310
    72.7200       286
    72.7400       270
    72.7600       294
    72.7800       252
    72.8000       278
    72.8200       244
    72.8400       246
    72.8600       262
    72.8800       256
    72.9000       236
    72.9200       226
    72.9400       260
    72.9600       248
    72.9800       248
    73.0000       228
    73.0200       248
    73.0400       200
    73.0600       208
    73.0800       250
    73.1000       224
    73.1200       190
    73.1400       206
    73.1600       178
    73.1800       202
    73.2000       210
    73.2200       214
    73.2400       196
    73.2600       210
    73.2800       206
    73.3000       224
    73.3200       218
    73.3400       194
    73.3600       194
    73.3800       218
    73.4000       200
    73.4200       202
    73.4400       196
    73.4600       196
    73.4800       220
    73.5000       222
    73.5200       198
    73.5400       234
    73.5600       192
    73.5800       224
    73.6000       214
    73.6200       218
    73.6400       216
    73.6600       214
    73.6800       218
    73.7000       218
    73.7200       210
    73.7400       224
    73.7600       258
    73.7800       206
    73.8000       256
    73.8200       272
    73.8400       238
    73.8600       234
    73.8800       242
    73.9000       216
    73.9200       240
    73.9400       228
    73.9600       242
    73.9800       242
    74.0000       238
    74.0200       226
    74.0400       212
    74.0600       222
    74.0800       218
    74.1000       220
    74.1200       226
    74.1400       218
    74.1600       204
    74.1800       240
    74.2000       194
    74.2200       196
    74.2400       204
    74.2600       202
    74.2800       208
    74.3000       198
    74.3200       176
    74.3400       160
    74.3600       178
    74.3800       206
    74.4000       188
    74.4200       190
    74.4400       190
    74.4600       192
    74.4800       162
    74.5000       178
    74.5200       206
    74.5400       178
    74.5600       184
    74.5800       180
    74.6000       180
    74.6200       204
    74.6400       166
    74.6600       166
    74.6800       152
    74.7000       164
    74.7200       168
    74.7400       190
    74.7600       194
    74.7800       174
    74.8000       178
    74.8200       158
    74.8400       166
    74.8600       210
    74.8800       166
    74.9000       196
    74.9200       188
    74.9400       186
    74.9600       164
    74.9800       190
    75.0000       188
    75.0200       206
    75.0400       154
    75.0600       204
    75.0800       184
    75.1000       214
    75.1200       196
    75.1400       162
    75.1600       172
    75.1800       200
    75.2000       198
    75.2200       180
    75.2400       184
    75.2600       214
    75.2800       200
    75.3000       222
    75.3200       240
    75.3400       190
    75.3600       212
    75.3800       242
    75.4000       210
    75.4200       236
    75.4400       216
    75.4600       266
    75.4800       250
    75.5000       268
    75.5200       274
    75.5400       266
    75.5600       288
    75.5800       272
    75.6000       302
    75.6200       336
    75.6400       380
    75.6600       350
    75.6800       392
    75.7000       430
    75.7200       450
    75.7400       480
    75.7600       490
    75.7800       550
    75.8000       586
    75.8200       592
    75.8400       644
    75.8600       636
    75.8800       606
    75.9000       546
    75.9200       520
    75.9400       490
    75.9600       512
    75.9800       496
    76.0000       518
    76.0200       532
    76.0400       510
    76.0600       534
    76.0800       550
    76.1000       504
    76.1200       472
    76.1400       442
    76.1600       420
    76.1800       452
    76.2000       408
    76.2200       372
    76.2400       348
    76.2600       378
    76.2800       370
    76.3000       370
    76.3200       336
    76.3400       350
    76.3600       330
    76.3800       338
    76.4000       372
    76.4200       356
    76.4400       370
    76.4600       346
    76.4800       326
    76.5000       348
    76.5200       350
    76.5400       350
    76.5600       326
    76.5800       342
    76.6000       376
    76.6200       374
    76.6400       368
    76.6600       352
    76.6800       350
    76.7000       386
    76.7200       374
    76.7400       358
    76.7600       402
    76.7800       442
    76.8000       404
    76.8200       394
    76.8400       404
    76.8600       412
    76.8800       436
    76.9000       392
    76.9200       386
    76.9400       354
    76.9600       390
    76.9800       390
    77.0000       392
    77.0200       436
    77.0400       464
    77.0600       468
    77.0800       454
    77.1000       498
    77.1200       514
    77.1400       536
    77.1600       562
    77.1800       546
    77.2000       584
    77.2200       594
    77.2400       640
    77.2600       674
    77.2800       654
    77.3000       656
    77.3200       712
    77.3400       684
    77.3600       688
    77.3800       790
    77.4000       804
    77.4200       714
    77.4400       756
    77.4600       730
    77.4800       702
    77.5000       738
    77.5200       702
    77.5400       644
    77.5600       654
    77.5800       650
    77.6000       636
    77.6200       572
    77.6400       546
    77.6600       516
    77.6800       556
    77.7000       548
    77.7200       470
    77.7400       462
    77.7600       456
    77.7800       462
    77.8000       382
    77.8200       398
    77.8400       406
    77.8600       380
    77.8800       350
    77.9000       372
    77.9200       352
    77.9400       342
    77.9600       378
    77.9800       362
    78.0000       358
    78.0200       340
    78.0400       388
    78.0600       340
    78.0800       338
    78.1000       348
    78.1200       348
    78.1400       344
    78.1600       336
    78.1800       374
    78.2000       356
    78.2200       350
    78.2400       378
    78.2600       368
    78.2800       386
    78.3000       354
    78.3200       388
    78.3400       358
    78.3600       382
    78.3800       372
    78.4000       398
    78.4200       380
    78.4400       378
    78.4600       368
    78.4800       378
    78.5000       356
    78.5200       348
    78.5400       374
    78.5600       360
    78.5800       342
    78.6000       346
    78.6200       372
    78.6400       328
    78.6600       338
    78.6800       328
    78.7000       314
    78.7200       316
    78.7400       302
    78.7600       304
    78.7800       266
    78.8000       296
    78.8200       248
    78.8400       308
    78.8600       260
    78.8800       250
    78.9000       280
    78.9200       222
    78.9400       234
    78.9600       228
    78.9800       228
    79.0000       254
    79.0200       210
    79.0400       242
    79.0600       202
    79.0800       194
    79.1000       228
    79.1200       228
    79.1400       214
    79.1600       206
    79.1800       220
    79.2000       222
    79.2200       192
    79.2400       200
    79.2600       200
    79.2800       214
    79.3000       244
    79.3200       232
    79.3400       190
    79.3600       262
    79.3800       242
    79.4000       238
    79.4200       228
    79.4400       208
    79.4600       204
    79.4800       196
    79.5000       234
    79.5200       224
    79.5400       224
    79.5600       198
    79.5800       230
    79.6000       212
    79.6200       204
    79.6400       246
    79.6600       212
    79.6800       224
    79.7000       200
    79.7200       222
    79.7400       216
    79.7600       186
    79.7800       192
    79.8000       222
    79.8200       220
    79.8400       210
    79.8600       208
    79.8800       210
    79.9000       208
    79.9200       202
    79.9400       220
    79.9600       182
    79.9800       202
    80.0000       206
    80.0200       192
    80.0400       200
    80.0600       198
    80.0800       216
    80.1000       192
    80.1200       176
    80.1400       200
    80.1600       190
    80.1800       188
    80.2000       198
    80.2200       186
    80.2400       200
    80.2600       166
    80.2800       214
    80.3000       206
    80.3200       158
    80.3400       162
    80.3600       188
    80.3800       192
    80.4000       162
    80.4200       190
    80.4400       152
    80.4600       184
    80.4800       152
    80.5000       170
    80.5200       170
    80.5400       164
    80.5600       162
    80.5800       180
    80.6000       188
    80.6200       180
    80.6400       182
    80.6600       190
    80.6800       178
    80.7000       158
    80.7200       156
    80.7400       184
    80.7600       184
    80.7800       158
    80.8000       184
    80.8200       176
    80.8400       184
    80.8600       178
    80.8800       202
    80.9000       208
    80.9200       170
    80.9400       178
    80.9600       208
    80.9800       184
    81.0000       170
    81.0200       222
    81.0400       210
    81.0600       212
    81.0800       188
    81.1000       190
    81.1200       196
    81.1400       212
    81.1600       236
    81.1800       232
    81.2000       212
    81.2200       246
    81.2400       240
    81.2600       226
    81.2800       228
    81.3000       228
    81.3200       248
    81.3400       238
    81.3600       244
    81.3800       224
    81.4000       214
    81.4200       236
    81.4400       206
    81.4600       250
    81.4800       238
    81.5000       254
    81.5200       218
    81.5400       244
    81.5600       232
    81.5800       212
    81.6000       236
    81.6200       210
    81.6400       224
    81.6600       258
    81.6800       218
    81.7000       242
    81.7200       224
    81.7400       242
    81.7600       242
    81.7800       250
    81.8000       234
    81.8200       210
    81.8400       256
    81.8600       216
    81.8800       234
    81.9000       234
    81.9200       260
    81.9400       260
    81.9600       286
    81.9800       246
    82.0000       256
    82.0200       244
    82.0400       242
    82.0600       242
    82.0800       248
    82.1000       256
    82.1200       228
    82.1400       248
    82.1600       254
    82.1800       258
    82.2000       256
    82.2200       270
    82.2400       226
    82.2600       266
    82.2800       254
    82.3000       278
    82.3200       274
    82.3400       266
    82.3600       286
    82.3800       272
    82.4000       310
    82.4200       284
    82.4400       292
    82.4600       320
    82.4800       282
    82.5000       310
    82.5200       328
    82.5400       330
    82.5600       322
    82.5800       326
    82.6000       352
    82.6200       352
    82.6400       346
    82.6600       334
    82.6800       348
    82.7000       352
    82.7200       330
    82.7400       312
    82.7600       326
    82.7800       358
    82.8000       314
    82.8200       326
    82.8400       340
    82.8600       358
    82.8800       304
    82.9000       342
    82.9200       334
    82.9400       310
    82.9600       332
    82.9800       304
    83.0000       340
    83.0200       312
    83.0400       332
    83.0600       294
    83.0800       308
    83.1000       346
    83.1200       322
    83.1400       338
    83.1600       326
    83.1800       312
    83.2000       308
    83.2200       314
    83.2400       288
    83.2600       284
    83.2800       290
    83.3000       288
    83.3200       304
    83.3400       324
    83.3600       288
    83.3800       274
    83.4000       290
    83.4200       318
    83.4400       276
    83.4600       312
    83.4800       274
    83.5000       290
    83.5200       288
    83.5400       280
    83.5600       260
    83.5800       282
    83.6000       296
    83.6200       280
    83.6400       258
    83.6600       280
    83.6800       268
    83.7000       254
    83.7200       272
    83.7400       258
    83.7600       240
    83.7800       232
    83.8000       268
    83.8200       256
    83.8400       230
    83.8600       222
    83.8800       240
    83.9000       222
    83.9200       232
    83.9400       238
    83.9600       234
    83.9800       226
    84.0000       236
    84.0200       212
    84.0400       188
    84.0600       182
    84.0800       216
    84.1000       230
    84.1200       218
    84.1400       214
    84.1600       186
    84.1800       210
    84.2000       210
    84.2200       220
    84.2400       208
    84.2600       198
    84.2800       208
    84.3000       208
    84.3200       192
    84.3400       228
    84.3600       196
    84.3800       204
    84.4000       200
    84.4200       198
    84.4400       198
    84.4600       194
    84.4800       168
    84.5000       184
    84.5200       180
    84.5400       196
    84.5600       222
    84.5800       192
    84.6000       192
    84.6200       202
    84.6400       192
    84.6600       208
    84.6800       178
    84.7000       180
    84.7200       186
    84.7400       210
    84.7600       190
    84.7800       176
    84.8000       208
    84.8200       188
    84.8400       196
    84.8600       196
    84.8800       202
    84.9000       204
    84.9200       186
    84.9400       180
    84.9600       192
    84.9800       204
    85.0000       202
    85.0200       176
    85.0400       172
    85.0600       212
    85.0800       214
    85.1000       172
    85.1200       230
    85.1400       194
    85.1600       232
    85.1800       202
    85.2000       238
    85.2200       226
    85.2400       210
    85.2600       240
    85.2800       216
    85.3000       204
    85.3200       242
    85.3400       228
    85.3600       218
    85.3800       238
    85.4000       234
    85.4200       240
    85.4400       208
    85.4600       182
    85.4800       232
    85.5000       228
    85.5200       212
    85.5400       208
    85.5600       202
    85.5800       204
    85.6000       226
    85.6200       230
    85.6400       186
    85.6600       216
    85.6800       188
    85.7000       192
    85.7200       194
    85.7400       200
    85.7600       206
    85.7800       162
    85.8000       208
    85.8200       198
    85.8400       188
    85.8600       176
    85.8800       182
    85.9000       160
    85.9200       178
    85.9400       170
    85.9600       178
    85.9800       182
    86.0000       164
    86.0200       188
    86.0400       154
    86.0600       180
    86.0800       172
    86.1000       198
    86.1200       186
    86.1400       178
    86.1600       162
    86.1800       182
    86.2000       174
    86.2200       188
    86.2400       186
    86.2600       226
    86.2800       180
    86.3000       172
    86.3200       190
    86.3400       192
    86.3600       188
    86.3800       200
    86.4000       208
    86.4200       216
    86.4400       208
    86.4600       244
    86.4800       212
    86.5000       222
    86.5200       238
    86.5400       244
    86.5600       236
    86.5800       242
    86.6000       258
    86.6200       278
    86.6400       280
    86.6600       292
    86.6800       286
    86.7000       278
    86.7200       310
    86.7400       332
    86.7600       298
    86.7800       328
    86.8000       300
    86.8200       324
    86.8400       316
    86.8600       336
    86.8800       364
    86.9000       312
    86.9200       348
    86.9400       380
    86.9600       334
    86.9800       424
    87.0000       398
    87.0200       388
    87.0400       402
    87.0600       400
    87.0800       466
    87.1000       466
    87.1200       484
    87.1400       528
    87.1600       556
    87.1800       540
    87.2000       592
    87.2200       618
    87.2400       668
    87.2600       730
    87.2800       780
    87.3000       816
    87.3200       856
    87.3400       932
    87.3600       990
    87.3800       936
    87.4000       898
    87.4200       856
    87.4400       894
    87.4600       800
    87.4800       744
    87.5000       748
    87.5200       722
    87.5400       738
    87.5600       718
    87.5800       710
    87.6000       712
    87.6200       688
    87.6400       734
    87.6600       694
    87.6800       666
    87.7000       622
    87.7200       578
    87.7400       570
    87.7600       550
    87.7800       504
    87.8000       496
    87.8200       470
    87.8400       456
    87.8600       386
    87.8800       370
    87.9000       374
    87.9200       358
    87.9400       328
    87.9600       348
    87.9800       322
    88.0000       300
    88.0200       326
    88.0400       286
    88.0600       302
    88.0800       324
    88.1000       268
    88.1200       262
    88.1400       278
    88.1600       248
    88.1800       268
    88.2000       258
    88.2200       264
    88.2400       284
    88.2600       252
    88.2800       216
    88.3000       220
    88.3200       240
    88.3400       270
    88.3600       236
    88.3800       246
    88.4000       230
    88.4200       234
    88.4400       234
    88.4600       226
    88.4800       254
    88.5000       220
    88.5200       210
    88.5400       224
    88.5600       236
    88.5800       224
    88.6000       224
    88.6200       244
    88.6400       234
    88.6600       218
    88.6800       212
    88.7000       234
    88.7200       230
    88.7400       190
    88.7600       238
    88.7800       226
    88.8000       214
    88.8200       214
    88.8400       214
    88.8600       236
    88.8800       228
    88.9000       234
    88.9200       242
    88.9400       208
    88.9600       246
    88.9800       218
    89.0000       222
    89.0200       246
    89.0400       220
    89.0600       220
    89.0800       206
    89.1000       224
    89.1200       222
    89.1400       232
    89.1600       238
    89.1800       234
    89.2000       220
    89.2200       234
    89.2400       232
    89.2600       248
    89.2800       220
    89.3000       258
    89.3200       266
    89.3400       262
    89.3600       242
    89.3800       206
    89.4000       232
    89.4200       272
    89.4400       244
    89.4600       232
    89.4800       268
    89.5000       262
    89.5200       252
    89.5400       252
    89.5600       222
    89.5800       274
    89.6000       274
    89.6200       276
    89.6400       244
    89.6600       262
    89.6800       248
    89.7000       284
    89.7200       274
    89.7400       256
    89.7600       268
    89.7800       254
    89.8000       260
    89.8200       290
    89.8400       274
    89.8600       250
    89.8800       262
    89.9000       230
    89.9200       236
    89.9400       248
    89.9600       252
    89.9800       264
    90.0000       264
