    10.0000       336
    10.0200       352
    10.0400       358
    10.0600       380
    10.0800       394
    10.1000       398
    10.1200       370
    10.1400       358
    10.1600       356
    10.1800       372
    10.2000       386
    10.2200       370
    10.2400       364
    10.2600       378
    10.2800       360
    10.3000       368
    10.3200       338
    10.3400       346
    10.3600       308
    10.3800       344
    10.4000       328
    10.4200       370
    10.4400       356
    10.4600       364
    10.4800       328
    10.5000       362
    10.5200       342
    10.5400       348
    10.5600       330
    10.5800       330
    10.6000       366
    10.6200       370
    10.6400       350
    10.6600       334
    10.6800       344
    10.7000       354
    10.7200       346
    10.7400       314
    10.7600       340
    10.7800       338
    10.8000       336
    10.8200       292
    10.8400       328
    10.8600       342
    10.8800       314
    10.9000       306
    10.9200       296
    10.9400       322
    10.9600       326
    10.9800       340
    11.0000       324
    11.0200       338
    11.0400       326
    11.0600       322
    11.0800       322
    11.1000       338
    11.1200       316
    11.1400       306
    11.1600       326
    11.1800       316
    11.2000       324
    11.2200       334
    11.2400       338
    11.2600       356
    11.2800       328
    11.3000       320
    11.3200       328
    11.3400       286
    11.3600       326
    11.3800       338
    11.4000       308
    11.4200       322
    11.4400       302
    11.4600       284
    11.4800       316
    11.5000       322
    11.5200       314
    11.5400       310
    11.5600       318
    11.5800       282
    11.6000       320
    11.6200       312
    11.6400       316
    11.6600       280
    11.6800       346
    11.7000       298
    11.7200       314
    11.7400       326
    11.7600       310
    11.7800       344
    11.8000       300
    11.8200       314
    11.8400       294
    11.8600       314
    11.8800       302
    11.9000       308
    11.9200       330
    11.9400       330
    11.9600       308
    11.9800       302
    12.0000       302
    12.0200       324
    12.0400       300
    12.0600       298
    12.0800       284
    12.1000       278
    12.1200       324
    12.1400       314
    12.1600       274
    12.1800       296
    12.2000       310
    12.2200       290
    12.2400       290
    12.2600       304
    12.2800       282
    12.3000       306
    12.3200       282
    12.3400       304
    12.3600       272
    12.3800       284
    12.4000       256
    12.4200       242
    12.4400       274
    12.4600       306
    12.4800       270
    12.5000       286
    12.5200       256
    12.5400       270
    12.5600       288
    12.5800       264
    12.6000       274
    12.6200       288
    12.6400       278
    12.6600       282
    12.6800       290
    12.7000       282
    12.7200       226
    12.7400       284
    12.7600       268
    12.7800       258
    12.8000       274
    12.8200       292
    12.8400       294
    12.8600       314
    12.8800       312
    12.9000       286
    12.9200       314
    12.9400       286
    12.9600       296
    12.9800       274
    13.0000       308
    13.0200       276
    13.0400       274
    13.0600       272
    13.0800       266
    13.1000       268
    13.1200       254
    13.1400       276
    13.1600       270
    13.1800       290
    13.2000       284
    13.2200       262
    13.2400       252
    13.2600       270
    13.2800       266
    13.3000       254
    13.3200       294
    13.3400       244
    13.3600       264
    13.3800       246
    13.4000       272
    13.4200       246
    13.4400       254
    13.4600       294
    13.4800       254
    13.5000       248
    13.5200       254
    13.5400       260
    13.5600       250
    13.5800       252
    13.6000       240
    13.6200       238
    13.6400       272
    13.6600       268
    13.6800       214
    13.7000       244
    13.7200       246
    13.7400       238
    13.7600       248
    13.7800       230
    13.8000       248
    13.8200       224
    13.8400       244
    13.8600       246
    13.8800       266
    13.9000       248
    13.9200       232
    13.9400       242
    13.9600       222
    13.9800       278
    14.0000       232
    14.0200       270
    14.0400       258
    14.0600       242
    14.0800       258
    14.1000       220
    14.1200       230
    14.1400       248
    14.1600       252
    14.1800       236
    14.2000       258
    14.2200       240
    14.2400       246
    14.2600       260
    14.2800       256
    14.3000       222
    14.3200       208
    14.3400       222
    14.3600       244
    14.3800       238
    14.4000       244
    14.4200       232
    14.4400       224
    14.4600       240
    14.4800       238
    14.5000       236
    14.5200       234
    14.5400       254
    14.5600       236
    14.5800       256
    14.6000       228
    14.6200       220
    14.6400       242
    14.6600       222
    14.6800       250
    14.7000       228
    14.7200       226
    14.7400       248
    14.7600       228
    14.7800       244
    14.8000       240
    14.8200       234
    14.8400       258
    14.8600       244
    14.8800       246
    14.9000       256
    14.9200       246
    14.9400       244
    14.9600       246
    14.9800       246
    15.0000       248
    15.0200       254
    15.0400       270
    15.0600       250
    15.0800       240
    15.1000       228
    15.1200       286
    15.1400       270
    15.1600       246
    15.1800       226
    15.2000       246
    15.2200       248
    15.2400       268
    15.2600       280
    15.2800       250
    15.3000       228
    15.3200       242
    15.3400       242
    15.3600       268
    15.3800       246
    15.4000       240
    15.4200       236
    15.4400       234
    15.4600       260
    15.4800       266
    15.5000       244
    15.5200       246
    15.5400       262
    15.5600       264
    15.5800       258
    15.6000       236
    15.6200       256
    15.6400       242
    15.6600       230
    15.6800       242
    15.7000       246
    15.7200       238
    15.7400       238
    15.7600       248
    15.7800       242
    15.8000       232
    15.8200       230
    15.8400       222
    15.8600       224
    15.8800       212
    15.9000       216
    15.9200       206
    15.9400       230
    15.9600       218
    15.9800       260
    16.0000       228
    16.0200       220
    16.0400       222
    16.0600       210
    16.0800       212
    16.1000       216
    16.1200       212
    16.1400       210
    16.1600       226
    16.1800       232
    16.2000       208
    16.2200       218
    16.2400       240
    16.2600       202
    16.2800       214
    16.3000       204
    16.3200       262
    16.3400       212
    16.3600       222
    16.3800       208
    16.4000       214
    16.4200       200
    16.4400       220
    16.4600       230
    16.4800       228
    16.5000       222
    16.5200       204
    16.5400       212
    16.5600       206
    16.5800       218
    16.6000       224
    16.6200       202
    16.6400       234
    16.6600       212
    16.6800       200
    16.7000       210
    16.7200       232
    16.7400       236
    16.7600       186
    16.7800       234
    16.8000       212
    16.8200       208
    16.8400       218
    16.8600       174
    16.8800       222
    16.9000       228
    16.9200       234
    16.9400       214
    16.9600       196
    16.9800       228
    17.0000       214
    17.0200       236
    17.0400       224
    17.0600       230
    17.0800       254
    17.1000       256
    17.1200       242
    17.1400       234
    17.1600       252
    17.1800       220
    17.2000       252
    17.2200       214
    17.2400       220
    17.2600       202
    17.2800       252
    17.3000       190
    17.3200       224
    17.3400       210
    17.3600       212
    17.3800       246
    17.4000       222
    17.4200       236
    17.4400       238
    17.4600       184
    17.4800       210
    17.5000       232
    17.5200       190
    17.5400       240
    17.5600       190
    17.5800       212
    17.6000       212
    17.6200       234
    17.6400       208
    17.6600       220
    17.6800       224
    17.7000       218
    17.7200       220
    17.7400       240
    17.7600       192
    17.7800       194
    17.8000       220
    17.8200       202
    17.8400       218
    17.8600       248
    17.8800       198
    17.9000       206
    17.9200       188
    17.9400       218
    17.9600       218
    17.9800       204
    18.0000       218
    18.0200       212
    18.0400       196
    18.0600       226
    18.0800       224
    18.1000       220
    18.1200       178
    18.1400       210
    18.1600       202
    18.1800       246
    18.2000       208
    18.2200       220
    18.2400       222
    18.2600       208
    18.2800       226
    18.3000       222
    18.3200       200
    18.3400       214
    18.3600       220
    18.3800       228
    18.4000       208
    18.4200       202
    18.4400       206
    18.4600       204
    18.4800       230
    18.5000       212
    18.5200       204
    18.5400       236
    18.5600       234
    18.5800       226
    18.6000       214
    18.6200       240
    18.6400       232
    18.6600       234
    18.6800       234
    18.7000       246
    18.7200       272
    18.7400       254
    18.7600       236
    18.7800       278
    18.8000       284
    18.8200       282
    18.8400       274
    18.8600       272
    18.8800       300
    18.9000       328
    18.9200       306
    18.9400       312
    18.9600       296
    18.9800       314
    19.0000       328
    19.0200       324
    19.0400       386
    19.0600       380
    19.0800       346
    19.1000       396
    19.1200       428
    19.1400       470
    19.1600       496
    19.1800       560
    19.2000       600
    19.2200       674
    19.2400       676
    19.2600       812
    19.2800       892
    19.3000      1072
    19.3200      1134
    19.3400      1246
    19.3600      1434
    19.3800      1682
    19.4000      1936
    19.4200      2232
    19.4400      2628
    19.4600      2962
    19.4800      3334
    19.5000      3828
    19.5200      4008
    19.5400      4284
    19.5600      4400
    19.5800      4164
    19.6000      3764
    19.6200      3324
    19.6400      2674
    19.6600      2284
    19.6800      1822
    19.7000      1574
    19.7200      1478
    19.7400      1418
    19.7600      1412
    19.7800      1514
    19.8000      1528
    19.8200      1690
    19.8400      1842
    19.8600      1996
    19.8800      2236
    19.9000      2528
    19.9200      2758
    19.9400      2994
    19.9600      3342
    19.9800      3508
    20.0000      3644
    20.0200      3370
    20.0400      2998
    20.0600      2692
    20.0800      2146
    20.1000      1758
    20.1200      1384
    20.1400      1168
    20.1600       970
    20.1800       792
    20.2000       656
    20.2200       620
    20.2400       588
    20.2600       558
    20.2800       460
    20.3000       436
    20.3200       482
    20.3400       394
    20.3600       350
    20.3800       334
    20.4000       330
    20.4200       362
    20.4400       314
    20.4600       308
    20.4800       294
    20.5000       290
    20.5200       298
    20.5400       290
    20.5600       262
    20.5800       258
    20.6000       246
    20.6200       236
    20.6400       272
    20.6600       248
    20.6800       256
    20.7000       252
    20.7200       202
    20.7400       244
    20.7600       232
    20.7800       234
    20.8000       260
    20.8200       244
    20.8400       240
    20.8600       198
    20.8800       248
    20.9000       244
    20.9200       242
    20.9400       240
    20.9600       272
    20.9800       254
    21.0000       228
    21.0200       248
    21.0400       258
    21.0600       224
    21.0800       264
    21.1000       268
    21.1200       242
    21.1400       252
    21.1600       236
    21.1800       232
    21.2000       252
    21.2200       250
    21.2400       252
    21.2600       264
    21.2800       226
    21.3000       238
    21.3200       214
    21.3400       250
    21.3600       190
    21.3800       212
    21.4000       224
    21.4200       208
    21.4400       212
    21.4600       242
    21.4800       194
    21.5000       208
    21.5200       190
    21.5400       222
    21.5600       204
    21.5800       220
    21.6000       226
    21.6200       210
    21.6400       200
    21.6600       196
    21.6800       212
    21.7000       218
    21.7200       218
    21.7400       204
    21.7600       202
    21.7800       212
    21.8000       204
    21.8200       210
    21.8400       206
    21.8600       232
    21.8800       226
    21.9000       214
    21.9200       230
    21.9400       232
    21.9600       204
    21.9800       224
    22.0000       236
    22.0200       228
    22.0400       188
    22.0600       216
    22.0800       202
    22.1000       210
    22.1200       240
    22.1400       234
    22.1600       248
    22.1800       254
    22.2000       252
    22.2200       280
    22.2400       302
    22.2600       284
    22.2800       280
    22.3000       322
    22.3200       316
    22.3400       302
    22.3600       332
    22.3800       384
    22.4000       444
    22.4200       434
    22.4400       500
    22.4600       484
    22.4800       548
    22.5000       630
    22.5200       708
    22.5400       798
    22.5600       824
    22.5800       958
    22.6000      1086
    22.6200      1214
    22.6400      1416
    22.6600      1610
    22.6800      1902
    22.7000      2238
    22.7200      2420
    22.7400      2970
    22.7600      3452
    22.7800      3960
    22.8000      4622
    22.8200      5050
    22.8400      5760
    22.8600      6062
    22.8800      5978
    22.9000      5632
    22.9200      5118
    22.9400      4312
    22.9600      3622
    22.9800      2870
    23.0000      2368
    23.0200      1816
    23.0400      1574
    23.0600      1272
    23.0800      1098
    23.1000       996
    23.1200       864
    23.1400       810
    23.1600       762
    23.1800       682
    23.2000       628
    23.2200       606
    23.2400       532
    23.2600       504
    23.2800       476
    23.3000       468
    23.3200       430
    23.3400       388
    23.3600       398
    23.3800       384
    23.4000       380
    23.4200       344
    23.4400       330
    23.4600       342
    23.4800       306
    23.5000       312
    23.5200       334
    23.5400       258
    23.5600       286
    23.5800       302
    23.6000       260
    23.6200       282
    23.6400       262
    23.6600       236
    23.6800       244
    23.7000       284
    23.7200       270
    23.7400       260
    23.7600       278
    23.7800       262
    23.8000       266
    23.8200       264
    23.8400       252
    23.8600       280
    23.8800       272
    23.9000       272
    23.9200       274
    23.9400       294
    23.9600       270
    23.9800       276
    24.0000       306
    24.0200       302
    24.0400       276
    24.0600       298
    24.0800       270
    24.1000       284
    24.1200       290
    24.1400       296
    24.1600       278
    24.1800       282
    24.2000       254
    24.2200       262
    24.2400       240
    24.2600       298
    24.2800       262
    24.3000       296
    24.3200       286
    24.3400       278
    24.3600       288
    24.3800       284
    24.4000       296
    24.4200       306
    24.4400       328
    24.4600       312
    24.4800       316
    24.5000       336
    24.5200       310
    24.5400       316
    24.5600       328
    24.5800       314
    24.6000       346
    24.6200       350
    24.6400       342
    24.6600       330
    24.6800       350
    24.7000       310
    24.7200       274
    24.7400       304
    24.7600       266
    24.7800       250
    24.8000       292
    24.8200       266
    24.8400       274
    24.8600       248
    24.8800       262
    24.9000       244
    24.9200       254
    24.9400       234
    24.9600       212
    24.9800       254
    25.0000       250
    25.0200       268
    25.0400       282
    25.0600       250
    25.0800       254
    25.1000       258
    25.1200       276
    25.1400       258
    25.1600       258
    25.1800       264
    25.2000       286
    25.2200       282
    25.2400       334
    25.2600       300
    25.2800       334
    25.3000       372
    25.3200       390
    25.3400       352
    25.3600       438
    25.3800       450
    25.4000       520
    25.4200       560
    25.4400       586
    25.4600       714
    25.4800       770
    25.5000       820
    25.5200       966
    25.5400      1076
    25.5600      1176
    25.5800      1300
    25.6000      1314
    25.6200      1298
    25.6400      1334
    25.6600      1166
    25.6800      1008
    25.7000       896
    25.7200       794
    25.7400       638
    25.7600       550
    25.7800       482
    25.8000       404
    25.8200       404
    25.8400       396
    25.8600       354
    25.8800       342
    25.9000       328
    25.9200       286
    25.9400       276
    25.9600       282
    25.9800       306
    26.0000       270
    26.0200       274
    26.0400       272
    26.0600       302
    26.0800       298
    26.1000       270
    26.1200       286
    26.1400       284
    26.1600       266
    26.1800       286
    26.2000       320
    26.2200       308
    26.2400       324
    26.2600       334
    26.2800       334
    26.3000       384
    26.3200       370
    26.3400       364
    26.3600       416
    26.3800       394
    26.4000       392
    26.4200       404
    26.4400       440
    26.4600       402
    26.4800       504
    26.5000       466
    26.5200       500
    26.5400       506
    26.5600       492
    26.5800       502
    26.6000       524
    26.6200       540
    26.6400       520
    26.6600       530
    26.6800       494
    26.7000       466
    26.7200       448
    26.7400       412
    26.7600       382
    26.7800       366
    26.8000       382
    26.8200       332
    26.8400       300
    26.8600       272
    26.8800       304
    26.9000       270
    26.9200       272
    26.9400       270
    26.9600       262
    26.9800       272
    27.0000       260
    27.0200       248
    27.0400       256
    27.0600       256
    27.0800       218
    27.1000       242
    27.1200       230
    27.1400       238
    27.1600       252
    27.1800       268
    27.2000       250
    27.2200       252
    27.2400       238
    27.2600       252
    27.2800       244
    27.3000       216
    27.3200       242
    27.3400       214
    27.3600       216
    27.3800       250
    27.4000       258
    27.4200       244
    27.4400       252
    27.4600       228
    27.4800       234
    27.5000       252
    27.5200       252
    27.5400       240
    27.5600       258
    27.5800       256
    27.6000       262
    27.6200       238
    27.6400       292
    27.6600       256
    27.6800       288
    27.7000       282
    27.7200       274
    27.7400       264
    27.7600       280
    27.7800       302
    27.8000       324
    27.8200       292
    27.8400       360
    27.8600       410
    27.8800       414
    27.9000       452
    27.9200       444
    27.9400       478
    27.9600       580
    27.9800       588
    28.0000       704
    28.0200       744
    28.0400       836
    28.0600       908
    28.0800      1074
    28.1000      1236
    28.1200      1400
    28.1400      1694
    28.1600      2038
    28.1800      2174
    28.2000      2472
    28.2200      2784
    28.2400      3022
    28.2600      3076
    28.2800      2994
    28.3000      2850
    28.3200      2684
    28.3400      2304
    28.3600      2066
    28.3800      1682
    28.4000      1424
    28.4200      1208
    28.4400       994
    28.4600       878
    28.4800       704
    28.5000       606
    28.5200       560
    28.5400       462
    28.5600       456
    28.5800       370
    28.6000       390
    28.6200       408
    28.6400       326
    28.6600       328
    28.6800       316
    28.7000       316
    28.7200       310
    28.7400       286
    28.7600       252
    28.7800       252
    28.8000       260
    28.8200       276
    28.8400       236
    28.8600       242
    28.8800       252
    28.9000       254
    28.9200       214
    28.9400       228
    28.9600       216
    28.9800       222
    29.0000       206
    29.0200       228
    29.0400       224
    29.0600       212
    29.0800       196
    29.1000       224
    29.1200       210
    29.1400       234
    29.1600       198
    29.1800       188
    29.2000       212
    29.2200       194
    29.2400       218
    29.2600       238
    29.2800       222
    29.3000       230
    29.3200       204
    29.3400       208
    29.3600       252
    29.3800       204
    29.4000       210
    29.4200       212
    29.4400       212
    29.4600       220
    29.4800       202
    29.5000       236
    29.5200       214
    29.5400       232
    29.5600       232
    29.5800       212
    29.6000       236
    29.6200       220
    29.6400       224
    29.6600       246
    29.6800       186
    29.7000       206
    29.7200       230
    29.7400       222
    29.7600       200
    29.7800       212
    29.8000       208
    29.8200       204
    29.8400       204
    29.8600       198
    29.8800       202
    29.9000       226
    29.9200       204
    29.9400       226
    29.9600       240
    29.9800       224
    30.0000       242
    30.0200       204
    30.0400       228
    30.0600       264
    30.0800       224
    30.1000       244
    30.1200       266
    30.1400       216
    30.1600       220
    30.1800       244
    30.2000       258
    30.2200       238
    30.2400       276
    30.2600       254
    30.2800       254
    30.3000       308
    30.3200       248
    30.3400       256
    30.3600       278
    30.3800       274
    30.4000       270
    30.4200       274
    30.4400       312
    30.4600       290
    30.4800       262
    30.5000       266
    30.5200       294
    30.5400       302
    30.5600       276
    30.5800       364
    30.6000       368
    30.6200       332
    30.6400       344
    30.6600       356
    30.6800       358
    30.7000       374
    30.7200       356
    30.7400       380
    30.7600       294
    30.7800       312
    30.8000       320
    30.8200       332
    30.8400       302
    30.8600       284
    30.8800       302
    30.9000       328
    30.9200       312
    30.9400       282
    30.9600       314
    30.9800       300
    31.0000       332
    31.0200       302
    31.0400       326
    31.0600       336
    31.0800       334
    31.1000       298
    31.1200       340
    31.1400       328
    31.1600       320
    31.1800       346
    31.2000       362
    31.2200       362
    31.2400       354
    31.2600       350
    31.2800       384
    31.3000       370
    31.3200       366
    31.3400       352
    31.3600       358
    31.3800       400
    31.4000       382
    31.4200       356
    31.4400       410
    31.4600       394
    31.4800       442
    31.5000       442
    31.5200       428
    31.5400       488
    31.5600       478
    31.5800       510
    31.6000       490
    31.6200       578
    31.6400       560
    31.6600       598
    31.6800       646
    31.7000       746
    31.7200       776
    31.7400       862
    31.7600      1012
    31.7800       994
    31.8000      1158
    31.8200      1284
    31.8400      1522
    31.8600      1720
    31.8800      1942
    31.9000      2158
    31.9200      2392
    31.9400      2634
    31.9600      3008
    31.9800      3158
    32.0000      3458
    32.0200      3320
    32.0400      3338
    32.0600      3154
    32.0800      2894
    32.1000      2638
    32.1200      2424
    32.1400      2166
    32.1600      2046
    32.1800      1908
    32.2000      1880
    32.2200      1838
    32.2400      1990
    32.2600      1986
    32.2800      2154
    32.3000      2380
    32.3200      2598
    32.3400      2892
    32.3600      3380
    32.3800      3860
    32.4000      4356
    32.4200      4770
    32.4400      5642
    32.4600      6520
    32.4800      7430
    32.5000      8474
    32.5200      9364
    32.5400      9936
    32.5600     10224
    32.5800     10432
    32.6000     10258
    32.6200      9598
    32.6400      8744
    32.6600      7770
    32.6800      6564
    32.7000      5564
    32.7200      4764
    32.7400      3984
    32.7600      3330
    32.7800      2856
    32.8000      2528
    32.8200      2236
    32.8400      1996
    32.8600      1836
    32.8800      1722
    32.9000      1664
    32.9200      1628
    32.9400      1680
    32.9600      1612
    32.9800      1720
    33.0000      1890
    33.0200      1876
    33.0400      2012
    33.0600      2092
    33.0800      2220
    33.1000      2234
    33.1200      2186
    33.1400      2012
    33.1600      1934
    33.1800      1724
    33.2000      1640
    33.2200      1386
    33.2400      1234
    33.2600      1044
    33.2800       904
    33.3000       790
    33.3200       670
    33.3400       644
    33.3600       588
    33.3800       518
    33.4000       528
    33.4200       456
    33.4400       428
    33.4600       406
    33.4800       374
    33.5000       342
    33.5200       346
    33.5400       336
    33.5600       322
    33.5800       324
    33.6000       308
    33.6200       302
    33.6400       332
    33.6600       300
    33.6800       294
    33.7000       306
    33.7200       282
    33.7400       256
    33.7600       232
    33.7800       276
    33.8000       258
    33.8200       242
    33.8400       280
    33.8600       264
    33.8800       246
    33.9000       234
    33.9200       240
    33.9400       286
    33.9600       254
    33.9800       258
    34.0000       260
    34.0200       262
    34.0400       290
    34.0600       286
    34.0800       270
    34.1000       258
    34.1200       248
    34.1400       256
    34.1600       262
    34.1800       262
    34.2000       272
    34.2200       252
    34.2400       234
    34.2600       228
    34.2800       260
    34.3000       290
    34.3200       236
    34.3400       266
    34.3600       232
    34.3800       250
    34.4000       218
    34.4200       258
    34.4400       238
    34.4600       254
    34.4800       246
    34.5000       262
    34.5200       252
    34.5400       256
    34.5600       238
    34.5800       270
    34.6000       250
    34.6200       240
    34.6400       250
    34.6600       258
    34.6800       254
    34.7000       248
    34.7200       242
    34.7400       256
    34.7600       256
    34.7800       292
    34.8000       270
    34.8200       266
    34.8400       264
    34.8600       252
    34.8800       262
    34.9000       262
    34.9200       256
    34.9400       276
    34.9600       260
    34.9800       266
    35.0000       282
    35.0200       272
    35.0400       272
    35.0600       248
    35.0800       250
    35.1000       250
    35.1200       284
    35.1400       256
    35.1600       242
    35.1800       276
    35.2000       258
    35.2200       260
    35.2400       238
    35.2600       252
    35.2800       224
    35.3000       284
    35.3200       256
    35.3400       268
    35.3600       290
    35.3800       260
    35.4000       234
    35.4200       256
    35.4400       282
    35.4600       248
    35.4800       268
    35.5000       278
    35.5200       268
    35.5400       306
    35.5600       310
    35.5800       280
    35.6000       254
    35.6200       282
    35.6400       300
    35.6600       266
    35.6800       340
    35.7000       328
    35.7200       320
    35.7400       326
    35.7600       340
    35.7800       304
    35.8000       354
    35.8200       368
    35.8400       382
    35.8600       346
    35.8800       376
    35.9000       392
    35.9200       384
    35.9400       468
    35.9600       450
    35.9800       460
    36.0000       566
    36.0200       526
    36.0400       552
    36.0600       640
    36.0800       688
    36.1000       770
    36.1200       776
    36.1400       872
    36.1600       860
    36.1800       880
    36.2000       856
    36.2200       830
    36.2400       758
    36.2600       662
    36.2800       662
    36.3000       604
    36.3200       572
    36.3400       512
    36.3600       538
    36.3800       510
    36.4000       446
    36.4200       496
    36.4400       470
    36.4600       496
    36.4800       460
    36.5000       514
    36.5200       542
    36.5400       542
    36.5600       580
    36.5800       602
    36.6000       632
    36.6200       740
    36.6400       748
    36.6600       828
    36.6800       870
    36.7000       918
    36.7200      1062
    36.7400      1150
    36.7600      1374
    36.7800      1520
    36.8000      1622
    36.8200      1906
    36.8400      2086
    36.8600      2260
    36.8800      2486
    36.9000      2574
    36.9200      2602
    36.9400      2470
    36.9600      2348
    36.9800      2190
    37.0000      1942
    37.0200      1754
    37.0400      1602
    37.0600      1430
    37.0800      1174
    37.1000      1096
    37.1200       974
    37.1400       902
    37.1600       778
    37.1800       778
    37.2000       684
    37.2200       710
    37.2400       704
    37.2600       634
    37.2800       618
    37.3000       562
    37.3200       606
    37.3400       600
    37.3600       602
    37.3800       542
    37.4000       594
    37.4200       522
    37.4400       518
    37.4600       530
    37.4800       536
    37.5000       510
    37.5200       568
    37.5400       560
    37.5600       544
    37.5800       572
    37.6000       536
    37.6200       574
    37.6400       636
    37.6600       602
    37.6800       660
    37.7000       674
    37.7200       736
    37.7400       736
    37.7600       788
    37.7800       866
    37.8000       858
    37.8200       990
    37.8400      1146
    37.8600      1176
    37.8800      1370
    37.9000      1448
    37.9200      1592
    37.9400      1880
    37.9600      2054
    37.9800      2308
    38.0000      2528
    38.0200      2726
    38.0400      2776
    38.0600      2628
    38.0800      2546
    38.1000      2484
    38.1200      2356
    38.1400      2258
    38.1600      2130
    38.1800      2048
    38.2000      2062
    38.2200      1894
    38.2400      1886
    38.2600      1958
    38.2800      2018
    38.3000      2178
    38.3200      2438
    38.3400      2552
    38.3600      2732
    38.3800      3194
    38.4000      3386
    38.4200      3852
    38.4400      4226
    38.4600      4594
    38.4800      4834
    38.5000      5126
    38.5200      5118
    38.5400      5240
    38.5600      5282
    38.5800      5108
    38.6000      4934
    38.6200      4886
    38.6400      4668
    38.6600      4664
    38.6800      4600
    38.7000      4674
    38.7200      4580
    38.7400      4612
    38.7600      4380
    38.7800      4386
    38.8000      3942
    38.8200      3604
    38.8400      3248
    38.8600      3026
    38.8800      2688
    38.9000      2322
    38.9200      2112
    38.9400      1842
    38.9600      1624
    38.9800      1468
    39.0000      1360
    39.0200      1204
    39.0400      1092
    39.0600      1044
    39.0800       970
    39.1000       984
    39.1200       932
    39.1400       910
    39.1600       900
    39.1800       848
    39.2000       834
    39.2200       846
    39.2400       904
    39.2600       838
    39.2800       798
    39.3000       844
    39.3200       858
    39.3400       838
    39.3600       824
    39.3800       900
    39.4000       896
    39.4200       902
    39.4400      1014
    39.4600      1028
    39.4800      1090
    39.5000      1110
    39.5200      1366
    39.5400      1352
    39.5600      1528
    39.5800      1738
    39.6000      1872
    39.6200      2174
    39.6400      2496
    39.6600      2648
    39.6800      2882
    39.7000      2910
    39.7200      3084
    39.7400      3002
    39.7600      2800
    39.7800      2546
    39.8000      2370
    39.8200      2252
    39.8400      1998
    39.8600      1698
    39.8800      1486
    39.9000      1316
    39.9200      1138
    39.9400      1048
    39.9600       890
    39.9800       834
    40.0000       786
    40.0200       728
    40.0400       672
    40.0600       668
    40.0800       662
    40.1000       614
    40.1200       600
    40.1400       602
    40.1600       644
    40.1800       582
    40.2000       582
    40.2200       630
    40.2400       620
    40.2600       606
    40.2800       664
    40.3000       652
    40.3200       710
    40.3400       752
    40.3600       754
    40.3800       780
    40.4000       858
    40.4200       868
    40.4400       948
    40.4600      1042
    40.4800      1208
    40.5000      1272
    40.5200      1336
    40.5400      1468
    40.5600      1532
    40.5800      1624
    40.6000      1716
    40.6200      1628
    40.6400      1636
    40.6600      1652
    40.6800      1516
    40.7000      1470
    40.7200      1470
    40.7400      1250
    40.7600      1156
    40.7800      1078
    40.8000      1034
    40.8200       858
    40.8400       792
    40.8600       794
    40.8800       692
    40.9000       636
    40.9200       594
    40.9400       584
    40.9600       588
    40.9800       480
    41.0000       534
    41.0200       470
    41.0400       508
    41.0600       484
    41.0800       484
    41.1000       418
    41.1200       420
    41.1400       426
    41.1600       474
    41.1800       424
    41.2000       472
    41.2200       464
    41.2400       498
    41.2600       404
    41.2800       462
    41.3000       488
    41.3200       434
    41.3400       426
    41.3600       438
    41.3800       408
    41.4000       448
    41.4200       440
    41.4400       532
    41.4600       516
    41.4800       496
    41.5000       552
    41.5200       478
    41.5400       564
    41.5600       566
    41.5800       596
    41.6000       640
    41.6200       690
    41.6400       700
    41.6600       756
    41.6800       902
    41.7000       900
    41.7200       984
    41.7400      1086
    41.7600      1246
    41.7800      1366
    41.8000      1526
    41.8200      1722
    41.8400      1884
    41.8600      1952
    41.8800      2184
    41.9000      2220
    41.9200      2348
    41.9400      2264
    41.9600      2198
    41.9800      2148
    42.0000      2018
    42.0200      1954
    42.0400      1656
    42.0600      1536
    42.0800      1410
    42.1000      1282
    42.1200      1110
    42.1400       976
    42.1600       870
    42.1800       858
    42.2000       730
    42.2200       652
    42.2400       690
    42.2600       634
    42.2800       576
    42.3000       522
    42.3200       520
    42.3400       442
    42.3600       524
    42.3800       520
    42.4000       470
    42.4200       456
    42.4400       434
    42.4600       458
    42.4800       442
    42.5000       454
    42.5200       438
    42.5400       420
    42.5600       438
    42.5800       442
    42.6000       410
    42.6200       434
    42.6400       440
    42.6600       422
    42.6800       438
    42.7000       442
    42.7200       432
    42.7400       452
    42.7600       472
    42.7800       528
    42.8000       540
    42.8200       534
    42.8400       534
    42.8600       560
    42.8800       602
    42.9000       666
    42.9200       674
    42.9400       802
    42.9600       780
    42.9800       884
    43.0000       968
    43.0200      1042
    43.0400      1092
    43.0600      1176
    43.0800      1374
    43.1000      1486
    43.1200      1666
    43.1400      1808
    43.1600      2006
    43.1800      2152
    43.2000      2232
    43.2200      2250
    43.2400      2310
    43.2600      2248
    43.2800      2022
    43.3000      1930
    43.3200      1838
    43.3400      1666
    43.3600      1470
    43.3800      1386
    43.4000      1222
    43.4200      1018
    43.4400       978
    43.4600       872
    43.4800       842
    43.5000       770
    43.5200       714
    43.5400       662
    43.5600       664
    43.5800       628
    43.6000       670
    43.6200       662
    43.6400       640
    43.6600       652
    43.6800       732
    43.7000       656
    43.7200       738
    43.7400       680
    43.7600       760
    43.7800       842
    43.8000       820
    43.8200       854
    43.8400       878
    43.8600       830
    43.8800       842
    43.9000       876
    43.9200       874
    43.9400       790
    43.9600       772
    43.9800       694
    44.0000       674
    44.0200       650
    44.0400       618
    44.0600       578
    44.0800       520
    44.1000       528
    44.1200       494
    44.1400       462
    44.1600       480
    44.1800       458
    44.2000       472
    44.2200       458
    44.2400       396
    44.2600       416
    44.2800       494
    44.3000       436
    44.3200       428
    44.3400       400
    44.3600       420
    44.3800       450
    44.4000       460
    44.4200       382
    44.4400       414
    44.4600       402
    44.4800       438
    44.5000       432
    44.5200       460
    44.5400       452
    44.5600       434
    44.5800       448
    44.6000       458
    44.6200       454
    44.6400       402
    44.6600       478
    44.6800       452
    44.7000       470
    44.7200       390
    44.7400       388
    44.7600       412
    44.7800       434
    44.8000       432
    44.8200       466
    44.8400       416
    44.8600       386
    44.8800       418
    44.9000       398
    44.9200       394
    44.9400       408
    44.9600       436
    44.9800       408
    45.0000       402
    45.0200       392
    45.0400       412
    45.0600       434
    45.0800       376
    45.1000       466
    45.1200       414
    45.1400       410
    45.1600       350
    45.1800       382
    45.2000       410
    45.2200       436
    45.2400       460
    45.2600       500
    45.2800       432
    45.3000       420
    45.3200       440
    45.3400       438
    45.3600       422
    45.3800       436
    45.4000       440
    45.4200       432
    45.4400       430
    45.4600       484
    45.4800       440
    45.5000       498
    45.5200       450
    45.5400       436
    45.5600       466
    45.5800       500
    45.6000       498
    45.6200       478
    45.6400       460
    45.6600       506
    45.6800       466
    45.7000       528
    45.7200       516
    45.7400       524
    45.7600       524
    45.7800       532
    45.8000       562
    45.8200       594
    45.8400       530
    45.8600       594
    45.8800       556
    45.9000       606
    45.9200       614
    45.9400       624
    45.9600       646
    45.9800       648
    46.0000       694
    46.0200       700
    46.0400       692
    46.0600       702
    46.0800       726
    46.1000       780
    46.1200       814
    46.1400       812
    46.1600       866
    46.1800       884
    46.2000      1000
    46.2200      1060
    46.2400      1090
    46.2600      1192
    46.2800      1260
    46.3000      1316
    46.3200      1372
    46.3400      1446
    46.3600      1626
    46.3800      1778
    46.4000      2016
    46.4200      2132
    46.4400      2498
    46.4600      2606
    46.4800      3026
    46.5000      3272
    46.5200      3718
    46.5400      4250
    46.5600      4714
    46.5800      5392
    46.6000      6080
    46.6200      6804
    46.6400      7622
    46.6600      8698
    46.6800      9458
    46.7000     10220
    46.7200     10548
    46.7400     10716
    46.7600     10538
    46.7800     10428
    46.8000      9810
    46.8200      9186
    46.8400      8846
    46.8600      8334
    46.8800      7948
    46.9000      7256
    46.9200      6872
    46.9400      6324
    46.9600      5934
    46.9800      5562
    47.0000      5140
    47.0200      4854
    47.0400      4604
    47.0600      4228
    47.0800      3938
    47.1000      3616
    47.1200      3370
    47.1400      3020
    47.1600      2754
    47.1800      2490
    47.2000      2296
    47.2200      1922
    47.2400      1800
    47.2600      1632
    47.2800      1494
    47.3000      1362
    47.3200      1340
    47.3400      1240
    47.3600      1120
    47.3800      1062
    47.4000       966
    47.4200      1010
    47.4400       962
    47.4600       864
    47.4800       802
    47.5000       868
    47.5200       750
    47.5400       756
    47.5600       714
    47.5800       796
    47.6000       772
    47.6200       818
    47.6400       756
    47.6600       814
    47.6800       754
    47.7000       790
    47.7200       814
    47.7400       846
    47.7600       940
    47.7800       892
    47.8000       962
    47.8200      1014
    47.8400      1084
    47.8600      1038
    47.8800       994
    47.9000      1062
    47.9200       986
    47.9400       930
    47.9600       982
    47.9800       968
    48.0000       954
    48.0200       924
    48.0400       870
    48.0600       814
    48.0800       802
    48.1000       950
    48.1200       902
    48.1400       950
    48.1600       958
    48.1800       992
    48.2000      1030
    48.2200      1050
    48.2400      1060
    48.2600      1034
    48.2800       942
    48.3000       946
    48.3200       860
    48.3400       848
    48.3600       838
    48.3800       748
    48.4000       728
    48.4200       714
    48.4400       662
    48.4600       554
    48.4800       542
    48.5000       528
    48.5200       466
    48.5400       464
    48.5600       454
    48.5800       430
    48.6000       432
    48.6200       412
    48.6400       402
    48.6600       392
    48.6800       428
    48.7000       358
    48.7200       406
    48.7400       390
    48.7600       376
    48.7800       322
    48.8000       358
    48.8200       346
    48.8400       342
    48.8600       378
    48.8800       324
    48.9000       330
    48.9200       310
    48.9400       354
    48.9600       342
    48.9800       340
    49.0000       324
    49.0200       340
    49.0400       320
    49.0600       336
    49.0800       334
    49.1000       314
    49.1200       324
    49.1400       326
    49.1600       312
    49.1800       324
    49.2000       326
    49.2200       312
    49.2400       326
    49.2600       284
    49.2800       292
    49.3000       300
    49.3200       276
    49.3400       306
    49.3600       322
    49.3800       288
    49.4000       306
    49.4200       322
    49.4400       300
    49.4600       324
    49.4800       352
    49.5000       300
    49.5200       338
    49.5400       330
    49.5600       338
    49.5800       334
    49.6000       288
    49.6200       318
    49.6400       322
    49.6600       358
    49.6800       354
    49.7000       324
    49.7200       312
    49.7400       334
    49.7600       326
    49.7800       310
    49.8000       314
    49.8200       356
    49.8400       320
    49.8600       328
    49.8800       332
    49.9000       332
    49.9200       336
    49.9400       328
    49.9600       354
    49.9800       326
    50.0000       330
    50.0200       318
    50.0400       310
    50.0600       356
    50.0800       314
    50.1000       318
    50.1200       376
    50.1400       394
    50.1600       358
    50.1800       372
    50.2000       358
    50.2200       388
    50.2400       394
    50.2600       450
    50.2800       404
    50.3000       462
    50.3200       454
    50.3400       414
    50.3600       430
    50.3800       452
    50.4000       492
    50.4200       484
    50.4400       480
    50.4600       504
    50.4800       454
    50.5000       496
    50.5200       452
    50.5400       476
    50.5600       510
    50.5800       540
    50.6000       496
    50.6200       490
    50.6400       488
    50.6600       524
    50.6800       534
    50.7000       492
    50.7200       560
    50.7400       566
    50.7600       620
    50.7800       624
    50.8000       664
    50.8200       624
    50.8400       722
    50.8600       768
    50.8800       806
    50.9000       816
    50.9200       836
    50.9400       852
    50.9600       884
    50.9800       944
    51.0000       874
    51.0200       820
    51.0400       790
    51.0600       786
    51.0800       748
    51.1000       722
    51.1200       680
    51.1400       634
    51.1600       652
    51.1800       632
    51.2000       622
    51.2200       602
    51.2400       608
    51.2600       608
    51.2800       652
    51.3000       616
    51.3200       630
    51.3400       686
    51.3600       692
    51.3800       732
    51.4000       732
    51.4200       818
    51.4400       742
    51.4600       830
    51.4800       802
    51.5000       798
    51.5200       778
    51.5400       776
    51.5600       744
    51.5800       752
    51.6000       754
    51.6200       780
    51.6400       772
    51.6600       762
    51.6800       724
    51.7000       826
    51.7200       828
    51.7400       918
    51.7600       922
    51.7800       922
    51.8000      1014
    51.8200      1086
    51.8400      1110
    51.8600      1094
    51.8800      1230
    51.9000      1224
    51.9200      1172
    51.9400      1164
    51.9600      1180
    51.9800      1126
    52.0000      1132
    52.0200      1114
    52.0400      1090
    52.0600      1032
    52.0800       962
    52.1000       924
    52.1200       940
    52.1400       910
    52.1600       904
    52.1800       808
    52.2000       816
    52.2200       744
    52.2400       784
    52.2600       786
    52.2800       818
    52.3000       730
    52.3200       744
    52.3400       756
    52.3600       786
    52.3800       876
    52.4000       914
    52.4200       898
    52.4400      1016
    52.4600      1022
    52.4800      1102
    52.5000      1208
    52.5200      1288
    52.5400      1366
    52.5600      1504
    52.5800      1612
    52.6000      1664
    52.6200      1770
    52.6400      1766
    52.6600      1692
    52.6800      1622
    52.7000      1598
    52.7200      1622
    52.7400      1512
    52.7600      1480
    52.7800      1446
    52.8000      1304
    52.8200      1292
    52.8400      1190
    52.8600      1090
    52.8800      1104
    52.9000      1062
    52.9200      1074
    52.9400       960
    52.9600      1002
    52.9800       976
    53.0000      1010
    53.0200       922
    53.0400      1032
    53.0600      1066
    53.0800      1130
    53.1000      1172
    53.1200      1208
    53.1400      1306
    53.1600      1426
    53.1800      1532
    53.2000      1764
    53.2200      1836
    53.2400      1958
    53.2600      1988
    53.2800      2224
    53.3000      2132
    53.3200      2068
    53.3400      2062
    53.3600      1888
    53.3800      1822
    53.4000      1756
    53.4200      1580
    53.4400      1566
    53.4600      1442
    53.4800      1264
    53.5000      1184
    53.5200      1038
    53.5400       940
    53.5600       812
    53.5800       730
    53.6000       708
    53.6200       628
    53.6400       604
    53.6600       626
    53.6800       498
    53.7000       538
    53.7200       518
    53.7400       468
    53.7600       410
    53.7800       430
    53.8000       396
    53.8200       442
    53.8400       388
    53.8600       448
    53.8800       392
    53.9000       404
    53.9200       374
    53.9400       368
    53.9600       364
    53.9800       378
    54.0000       384
    54.0200       334
    54.0400       342
    54.0600       360
    54.0800       376
    54.1000       344
    54.1200       368
    54.1400       348
    54.1600       316
    54.1800       356
    54.2000       370
    54.2200       374
    54.2400       392
    54.2600       344
    54.2800       362
    54.3000       384
    54.3200       406
    54.3400       396
    54.3600       398
    54.3800       432
    54.4000       420
    54.4200       442
    54.4400       502
    54.4600       472
    54.4800       552
    54.5000       506
    54.5200       540
    54.5400       594
    54.5600       590
    54.5800       658
    54.6000       734
    54.6200       746
    54.6400       756
    54.6600       774
    54.6800       802
    54.7000       830
    54.7200       906
    54.7400       934
    54.7600       998
    54.7800       990
    54.8000       944
    54.8200       922
    54.8400       914
    54.8600       848
    54.8800       766
    54.9000       714
    54.9200       718
    54.9400       742
    54.9600       690
    54.9800       620
    55.0000       620
    55.0200       582
    55.0400       538
    55.0600       532
    55.0800       480
    55.1000       512
    55.1200       472
    55.1400       466
    55.1600       460
    55.1800       430
    55.2000       466
    55.2200       420
    55.2400       412
    55.2600       388
    55.2800       424
    55.3000       396
    55.3200       386
    55.3400       426
    55.3600       438
    55.3800       420
    55.4000       402
    55.4200       450
    55.4400       454
    55.4600       408
    55.4800       492
    55.5000       472
    55.5200       500
    55.5400       526
    55.5600       554
    55.5800       590
    55.6000       670
    55.6200       646
    55.6400       820
    55.6600       792
    55.6800       884
    55.7000       912
    55.7200       866
    55.7400       934
    55.7600       976
    55.7800       922
    55.8000       954
    55.8200       868
    55.8400       854
    55.8600       818
    55.8800       810
    55.9000       832
    55.9200       748
    55.9400       726
    55.9600       668
    55.9800       604
    56.0000       548
    56.0200       532
    56.0400       468
    56.0600       488
    56.0800       460
    56.1000       456
    56.1200       418
    56.1400       392
    56.1600       400
    56.1800       402
    56.2000       360
    56.2200       382
    56.2400       304
    56.2600       328
    56.2800       342
    56.3000       376
    56.3200       340
    56.3400       338
    56.3600       370
    56.3800       336
    56.4000       320
    56.4200       336
    56.4400       346
    56.4600       320
    56.4800       316
    56.5000       340
    56.5200       356
    56.5400       372
    56.5600       320
    56.5800       336
    56.6000       356
    56.6200       368
    56.6400       350
    56.6600       344
    56.6800       398
    56.7000       384
    56.7200       364
    56.7400       390
    56.7600       414
    56.7800       388
    56.8000       358
    56.8200       418
    56.8400       406
    56.8600       462
    56.8800       474
    56.9000       478
    56.9200       500
    56.9400       482
    56.9600       510
    56.9800       554
    57.0000       582
    57.0200       614
    57.0400       624
    57.0600       620
    57.0800       612
    57.1000       732
    57.1200       762
    57.1400       842
    57.1600       822
    57.1800       880
    57.2000      1012
    57.2200      1044
    57.2400      1130
    57.2600      1252
    57.2800      1432
    57.3000      1500
    57.3200      1658
    57.3400      1752
    57.3600      1870
    57.3800      2008
    57.4000      1968
    57.4200      2118
    57.4400      2008
    57.4600      2068
    57.4800      1994
    57.5000      2006
    57.5200      1926
    57.5400      1994
    57.5600      1876
    57.5800      1918
    57.6000      1888
    57.6200      1850
    57.6400      1810
    57.6600      1934
    57.6800      1916
    57.7000      1942
    57.7200      2004
    57.7400      2122
    57.7600      2174
    57.7800      2206
    57.8000      2060
    57.8200      2044
    57.8400      1984
    57.8600      1904
    57.8800      1794
    57.9000      1748
    57.9200      1646
    57.9400      1636
    57.9600      1590
    57.9800      1496
    58.0000      1376
    58.0200      1296
    58.0400      1278
    58.0600      1200
    58.0800      1122
    58.1000      1172
    58.1200      1098
    58.1400      1020
    58.1600      1062
    58.1800      1054
    58.2000      1098
    58.2200      1110
    58.2400      1212
    58.2600      1178
    58.2800      1270
    58.3000      1268
    58.3200      1408
    58.3400      1456
    58.3600      1636
    58.3800      1632
    58.4000      1822
    58.4200      1850
    58.4400      2080
    58.4600      2110
    58.4800      2280
    58.5000      2474
    58.5200      2578
    58.5400      2730
    58.5600      2830
    58.5800      2928
    58.6000      3054
    58.6200      3186
    58.6400      3214
    58.6600      3482
    58.6800      3560
    58.7000      3700
    58.7200      3786
    58.7400      3922
    58.7600      3994
    58.7800      3830
    58.8000      3964
    58.8200      3814
    58.8400      3676
    58.8600      3700
    58.8800      3446
    58.9000      3238
    58.9200      3032
    58.9400      2900
    58.9600      2634
    58.9800      2438
    59.0000      2258
    59.0200      2004
    59.0400      1900
    59.0600      1784
    59.0800      1528
    59.1000      1430
    59.1200      1328
    59.1400      1168
    59.1600      1074
    59.1800      1036
    59.2000      1008
    59.2200       886
    59.2400       870
    59.2600       818
    59.2800       694
    59.3000       704
    59.3200       700
    59.3400       626
    59.3600       676
    59.3800       626
    59.4000       602
    59.4200       554
    59.4400       620
    59.4600       552
    59.4800       478
    59.5000       472
    59.5200       460
    59.5400       468
    59.5600       454
    59.5800       458
    59.6000       452
    59.6200       480
    59.6400       404
    59.6600       430
    59.6800       420
    59.7000       398
    59.7200       396
    59.7400       366
    59.7600       362
    59.7800       390
    59.8000       394
    59.8200       408
    59.8400       372
    59.8600       386
    59.8800       394
    59.9000       352
    59.9200       344
    59.9400       374
    59.9600       354
    59.9800       338
    60.0000       358
    60.0200       324
    60.0400       308
    60.0600       380
    60.0800       326
    60.1000       332
    60.1200       346
    60.1400       324
    60.1600       342
    60.1800       338
    60.2000       320
    60.2200       358
    60.2400       316
    60.2600       306
    60.2800       336
    60.3000       346
    60.3200       338
    60.3400       344
    60.3600       326
    60.3800       326
    60.4000       332
    60.4200       318
    60.4400       328
    60.4600       370
    60.4800       366
    60.5000       328
    60.5200       302
    60.5400       352
    60.5600       328
    60.5800       358
    60.6000       292
    60.6200       322
    60.6400       346
    60.6600       336
    60.6800       318
    60.7000       354
    60.7200       372
    60.7400       370
    60.7600       384
    60.7800       374
    60.8000       340
    60.8200       372
    60.8400       368
    60.8600       408
    60.8800       422
    60.9000       408
    60.9200       446
    60.9400       418
    60.9600       452
    60.9800       448
    61.0000       508
    61.0200       500
    61.0400       476
    61.0600       496
    61.0800       554
    61.1000       570
    61.1200       572
    61.1400       578
    61.1600       590
    61.1800       594
    61.2000       626
    61.2200       542
    61.2400       554
    61.2600       586
    61.2800       578
    61.3000       572
    61.3200       550
    61.3400       566
    61.3600       584
    61.3800       562
    61.4000       588
    61.4200       538
    61.4400       578
    61.4600       566
    61.4800       578
    61.5000       618
    61.5200       614
    61.5400       672
    61.5600       632
    61.5800       640
    61.6000       692
    61.6200       654
    61.6400       602
    61.6600       620
    61.6800       622
    61.7000       542
    61.7200       594
    61.7400       592
    61.7600       572
    61.7800       526
    61.8000       586
    61.8200       500
    61.8400       540
    61.8600       546
    61.8800       530
    61.9000       544
    61.9200       590
    61.9400       542
    61.9600       620
    61.9800       632
    62.0000       572
    62.0200       624
    62.0400       654
    62.0600       646
    62.0800       606
    62.1000       648
    62.1200       662
    62.1400       600
    62.1600       604
    62.1800       666
    62.2000       680
    62.2200       658
    62.2400       674
    62.2600       642
    62.2800       610
    62.3000       580
    62.3200       602
    62.3400       608
    62.3600       658
    62.3800       566
    62.4000       554
    62.4200       534
    62.4400       530
    62.4600       540
    62.4800       464
    62.5000       500
    62.5200       454
    62.5400       458
    62.5600       470
    62.5800       408
    62.6000       400
    62.6200       380
    62.6400       362
    62.6600       366
    62.6800       378
    62.7000       390
    62.7200       340
    62.7400       326
    62.7600       358
    62.7800       300
    62.8000       318
    62.8200       350
    62.8400       290
    62.8600       290
    62.8800       296
    62.9000       310
    62.9200       288
    62.9400       264
    62.9600       298
    62.9800       270
    63.0000       252
    63.0200       290
    63.0400       264
    63.0600       284
    63.0800       256
    63.1000       262
    63.1200       250
    63.1400       260
    63.1600       286
    63.1800       246
    63.2000       246
    63.2200       260
    63.2400       250
    63.2600       210
    63.2800       238
    63.3000       274
    63.3200       274
    63.3400       254
    63.3600       250
    63.3800       270
    63.4000       272
    63.4200       284
    63.4400       230
    63.4600       226
    63.4800       248
    63.5000       282
    63.5200       266
    63.5400       278
    63.5600       306
    63.5800       316
    63.6000       280
    63.6200       314
    63.6400       332
    63.6600       308
    63.6800       342
    63.7000       340
    63.7200       364
    63.7400       386
    63.7600       376
    63.7800       414
    63.8000       436
    63.8200       452
    63.8400       486
    63.8600       516
    63.8800       498
    63.9000       534
    63.9200       524
    63.9400       504
    63.9600       488
    63.9800       546
    64.0000       452
    64.0200       460
    64.0400       442
    64.0600       416
    64.0800       404
    64.1000       388
    64.1200       382
    64.1400       366
    64.1600       360
    64.1800       324
    64.2000       324
    64.2200       304
    64.2400       306
    64.2600       298
    64.2800       302
    64.3000       246
    64.3200       254
    64.3400       258
    64.3600       252
    64.3800       250
    64.4000       222
    64.4200       226
    64.4400       240
    64.4600       250
    64.4800       262
    64.5000       218
    64.5200       246
    64.5400       248
    64.5600       240
    64.5800       238
    64.6000       226
    64.6200       236
    64.6400       250
    64.6600       264
    64.6800       242
    64.7000       254
    64.7200       220
    64.7400       252
    64.7600       228
    64.7800       254
    64.8000       292
    64.8200       252
    64.8400       280
    64.8600       254
    64.8800       268
    64.9000       282
    64.9200       268
    64.9400       286
    64.9600       290
    64.9800       286
    65.0000       298
    65.0200       300
    65.0400       298
    65.0600       320
    65.0800       332
    65.1000       360
    65.1200       360
    65.1400       354
    65.1600       378
    65.1800       404
    65.2000       404
    65.2200       458
    65.2400       432
    65.2600       508
    65.2800       450
    65.3000       498
    65.3200       476
    65.3400       572
    65.3600       504
    65.3800       488
    65.4000       482
    65.4200       444
    65.4400       460
    65.4600       444
    65.4800       440
    65.5000       436
    65.5200       414
    65.5400       384
    65.5600       362
    65.5800       368
    65.6000       374
    65.6200       332
    65.6400       356
    65.6600       288
    65.6800       346
    65.7000       312
    65.7200       286
    65.7400       284
    65.7600       294
    65.7800       270
    65.8000       274
    65.8200       254
    65.8400       310
    65.8600       282
    65.8800       282
    65.9000       252
    65.9200       248
    65.9400       252
    65.9600       250
    65.9800       236
    66.0000       270
    66.0200       242
    66.0400       252
    66.0600       268
    66.0800       242
    66.1000       256
    66.1200       260
    66.1400       280
    66.1600       250
    66.1800       276
    66.2000       272
    66.2200       266
    66.2400       278
    66.2600       280
    66.2800       296
    66.3000       268
    66.3200       298
    66.3400       292
    66.3600       306
    66.3800       320
    66.4000       298
    66.4200       314
    66.4400       358
    66.4600       338
    66.4800       338
    66.5000       384
    66.5200       366
    66.5400       400
    66.5600       390
    66.5800       446
    66.6000       450
    66.6200       396
    66.6400       470
    66.6600       456
    66.6800       502
    66.7000       534
    66.7200       568
    66.7400       544
    66.7600       528
    66.7800       586
    66.8000       616
    66.8200       584
    66.8400       618
    66.8600       616
    66.8800       630
    66.9000       690
    66.9200       688
    66.9400       708
    66.9600       732
    66.9800       708
    67.0000       674
    67.0200       666
    67.0400       664
    67.0600       572
    67.0800       578
    67.1000       618
    67.1200       562
    67.1400       552
    67.1600       552
    67.1800       530
    67.2000       524
    67.2200       490
    67.2400       448
    67.2600       424
    67.2800       424
    67.3000       410
    67.3200       404
    67.3400       386
    67.3600       392
    67.3800       370
    67.4000       324
    67.4200       406
    67.4400       370
    67.4600       356
    67.4800       346
    67.5000       324
    67.5200       336
    67.5400       340
    67.5600       354
    67.5800       364
    67.6000       348
    67.6200       376
    67.6400       376
    67.6600       386
    67.6800       392
    67.7000       344
    67.7200       412
    67.7400       378
    67.7600       390
    67.7800       458
    67.8000       452
    67.8200       520
    67.8400       466
    67.8600       494
    67.8800       566
    67.9000       616
    67.9200       648
    67.9400       692
    67.9600       666
    67.9800       790
    68.0000       828
    68.0200       864
    68.0400       908
    68.0600       952
    68.0800      1114
    68.1000      1122
    68.1200      1290
    68.1400      1334
    68.1600      1284
    68.1800      1454
    68.2000      1366
    68.2200      1426
    68.2400      1456
    68.2600      1482
    68.2800      1454
    68.3000      1430
    68.3200      1348
    68.3400      1332
    68.3600      1308
    68.3800      1234
    68.4000      1192
    68.4200      1146
    68.4400      1090
    68.4600      1048
    68.4800      1028
    68.5000       944
    68.5200       930
    68.5400       916
    68.5600       854
    68.5800       866
    68.6000       824
    68.6200       790
    68.6400       822
    68.6600       740
    68.6800       760
    68.7000       692
    68.7200       646
    68.7400       598
    68.7600       628
    68.7800       568
    68.8000       558
    68.8200       550
    68.8400       514
    68.8600       538
    68.8800       516
    68.9000       462
    68.9200       462
    68.9400       446
    68.9600       424
    68.9800       406
    69.0000       382
    69.0200       404
    69.0400       382
    69.0600       420
    69.0800       376
    69.1000       390
    69.1200       402
    69.1400       408
    69.1600       444
    69.1800       438
    69.2000       396
    69.2200       426
    69.2400       454
    69.2600       508
    69.2800       480
    69.3000       484
    69.3200       560
    69.3400       546
    69.3600       532
    69.3800       618
    69.4000       600
    69.4200       624
    69.4400       632
    69.4600       630
    69.4800       614
    69.5000       648
    69.5200       600
    69.5400       574
    69.5600       574
    69.5800       564
    69.6000       534
    69.6200       512
    69.6400       518
    69.6600       480
    69.6800       464
    69.7000       442
    69.7200       488
    69.7400       432
    69.7600       402
    69.7800       372
    69.8000       348
    69.8200       372
    69.8400       324
    69.8600       324
    69.8800       320
    69.9000       302
    69.9200       274
    69.9400       274
    69.9600       240
    69.9800       270
    70.0000       272
    70.0200       256
    70.0400       278
    70.0600       266
    70.0800       276
    70.1000       244
    70.1200       262
    70.1400       270
    70.1600       240
    70.1800       250
    70.2000       238
    70.2200       226
    70.2400       252
    70.2600       244
    70.2800       210
    70.3000       232
    70.3200       254
    70.3400       236
    70.3600       254
    70.3800       252
    70.4000       240
    70.4200       248
    70.4400       262
    70.4600       268
    70.4800       252
    70.5000       256
    70.5200       278
    70.5400       246
    70.5600       286
    70.5800       284
    70.6000       266
    70.6200       262
    70.6400       306
    70.6600       288
    70.6800       286
    70.7000       276
    70.7200       284
    70.7400       264
    70.7600       270
    70.7800       244
    70.8000       278
    70.8200       268
    70.8400       286
    70.8600       264
    70.8800       286
    70.9000       292
    70.9200       282
    70.9400       254
    70.9600       252
    70.9800       290
    71.0000       258
    71.0200       276
    71.0400       286
    71.0600       302
    71.0800       286
    71.1000       270
    71.1200       310
    71.1400       314
    71.1600       310
    71.1800       332
    71.2000       356
    71.2200       332
    71.2400       352
    71.2600       378
    71.2800       380
    71.3000       436
    71.3200       414
    71.3400       468
    71.3600       456
    71.3800       510
    71.4000       568
    71.4200       610
    71.4400       630
    71.4600       626
    71.4800       694
    71.5000       680
    71.5200       726
    71.5400       766
    71.5600       762
    71.5800       770
    71.6000       800
    71.6200       746
    71.6400       730
    71.6600       692
    71.6800       698
    71.7000       708
    71.7200       734
    71.7400       744
    71.7600       726
    71.7800       736
    71.8000       698
    71.8200       654
    71.8400       678
    71.8600       670
    71.8800       612
    71.9000       600
    71.9200       572
    71.9400       602
    71.9600       552
    71.9800       564
    72.0000       578
    72.0200       552
    72.0400       534
    72.0600       526
    72.0800       528
    72.1000       510
    72.1200       538
    72.1400       514
    72.1600       484
    72.1800       516
    72.2000       550
    72.2200       502
    72.2400       568
    72.2600       564
    72.2800       556
    72.3000       544
    72.3200       582
    72.3400       544
    72.3600       538
    72.3800       536
    72.4000       534
    72.4200       552
    72.4400       520
    72.4600       484
    72.4800       538
    72.5000       486
    72.5200       428
    72.5400       438
    72.5600       440
    72.5800       452
    72.6000       430
    72.6200       438
    72.6400       382
    72.6600       370
    72.6800       380
    72.7000       368
    72.7200       326
    72.7400       342
    72.7600       328
    72.7800       332
    72.8000       360
    72.8200       318
    72.8400       322
    72.8600       334
    72.8800       314
    72.9000       344
    72.9200       354
    72.9400       354
    72.9600       318
    72.9800       320
    73.0000       320
    73.0200       308
    73.0400       282
    73.0600       308
    73.0800       280
    73.1000       276
    73.1200       294
    73.1400       282
    73.1600       270
    73.1800       292
    73.2000       264
    73.2200       272
    73.2400       228
    73.2600       268
    73.2800       230
    73.3000       252
    73.3200       230
    73.3400       220
    73.3600       230
    73.3800       224
    73.4000       220
    73.4200       232
    73.4400       214
    73.4600       208
    73.4800       214
    73.5000       226
    73.5200       234
    73.5400       222
    73.5600       222
    73.5800       216
    73.6000       236
    73.6200       218
    73.6400       254
    73.6600       228
    73.6800       238
    73.7000       228
    73.7200       268
    73.7400       232
    73.7600       222
    73.7800       230
    73.8000       244
    73.8200       242
    73.8400       188
    73.8600       246
    73.8800       234
    73.9000       222
    73.9200       222
    73.9400       270
    73.9600       258
    73.9800       274
    74.0000       288
    74.0200       302
    74.0400       298
    74.0600       272
    74.0800       316
    74.1000       316
    74.1200       280
    74.1400       306
    74.1600       322
    74.1800       326
    74.2000       312
    74.2200       302
    74.2400       328
    74.2600       296
    74.2800       298
    74.3000       306
    74.3200       290
    74.3400       266
    74.3600       254
    74.3800       294
    74.4000       268
    74.4200       288
    74.4400       274
    74.4600       260
    74.4800       282
    74.5000       246
    74.5200       226
    74.5400       260
    74.5600       228
    74.5800       238
    74.6000       220
    74.6200       184
    74.6400       222
    74.6600       226
    74.6800       208
    74.7000       244
    74.7200       212
    74.7400       206
    74.7600       204
    74.7800       222
    74.8000       228
    74.8200       204
    74.8400       224
    74.8600       190
    74.8800       180
    74.9000       200
    74.9200       194
    74.9400       180
    74.9600       222
    74.9800       190
    75.0000       176
    75.0200       202
    75.0400       216
    75.0600       176
    75.0800       188
    75.1000       208
    75.1200       194
    75.1400       196
    75.1600       196
    75.1800       194
    75.2000       210
    75.2200       224
    75.2400       194
    75.2600       200
    75.2800       238
    75.3000       202
    75.3200       204
    75.3400       236
    75.3600       224
    75.3800       210
    75.4000       204
    75.4200       228
    75.4400       258
    75.4600       250
    75.4800       236
    75.5000       226
    75.5200       246
    75.5400       274
    75.5600       226
    75.5800       258
    75.6000       248
    75.6200       230
    75.6400       288
    75.6600       280
    75.6800       306
    75.7000       290
    75.7200       314
    75.7400       332
    75.7600       316
    75.7800       314
    75.8000       360
    75.8200       358
    75.8400       326
    75.8600       370
    75.8800       342
    75.9000       356
    75.9200       366
    75.9400       362
    75.9600       338
    75.9800       314
    76.0000       336
    76.0200       352
    76.0400       330
    76.0600       310
    76.0800       342
    76.1000       338
    76.1200       292
    76.1400       318
    76.1600       342
    76.1800       326
    76.2000       308
    76.2200       310
    76.2400       314
    76.2600       310
    76.2800       312
    76.3000       336
    76.3200       348
    76.3400       348
    76.3600       332
    76.3800       362
    76.4000       374
    76.4200       342
    76.4400       354
    76.4600       378
    76.4800       380
    76.5000       364
    76.5200       362
    76.5400       374
    76.5600       404
    76.5800       406
    76.6000       406
    76.6200       410
    76.6400       430
    76.6600       424
    76.6800       428
    76.7000       436
    76.7200       424
    76.7400       410
    76.7600       418
    76.7800       452
    76.8000       402
    76.8200       412
    76.8400       386
    76.8600       426
    76.8800       410
    76.9000       422
    76.9200       414
    76.9400       398
    76.9600       310
    76.9800       364
    77.0000       380
    77.0200       366
    77.0400       362
    77.0600       342
    77.0800       402
    77.1000       364
    77.1200       398
    77.1400       314
    77.1600       336
    77.1800       380
    77.2000       348
    77.2200       394
    77.2400       362
    77.2600       410
    77.2800       414
    77.3000       438
    77.3200       400
    77.3400       462
    77.3600       474
    77.3800       478
    77.4000       492
    77.4200       502
    77.4400       524
    77.4600       588
    77.4800       616
    77.5000       676
    77.5200       658
    77.5400       686
    77.5600       760
    77.5800       836
    77.6000       916
    77.6200       870
    77.6400       914
    77.6600       906
    77.6800       934
    77.7000       960
    77.7200       956
    77.7400       950
    77.7600       960
    77.7800       932
    77.8000       916
    77.8200       842
    77.8400       840
    77.8600       794
    77.8800       872
    77.9000       796
    77.9200       764
    77.9400       724
    77.9600       704
    77.9800       684
    78.0000       664
    78.0200       632
    78.0400       662
    78.0600       496
    78.0800       574
    78.1000       508
    78.1200       480
    78.1400       452
    78.1600       478
    78.1800       480
    78.2000       420
    78.2200       460
    78.2400       452
    78.2600       392
    78.2800       408
    78.3000       430
    78.3200       364
    78.3400       390
    78.3600       406
    78.3800       444
    78.4000       432
    78.4200       382
    78.4400       412
    78.4600       388
    78.4800       418
    78.5000       418
    78.5200       400
    78.5400       418
    78.5600       466
    78.5800       470
    78.6000       444
    78.6200       456
    78.6400       448
    78.6600       464
    78.6800       488
    78.7000       454
    78.7200       446
    78.7400       436
    78.7600       464
    78.7800       454
    78.8000       434
    78.8200       468
    78.8400       408
    78.8600       420
    78.8800       398
    78.9000       394
    78.9200       376
    78.9400       396
    78.9600       358
    78.9800       372
    79.0000       362
    79.0200       318
    79.0400       336
    79.0600       322
    79.0800       302
    79.1000       328
    79.1200       318
    79.1400       286
    79.1600       248
    79.1800       258
    79.2000       276
    79.2200       278
    79.2400       214
    79.2600       286
    79.2800       232
    79.3000       258
    79.3200       258
    79.3400       238
    79.3600       264
    79.3800       232
    79.4000       252
    79.4200       242
    79.4400       240
    79.4600       238
    79.4800       256
    79.5000       252
    79.5200       246
    79.5400       284
    79.5600       238
    79.5800       230
    79.6000       252
    79.6200       272
    79.6400       284
    79.6600       300
    79.6800       292
    79.7000       274
    79.7200       288
    79.7400       320
    79.7600       280
    79.7800       288
    79.8000       270
    79.8200       302
    79.8400       296
    79.8600       272
    79.8800       294
    79.9000       280
    79.9200       288
    79.9400       262
    79.9600       300
    79.9800       258
    80.0000       280
    80.0200       230
    80.0400       260
    80.0600       256
    80.0800       252
    80.1000       288
    80.1200       282
    80.1400       234
    80.1600       274
    80.1800       292
    80.2000       240
    80.2200       256
    80.2400       258
    80.2600       240
    80.2800       234
    80.3000       254
    80.3200       264
    80.3400       252
    80.3600       220
    80.3800       242
    80.4000       274
    80.4200       240
    80.4400       268
    80.4600       220
    80.4800       248
    80.5000       238
    80.5200       236
    80.5400       238
    80.5600       212
    80.5800       240
    80.6000       208
    80.6200       218
    80.6400       206
    80.6600       196
    80.6800       228
    80.7000       226
    80.7200       210
    80.7400       198
    80.7600       220
    80.7800       224
    80.8000       194
    80.8200       208
    80.8400       192
    80.8600       204
    80.8800       204
    80.9000       220
    80.9200       202
    80.9400       188
    80.9600       224
    80.9800       220
    81.0000       212
    81.0200       220
    81.0400       208
    81.0600       186
    81.0800       204
    81.1000       192
    81.1200       224
    81.1400       198
    81.1600       224
    81.1800       232
    81.2000       264
    81.2200       240
    81.2400       224
    81.2600       262
    81.2800       264
    81.3000       274
    81.3200       282
    81.3400       300
    81.3600       274
    81.3800       282
    81.4000       246
    81.4200       308
    81.4400       258
    81.4600       260
    81.4800       282
    81.5000       274
    81.5200       306
    81.5400       272
    81.5600       268
    81.5800       270
    81.6000       250
    81.6200       274
    81.6400       268
    81.6600       272
    81.6800       264
    81.7000       250
    81.7200       264
    81.7400       274
    81.7600       276
    81.7800       280
    81.8000       270
    81.8200       282
    81.8400       252
    81.8600       240
    81.8800       242
    81.9000       240
    81.9200       286
    81.9400       272
    81.9600       262
    81.9800       246
    82.0000       278
    82.0200       260
    82.0400       252
    82.0600       278
    82.0800       264
    82.1000       300
    82.1200       306
    82.1400       284
    82.1600       290
    82.1800       320
    82.2000       302
    82.2200       304
    82.2400       302
    82.2600       328
    82.2800       338
    82.3000       338
    82.3200       346
    82.3400       350
    82.3600       364
    82.3800       348
    82.4000       326
    82.4200       328
    82.4400       340
    82.4600       346
    82.4800       380
    82.5000       362
    82.5200       334
    82.5400       358
    82.5600       338
    82.5800       350
    82.6000       384
    82.6200       368
    82.6400       388
    82.6600       374
    82.6800       432
    82.7000       392
    82.7200       398
    82.7400       456
    82.7600       414
    82.7800       452
    82.8000       450
    82.8200       418
    82.8400       410
    82.8600       416
    82.8800       458
    82.9000       442
    82.9200       436
    82.9400       416
    82.9600       420
    82.9800       454
    83.0000       458
    83.0200       426
    83.0400       406
    83.0600       426
    83.0800       444
    83.1000       448
    83.1200       434
    83.1400       408
    83.1600       400
    83.1800       422
    83.2000       436
    83.2200       410
    83.2400       386
    83.2600       410
    83.2800       398
    83.3000       446
    83.3200       392
    83.3400       406
    83.3600       402
    83.3800       388
    83.4000       398
    83.4200       390
    83.4400       358
    83.4600       404
    83.4800       434
    83.5000       392
    83.5200       394
    83.5400       370
    83.5600       366
    83.5800       332
    83.6000       376
    83.6200       342
    83.6400       324
    83.6600       362
    83.6800       364
    83.7000       308
    83.7200       302
    83.7400       304
    83.7600       298
    83.7800       290
    83.8000       304
    83.8200       292
    83.8400       294
    83.8600       296
    83.8800       288
    83.9000       284
    83.9200       272
    83.9400       290
    83.9600       330
    83.9800       314
    84.0000       280
    84.0200       316
    84.0400       282
    84.0600       310
    84.0800       274
    84.1000       322
    84.1200       310
    84.1400       308
    84.1600       274
    84.1800       264
    84.2000       312
    84.2200       268
    84.2400       294
    84.2600       248
    84.2800       274
    84.3000       238
    84.3200       268
    84.3400       264
    84.3600       294
    84.3800       264
    84.4000       270
    84.4200       258
    84.4400       258
    84.4600       230
    84.4800       224
    84.5000       256
    84.5200       282
    84.5400       210
    84.5600       244
    84.5800       224
    84.6000       206
    84.6200       210
    84.6400       244
    84.6600       230
    84.6800       232
    84.7000       218
    84.7200       242
    84.7400       254
    84.7600       234
    84.7800       212
    84.8000       258
    84.8200       252
    84.8400       228
    84.8600       210
    84.8800       196
    84.9000       232
    84.9200       230
    84.9400       226
    84.9600       222
    84.9800       206
    85.0000       230
    85.0200       206
    85.0400       222
    85.0600       222
    85.0800       214
    85.1000       208
    85.1200       234
    85.1400       216
    85.1600       224
    85.1800       224
    85.2000       218
    85.2200       208
    85.2400       206
    85.2600       230
    85.2800       228
    85.3000       218
    85.3200       248
    85.3400       218
    85.3600       226
    85.3800       260
    85.4000       242
    85.4200       240
    85.4400       240
    85.4600       274
    85.4800       272
    85.5000       276
    85.5200       270
    85.5400       266
    85.5600       280
    85.5800       284
    85.6000       286
    85.6200       300
    85.6400       304
    85.6600       296
    85.6800       284
    85.7000       260
    85.7200       270
    85.7400       280
    85.7600       256
    85.7800       278
    85.8000       258
    85.8200       264
    85.8400       250
    85.8600       246
    85.8800       216
    85.9000       226
    85.9200       258
    85.9400       236
    85.9600       238
    85.9800       216
    86.0000       226
    86.0200       220
    86.0400       210
    86.0600       208
    86.0800       226
    86.1000       198
    86.1200       194
    86.1400       216
    86.1600       220
    86.1800       208
    86.2000       200
    86.2200       192
    86.2400       204
    86.2600       192
    86.2800       172
    86.3000       200
    86.3200       196
    86.3400       198
    86.3600       212
    86.3800       214
    86.4000       188
    86.4200       198
    86.4400       210
    86.4600       214
    86.4800       204
    86.5000       220
    86.5200       220
    86.5400       226
    86.5600       250
    86.5800       222
    86.6000       224
    86.6200       248
    86.6400       240
    86.6600       258
    86.6800       258
    86.7000       264
    86.7200       276
    86.7400       280
    86.7600       286
    86.7800       306
    86.8000       298
    86.8200       290
    86.8400       304
    86.8600       318
    86.8800       324
    86.9000       330
    86.9200       384
    86.9400       344
    86.9600       386
    86.9800       348
    87.0000       380
    87.0200       392
    87.0400       392
    87.0600       408
    87.0800       404
    87.1000       436
    87.1200       446
    87.1400       444
    87.1600       440
    87.1800       476
    87.2000       482
    87.2200       422
    87.2400       482
    87.2600       460
    87.2800       520
    87.3000       518
    87.3200       524
    87.3400       514
    87.3600       540
    87.3800       534
    87.4000       490
    87.4200       492
    87.4400       522
    87.4600       482
    87.4800       496
    87.5000       464
    87.5200       492
    87.5400       464
    87.5600       490
    87.5800       486
    87.6000       466
    87.6200       442
    87.6400       456
    87.6600       466
    87.6800       462
    87.7000       426
    87.7200       430
    87.7400       438
    87.7600       446
    87.7800       450
    87.8000       424
    87.8200       440
    87.8400       430
    87.8600       430
    87.8800       404
    87.9000       396
    87.9200       392
    87.9400       420
    87.9600       392
    87.9800       400
    88.0000       376
    88.0200       360
    88.0400       372
    88.0600       368
    88.0800       378
    88.1000       350
    88.1200       370
    88.1400       320
    88.1600       384
    88.1800       352
    88.2000       338
    88.2200       336
    88.2400       328
    88.2600       308
    88.2800       304
    88.3000       316
    88.3200       290
    88.3400       292
    88.3600       294
    88.3800       314
    88.4000       258
    88.4200       288
    88.4400       282
    88.4600       290
    88.4800       266
    88.5000       284
    88.5200       294
    88.5400       294
    88.5600       280
    88.5800       252
    88.6000       278
    88.6200       268
    88.6400       274
    88.6600       276
    88.6800       268
    88.7000       290
    88.7200       286
    88.7400       302
    88.7600       298
    88.7800       272
    88.8000       284
    88.8200       286
    88.8400       276
    88.8600       248
    88.8800       260
    88.9000       254
    88.9200       224
    88.9400       252
    88.9600       252
    88.9800       238
    89.0000       246
    89.0200       248
    89.0400       254
    89.0600       248
    89.0800       264
    89.1000       242
    89.1200       236
    89.1400       258
    89.1600       230
    89.1800       226
    89.2000       244
    89.2200       228
    89.2400       260
    89.2600       246
    89.2800       244
    89.3000       270
    89.3200       276
    89.3400       270
    89.3600       270
    89.3800       264
    89.4000       266
    89.4200       252
    89.4400       248
    89.4600       252
    89.4800       286
    89.5000       284
    89.5200       296
    89.5400       254
    89.5600       278
    89.5800       264
    89.6000       270
    89.6200       272
    89.6400       272
    89.6600       290
    89.6800       266
    89.7000       280
    89.7200       292
    89.7400       262
    89.7600       290
    89.7800       288
    89.8000       270
    89.8200       318
    89.8400       312
    89.8600       294
    89.8800       310
    89.9000       284
    89.9200       330
    89.9400       326
    89.9600       296
    89.9800       306
    90.0000       318
