    10.0000       392
    10.0200       360
    10.0400       358
    10.0600       386
    10.0800       418
    10.1000       386
    10.1200       422
    10.1400       368
    10.1600       370
    10.1800       374
    10.2000       352
    10.2200       376
    10.2400       358
    10.2600       394
    10.2800       348
    10.3000       370
    10.3200       330
    10.3400       374
    10.3600       350
    10.3800       350
    10.4000       356
    10.4200       328
    10.4400       376
    10.4600       346
    10.4800       344
    10.5000       360
    10.5200       354
    10.5400       370
    10.5600       376
    10.5800       346
    10.6000       338
    10.6200       364
    10.6400       364
    10.6600       322
    10.6800       326
    10.7000       362
    10.7200       374
    10.7400       340
    10.7600       368
    10.7800       338
    10.8000       324
    10.8200       326
    10.8400       336
    10.8600       310
    10.8800       342
    10.9000       360
    10.9200       366
    10.9400       330
    10.9600       340
    10.9800       368
    11.0000       354
    11.0200       342
    11.0400       318
    11.0600       338
    11.0800       332
    11.1000       350
    11.1200       334
    11.1400       314
    11.1600       328
    11.1800       304
    11.2000       352
    11.2200       328
    11.2400       348
    11.2600       344
    11.2800       332
    11.3000       342
    11.3200       322
    11.3400       364
    11.3600       354
    11.3800       312
    11.4000       348
    11.4200       308
    11.4400       312
    11.4600       324
    11.4800       302
    11.5000       324
    11.5200       310
    11.5400       306
    11.5600       356
    11.5800       336
    11.6000       338
    11.6200       366
    11.6400       328
    11.6600       304
    11.6800       374
    11.7000       352
    11.7200       288
    11.7400       316
    11.7600       352
    11.7800       368
    11.8000       330
    11.8200       344
    11.8400       304
    11.8600       362
    11.8800       336
    11.9000       394
    11.9200       346
    11.9400       380
    11.9600       424
    11.9800       394
    12.0000       428
    12.0200       414
    12.0400       412
    12.0600       436
    12.0800       448
    12.1000       496
    12.1200       490
    12.1400       546
    12.1600       530
    12.1800       546
    12.2000       568
    12.2200       540
    12.2400       532
    12.2600       508
    12.2800       454
    12.3000       428
    12.3200       444
    12.3400       374
    12.3600       350
    12.3800       378
    12.4000       334
    12.4200       318
    12.4400       348
    12.4600       346
    12.4800       292
    12.5000       332
    12.5200       320
    12.5400       308
    12.5600       328
    12.5800       312
    12.6000       300
    12.6200       326
    12.6400       298
    12.6600       320
    12.6800       294
    12.7000       282
    12.7200       286
    12.7400       284
    12.7600       316
    12.7800       324
    12.8000       300
    12.8200       320
    12.8400       258
    12.8600       316
    12.8800       330
    12.9000       300
    12.9200       266
    12.9400       290
    12.9600       294
    12.9800       312
    13.0000       322
    13.0200       296
    13.0400       298
    13.0600       310
    13.0800       276
    13.1000       330
    13.1200       290
    13.1400       308
    13.1600       276
    13.1800       298
    13.2000       328
    13.2200       296
    13.2400       284
    13.2600       244
    13.2800       282
    13.3000       320
    13.3200       268
    13.3400       290
    13.3600       324
    13.3800       268
    13.4000       300
    13.4200       248
    13.4400       252
    13.4600       276
    13.4800       288
    13.5000       288
    13.5200       268
    13.5400       282
    13.5600       282
    13.5800       262
    13.6000       284
    13.6200       312
    13.6400       282
    13.6600       284
    13.6800       284
    13.7000       266
    13.7200       270
    13.7400       288
    13.7600       268
    13.7800       284
    13.8000       264
    13.8200       288
    13.8400       268
    13.8600       290
    13.8800       290
    13.9000       272
    13.9200       284
    13.9400       292
    13.9600       306
    13.9800       298
    14.0000       284
    14.0200       290
    14.0400       276
    14.0600       284
    14.0800       262
    14.1000       304
    14.1200       298
    14.1400       278
    14.1600       262
    14.1800       264
    14.2000       288
    14.2200       284
    14.2400       282
    14.2600       296
    14.2800       286
    14.3000       280
    14.3200       260
    14.3400       282
    14.3600       284
    14.3800       302
    14.4000       308
    14.4200       292
    14.4400       288
    14.4600       300
    14.4800       296
    14.5000       276
    14.5200       304
    14.5400       298
    14.5600       298
    14.5800       298
    14.6000       298
    14.6200       330
    14.6400       326
    14.6600       350
    14.6800       342
    14.7000       336
    14.7200       362
    14.7400       388
    14.7600       366
    14.7800       402
    14.8000       426
    14.8200       478
    14.8400       494
    14.8600       530
    14.8800       518
    14.9000       524
    14.9200       624
    14.9400       640
    14.9600       702
    14.9800       810
    15.0000       786
    15.0200       884
    15.0400       922
    15.0600      1072
    15.0800      1142
    15.1000      1212
    15.1200      1370
    15.1400      1506
    15.1600      1742
    15.1800      1814
    15.2000      1888
    15.2200      1888
    15.2400      1846
    15.2600      1680
    15.2800      1458
    15.3000      1270
    15.3200       984
    15.3400       806
    15.3600       654
    15.3800       612
    15.4000       594
    15.4200       520
    15.4400       446
    15.4600       432
    15.4800       432
    15.5000       394
    15.5200       374
    15.5400       392
    15.5600       348
    15.5800       352
    15.6000       348
    15.6200       326
    15.6400       332
    15.6600       296
    15.6800       280
    15.7000       302
    15.7200       284
    15.7400       316
    15.7600       290
    15.7800       304
    15.8000       280
    15.8200       282
    15.8400       302
    15.8600       266
    15.8800       296
    15.9000       300
    15.9200       298
    15.9400       320
    15.9600       306
    15.9800       244
    16.0000       308
    16.0200       314
    16.0400       306
    16.0600       296
    16.0800       294
    16.1000       312
    16.1200       306
    16.1400       312
    16.1600       348
    16.1800       340
    16.2000       354
    16.2200       346
    16.2400       412
    16.2600       382
    16.2800       386
    16.3000       386
    16.3200       400
    16.3400       358
    16.3600       370
    16.3800       372
    16.4000       394
    16.4200       362
    16.4400       322
    16.4600       364
    16.4800       382
    16.5000       376
    16.5200       384
    16.5400       372
    16.5600       392
    16.5800       456
    16.6000       450
    16.6200       452
    16.6400       454
    16.6600       470
    16.6800       516
    16.7000       584
    16.7200       634
    16.7400       678
    16.7600       728
    16.7800       778
    16.8000       852
    16.8200       964
    16.8400       988
    16.8600      1128
    16.8800      1256
    16.9000      1446
    16.9200      1630
    16.9400      1752
    16.9600      2056
    16.9800      2290
    17.0000      2494
    17.0200      2844
    17.0400      2900
    17.0600      2864
    17.0800      2592
    17.1000      2324
    17.1200      1960
    17.1400      1644
    17.1600      1394
    17.1800      1198
    17.2000      1054
    17.2200       974
    17.2400       892
    17.2600       848
    17.2800       846
    17.3000       826
    17.3200       778
    17.3400       698
    17.3600       658
    17.3800       610
    17.4000       572
    17.4200       560
    17.4400       524
    17.4600       544
    17.4800       498
    17.5000       492
    17.5200       494
    17.5400       506
    17.5600       478
    17.5800       540
    17.6000       478
    17.6200       544
    17.6400       526
    17.6600       548
    17.6800       632
    17.7000       688
    17.7200       668
    17.7400       738
    17.7600       710
    17.7800       794
    17.8000       888
    17.8200       928
    17.8400       906
    17.8600       916
    17.8800       926
    17.9000       868
    17.9200       824
    17.9400       706
    17.9600       582
    17.9800       556
    18.0000       462
    18.0200       442
    18.0400       386
    18.0600       354
    18.0800       358
    18.1000       314
    18.1200       306
    18.1400       280
    18.1600       302
    18.1800       320
    18.2000       260
    18.2200       274
    18.2400       260
    18.2600       278
    18.2800       240
    18.3000       278
    18.3200       260
    18.3400       252
    18.3600       248
    18.3800       248
    18.4000       252
    18.4200       242
    18.4400       222
    18.4600       236
    18.4800       260
    18.5000       244
    18.5200       242
    18.5400       226
    18.5600       226
    18.5800       248
    18.6000       252
    18.6200       208
    18.6400       252
    18.6600       212
    18.6800       246
    18.7000       246
    18.7200       234
    18.7400       232
    18.7600       256
    18.7800       232
    18.8000       250
    18.8200       252
    18.8400       274
    18.8600       270
    18.8800       246
    18.9000       256
    18.9200       260
    18.9400       282
    18.9600       268
    18.9800       290
    19.0000       294
    19.0200       278
    19.0400       288
    19.0600       330
    19.0800       312
    19.1000       324
    19.1200       348
    19.1400       342
    19.1600       376
    19.1800       394
    19.2000       382
    19.2200       458
    19.2400       466
    19.2600       554
    19.2800       532
    19.3000       562
    19.3200       686
    19.3400       714
    19.3600       786
    19.3800      1000
    19.4000      1010
    19.4200      1188
    19.4400      1378
    19.4600      1468
    19.4800      1728
    19.5000      1924
    19.5200      2060
    19.5400      2210
    19.5600      2168
    19.5800      2014
    19.6000      1852
    19.6200      1674
    19.6400      1428
    19.6600      1132
    19.6800      1036
    19.7000       908
    19.7200       856
    19.7400       818
    19.7600       844
    19.7800       812
    19.8000       924
    19.8200       876
    19.8400      1006
    19.8600      1092
    19.8800      1210
    19.9000      1354
    19.9200      1414
    19.9400      1530
    19.9600      1604
    19.9800      1660
    20.0000      1592
    20.0200      1568
    20.0400      1500
    20.0600      1270
    20.0800      1106
    20.1000       934
    20.1200       770
    20.1400       654
    20.1600       608
    20.1800       490
    20.2000       498
    20.2200       474
    20.2400       434
    20.2600       382
    20.2800       354
    20.3000       356
    20.3200       330
    20.3400       362
    20.3600       352
    20.3800       346
    20.4000       308
    20.4200       318
    20.4400       314
    20.4600       298
    20.4800       306
    20.5000       286
    20.5200       302
    20.5400       278
    20.5600       280
    20.5800       250
    20.6000       256
    20.6200       266
    20.6400       290
    20.6600       278
    20.6800       282
    20.7000       248
    20.7200       276
    20.7400       286
    20.7600       324
    20.7800       292
    20.8000       280
    20.8200       328
    20.8400       340
    20.8600       344
    20.8800       378
    20.9000       404
    20.9200       428
    20.9400       432
    20.9600       460
    20.9800       522
    21.0000       544
    21.0200       556
    21.0400       652
    21.0600       712
    21.0800       838
    21.1000       844
    21.1200       970
    21.1400      1000
    21.1600      1094
    21.1800      1236
    21.2000      1326
    21.2200      1288
    21.2400      1330
    21.2600      1272
    21.2800      1164
    21.3000      1128
    21.3200       872
    21.3400       856
    21.3600       712
    21.3800       648
    21.4000       618
    21.4200       504
    21.4400       390
    21.4600       400
    21.4800       376
    21.5000       364
    21.5200       334
    21.5400       334
    21.5600       296
    21.5800       298
    21.6000       266
    21.6200       286
    21.6400       256
    21.6600       252
    21.6800       256
    21.7000       242
    21.7200       228
    21.7400       214
    21.7600       234
    21.7800       222
    21.8000       218
    21.8200       262
    21.8400       246
    21.8600       236
    21.8800       248
    21.9000       232
    21.9200       216
    21.9400       218
    21.9600       224
    21.9800       216
    22.0000       202
    22.0200       222
    22.0400       232
    22.0600       238
    22.0800       244
    22.1000       226
    22.1200       250
    22.1400       208
    22.1600       248
    22.1800       248
    22.2000       240
    22.2200       254
    22.2400       240
    22.2600       252
    22.2800       252
    22.3000       274
    22.3200       232
    22.3400       276
    22.3600       280
    22.3800       312
    22.4000       306
    22.4200       352
    22.4400       336
    22.4600       372
    22.4800       398
    22.5000       454
    22.5200       486
    22.5400       530
    22.5600       586
    22.5800       562
    22.6000       680
    22.6200       762
    22.6400       856
    22.6600       942
    22.6800      1054
    22.7000      1204
    22.7200      1438
    22.7400      1576
    22.7600      1778
    22.7800      2002
    22.8000      2304
    22.8200      2626
    22.8400      2830
    22.8600      2962
    22.8800      2930
    22.9000      2700
    22.9200      2442
    22.9400      2172
    22.9600      1758
    22.9800      1474
    23.0000      1218
    23.0200       986
    23.0400       798
    23.0600       746
    23.0800       682
    23.1000       636
    23.1200       566
    23.1400       542
    23.1600       442
    23.1800       454
    23.2000       378
    23.2200       388
    23.2400       380
    23.2600       340
    23.2800       290
    23.3000       310
    23.3200       306
    23.3400       268
    23.3600       290
    23.3800       274
    23.4000       282
    23.4200       276
    23.4400       266
    23.4600       246
    23.4800       300
    23.5000       224
    23.5200       248
    23.5400       268
    23.5600       248
    23.5800       238
    23.6000       268
    23.6200       270
    23.6400       244
    23.6600       228
    23.6800       252
    23.7000       276
    23.7200       254
    23.7400       256
    23.7600       286
    23.7800       272
    23.8000       256
    23.8200       236
    23.8400       258
    23.8600       250
    23.8800       258
    23.9000       272
    23.9200       278
    23.9400       256
    23.9600       292
    23.9800       244
    24.0000       296
    24.0200       300
    24.0400       310
    24.0600       312
    24.0800       274
    24.1000       284
    24.1200       284
    24.1400       334
    24.1600       320
    24.1800       336
    24.2000       334
    24.2200       380
    24.2400       386
    24.2600       374
    24.2800       408
    24.3000       436
    24.3200       528
    24.3400       512
    24.3600       554
    24.3800       570
    24.4000       670
    24.4200       742
    24.4400       742
    24.4600       794
    24.4800       846
    24.5000       914
    24.5200      1000
    24.5400      1026
    24.5600      1010
    24.5800       974
    24.6000       990
    24.6200      1000
    24.6400       932
    24.6600       938
    24.6800       872
    24.7000       812
    24.7200       854
    24.7400       818
    24.7600       824
    24.7800       756
    24.8000       780
    24.8200       762
    24.8400       710
    24.8600       660
    24.8800       652
    24.9000       614
    24.9200       598
    24.9400       552
    24.9600       554
    24.9800       544
    25.0000       568
    25.0200       530
    25.0400       506
    25.0600       516
    25.0800       582
    25.1000       636
    25.1200       628
    25.1400       684
    25.1600       716
    25.1800       794
    25.2000       844
    25.2200       888
    25.2400      1048
    25.2600      1054
    25.2800      1222
    25.3000      1264
    25.3200      1382
    25.3400      1494
    25.3600      1486
    25.3800      1482
    25.4000      1468
    25.4200      1402
    25.4400      1272
    25.4600      1176
    25.4800      1166
    25.5000      1006
    25.5200       968
    25.5400       944
    25.5600       922
    25.5800       974
    25.6000       954
    25.6200       888
    25.6400       848
    25.6600       774
    25.6800       730
    25.7000       700
    25.7200       636
    25.7400       546
    25.7600       528
    25.7800       526
    25.8000       474
    25.8200       438
    25.8400       402
    25.8600       410
    25.8800       374
    25.9000       384
    25.9200       340
    25.9400       334
    25.9600       364
    25.9800       318
    26.0000       322
    26.0200       358
    26.0400       302
    26.0600       288
    26.0800       304
    26.1000       328
    26.1200       290
    26.1400       312
    26.1600       304
    26.1800       304
    26.2000       302
    26.2200       280
    26.2400       326
    26.2600       324
    26.2800       290
    26.3000       334
    26.3200       308
    26.3400       320
    26.3600       338
    26.3800       376
    26.4000       330
    26.4200       336
    26.4400       332
    26.4600       356
    26.4800       358
    26.5000       384
    26.5200       338
    26.5400       336
    26.5600       366
    26.5800       384
    26.6000       330
    26.6200       390
    26.6400       388
    26.6600       364
    26.6800       388
    26.7000       360
    26.7200       338
    26.7400       364
    26.7600       316
    26.7800       344
    26.8000       344
    26.8200       320
    26.8400       282
    26.8600       302
    26.8800       298
    26.9000       284
    26.9200       282
    26.9400       288
    26.9600       292
    26.9800       284
    27.0000       272
    27.0200       286
    27.0400       296
    27.0600       302
    27.0800       308
    27.1000       290
    27.1200       354
    27.1400       342
    27.1600       388
    27.1800       326
    27.2000       366
    27.2200       388
    27.2400       386
    27.2600       432
    27.2800       478
    27.3000       500
    27.3200       558
    27.3400       580
    27.3600       618
    27.3800       666
    27.4000       704
    27.4200       736
    27.4400       820
    27.4600       808
    27.4800       898
    27.5000       828
    27.5200       818
    27.5400       834
    27.5600       796
    27.5800       782
    27.6000       676
    27.6200       694
    27.6400       650
    27.6600       570
    27.6800       536
    27.7000       528
    27.7200       466
    27.7400       434
    27.7600       440
    27.7800       358
    27.8000       362
    27.8200       352
    27.8400       388
    27.8600       306
    27.8800       336
    27.9000       324
    27.9200       310
    27.9400       330
    27.9600       310
    27.9800       314
    28.0000       294
    28.0200       278
    28.0400       280
    28.0600       272
    28.0800       262
    28.1000       272
    28.1200       266
    28.1400       276
    28.1600       268
    28.1800       298
    28.2000       284
    28.2200       314
    28.2400       270
    28.2600       254
    28.2800       346
    28.3000       340
    28.3200       304
    28.3400       340
    28.3600       346
    28.3800       346
    28.4000       330
    28.4200       338
    28.4400       356
    28.4600       360
    28.4800       406
    28.5000       392
    28.5200       354
    28.5400       382
    28.5600       386
    28.5800       426
    28.6000       410
    28.6200       454
    28.6400       458
    28.6600       474
    28.6800       562
    28.7000       500
    28.7200       504
    28.7400       536
    28.7600       492
    28.7800       490
    28.8000       426
    28.8200       478
    28.8400       388
    28.8600       442
    28.8800       414
    28.9000       372
    28.9200       352
    28.9400       348
    28.9600       366
    28.9800       342
    29.0000       382
    29.0200       352
    29.0400       376
    29.0600       334
    29.0800       350
    29.1000       374
    29.1200       408
    29.1400       330
    29.1600       362
    29.1800       360
    29.2000       378
    29.2200       392
    29.2400       438
    29.2600       444
    29.2800       418
    29.3000       434
    29.3200       472
    29.3400       456
    29.3600       538
    29.3800       552
    29.4000       564
    29.4200       600
    29.4400       640
    29.4600       688
    29.4800       672
    29.5000       754
    29.5200       790
    29.5400       872
    29.5600       914
    29.5800      1106
    29.6000      1162
    29.6200      1228
    29.6400      1260
    29.6600      1436
    29.6800      1422
    29.7000      1580
    29.7200      1616
    29.7400      1578
    29.7600      1496
    29.7800      1442
    29.8000      1340
    29.8200      1274
    29.8400      1200
    29.8600      1064
    29.8800      1032
    29.9000       942
    29.9200       926
    29.9400       904
    29.9600       966
    29.9800      1072
    30.0000      1066
    30.0200      1044
    30.0400      1124
    30.0600      1198
    30.0800      1284
    30.1000      1364
    30.1200      1522
    30.1400      1600
    30.1600      1708
    30.1800      1698
    30.2000      1752
    30.2200      1806
    30.2400      1976
    30.2600      1860
    30.2800      1946
    30.3000      2004
    30.3200      1928
    30.3400      2020
    30.3600      2076
    30.3800      2136
    30.4000      2116
    30.4200      2234
    30.4400      2402
    30.4600      2584
    30.4800      2852
    30.5000      2990
    30.5200      3384
    30.5400      3710
    30.5600      4088
    30.5800      4536
    30.6000      5028
    30.6200      5548
    30.6400      6094
    30.6600      6586
    30.6800      7246
    30.7000      7602
    30.7200      7802
    30.7400      7642
    30.7600      7210
    30.7800      6698
    30.8000      6094
    30.8200      5514
    30.8400      4820
    30.8600      4146
    30.8800      3588
    30.9000      2896
    30.9200      2542
    30.9400      2270
    30.9600      1940
    30.9800      1696
    31.0000      1598
    31.0200      1380
    31.0400      1272
    31.0600      1158
    31.0800      1030
    31.1000       960
    31.1200       876
    31.1400       804
    31.1600       784
    31.1800       736
    31.2000       692
    31.2200       712
    31.2400       620
    31.2600       594
    31.2800       564
    31.3000       544
    31.3200       532
    31.3400       512
    31.3600       548
    31.3800       494
    31.4000       472
    31.4200       424
    31.4400       408
    31.4600       476
    31.4800       434
    31.5000       426
    31.5200       466
    31.5400       444
    31.5600       462
    31.5800       470
    31.6000       466
    31.6200       462
    31.6400       482
    31.6600       478
    31.6800       482
    31.7000       514
    31.7200       588
    31.7400       636
    31.7600       632
    31.7800       664
    31.8000       742
    31.8200       764
    31.8400       892
    31.8600       970
    31.8800      1088
    31.9000      1146
    31.9200      1270
    31.9400      1394
    31.9600      1476
    31.9800      1632
    32.0000      1652
    32.0200      1626
    32.0400      1578
    32.0600      1486
    32.0800      1462
    32.1000      1388
    32.1200      1232
    32.1400      1216
    32.1600      1152
    32.1800      1140
    32.2000      1116
    32.2200      1162
    32.2400      1174
    32.2600      1298
    32.2800      1398
    32.3000      1392
    32.3200      1492
    32.3400      1706
    32.3600      1888
    32.3800      2208
    32.4000      2398
    32.4200      2684
    32.4400      3116
    32.4600      3512
    32.4800      3930
    32.5000      4282
    32.5200      4596
    32.5400      4754
    32.5600      5074
    32.5800      4908
    32.6000      4768
    32.6200      4386
    32.6400      4134
    32.6600      3740
    32.6800      3428
    32.7000      2920
    32.7200      2598
    32.7400      2264
    32.7600      1992
    32.7800      1748
    32.8000      1602
    32.8200      1396
    32.8400      1372
    32.8600      1224
    32.8800      1150
    32.9000      1072
    32.9200      1126
    32.9400      1040
    32.9600      1000
    32.9800      1106
    33.0000      1076
    33.0200      1116
    33.0400      1102
    33.0600      1124
    33.0800      1178
    33.1000      1150
    33.1200      1116
    33.1400      1040
    33.1600      1040
    33.1800       932
    33.2000       874
    33.2200       760
    33.2400       716
    33.2600       614
    33.2800       586
    33.3000       536
    33.3200       446
    33.3400       460
    33.3600       424
    33.3800       412
    33.4000       358
    33.4200       370
    33.4400       342
    33.4600       354
    33.4800       358
    33.5000       352
    33.5200       358
    33.5400       310
    33.5600       302
    33.5800       270
    33.6000       270
    33.6200       284
    33.6400       292
    33.6600       288
    33.6800       274
    33.7000       272
    33.7200       306
    33.7400       280
    33.7600       276
    33.7800       270
    33.8000       262
    33.8200       268
    33.8400       262
    33.8600       282
    33.8800       264
    33.9000       260
    33.9200       278
    33.9400       262
    33.9600       316
    33.9800       264
    34.0000       274
    34.0200       312
    34.0400       310
    34.0600       292
    34.0800       284
    34.1000       292
    34.1200       316
    34.1400       310
    34.1600       340
    34.1800       332
    34.2000       344
    34.2200       350
    34.2400       350
    34.2600       400
    34.2800       412
    34.3000       394
    34.3200       430
    34.3400       466
    34.3600       524
    34.3800       536
    34.4000       594
    34.4200       664
    34.4400       658
    34.4600       648
    34.4800       744
    34.5000       780
    34.5200       696
    34.5400       658
    34.5600       648
    34.5800       602
    34.6000       544
    34.6200       544
    34.6400       516
    34.6600       450
    34.6800       458
    34.7000       404
    34.7200       414
    34.7400       412
    34.7600       364
    34.7800       364
    34.8000       380
    34.8200       348
    34.8400       364
    34.8600       360
    34.8800       348
    34.9000       314
    34.9200       342
    34.9400       334
    34.9600       288
    34.9800       338
    35.0000       294
    35.0200       300
    35.0400       288
    35.0600       284
    35.0800       310
    35.1000       294
    35.1200       314
    35.1400       272
    35.1600       312
    35.1800       290
    35.2000       294
    35.2200       304
    35.2400       292
    35.2600       306
    35.2800       296
    35.3000       274
    35.3200       282
    35.3400       270
    35.3600       278
    35.3800       302
    35.4000       278
    35.4200       264
    35.4400       286
    35.4600       292
    35.4800       308
    35.5000       302
    35.5200       298
    35.5400       296
    35.5600       306
    35.5800       306
    35.6000       336
    35.6200       336
    35.6400       344
    35.6600       300
    35.6800       306
    35.7000       390
    35.7200       346
    35.7400       368
    35.7600       364
    35.7800       384
    35.8000       422
    35.8200       456
    35.8400       426
    35.8600       430
    35.8800       444
    35.9000       460
    35.9200       470
    35.9400       532
    35.9600       536
    35.9800       536
    36.0000       594
    36.0200       692
    36.0400       710
    36.0600       766
    36.0800       818
    36.1000       958
    36.1200       932
    36.1400       976
    36.1600      1024
    36.1800       996
    36.2000       994
    36.2200       978
    36.2400       958
    36.2600       866
    36.2800       828
    36.3000       772
    36.3200       676
    36.3400       648
    36.3600       616
    36.3800       588
    36.4000       492
    36.4200       522
    36.4400       476
    36.4600       506
    36.4800       512
    36.5000       522
    36.5200       498
    36.5400       488
    36.5600       478
    36.5800       564
    36.6000       506
    36.6200       564
    36.6400       584
    36.6600       584
    36.6800       600
    36.7000       694
    36.7200       772
    36.7400       820
    36.7600       874
    36.7800       950
    36.8000      1030
    36.8200      1140
    36.8400      1200
    36.8600      1208
    36.8800      1358
    36.9000      1404
    36.9200      1354
    36.9400      1332
    36.9600      1336
    36.9800      1224
    37.0000      1114
    37.0200      1092
    37.0400       998
    37.0600       946
    37.0800       918
    37.1000       850
    37.1200       854
    37.1400       832
    37.1600       830
    37.1800       728
    37.2000       768
    37.2200       756
    37.2400       722
    37.2600       704
    37.2800       642
    37.3000       626
    37.3200       560
    37.3400       640
    37.3600       618
    37.3800       534
    37.4000       552
    37.4200       534
    37.4400       510
    37.4600       508
    37.4800       492
    37.5000       472
    37.5200       482
    37.5400       508
    37.5600       510
    37.5800       506
    37.6000       496
    37.6200       538
    37.6400       542
    37.6600       512
    37.6800       550
    37.7000       592
    37.7200       590
    37.7400       642
    37.7600       608
    37.7800       660
    37.8000       666
    37.8200       766
    37.8400       848
    37.8600       802
    37.8800       966
    37.9000       984
    37.9200      1110
    37.9400      1222
    37.9600      1340
    37.9800      1412
    38.0000      1458
    38.0200      1542
    38.0400      1646
    38.0600      1616
    38.0800      1532
    38.1000      1610
    38.1200      1582
    38.1400      1436
    38.1600      1484
    38.1800      1520
    38.2000      1456
    38.2200      1482
    38.2400      1536
    38.2600      1670
    38.2800      1734
    38.3000      1884
    38.3200      1978
    38.3400      2092
    38.3600      2318
    38.3800      2586
    38.4000      2896
    38.4200      3168
    38.4400      3418
    38.4600      3574
    38.4800      3810
    38.5000      4120
    38.5200      4368
    38.5400      4416
    38.5600      4606
    38.5800      4982
    38.6000      4904
    38.6200      5146
    38.6400      5400
    38.6600      5570
    38.6800      5542
    38.7000      5728
    38.7200      5388
    38.7400      5196
    38.7600      4900
    38.7800      4666
    38.8000      4358
    38.8200      4040
    38.8400      3712
    38.8600      3256
    38.8800      2972
    38.9000      2652
    38.9200      2448
    38.9400      2184
    38.9600      2002
    38.9800      1842
    39.0000      1814
    39.0200      1644
    39.0400      1522
    39.0600      1552
    39.0800      1474
    39.1000      1470
    39.1200      1354
    39.1400      1404
    39.1600      1330
    39.1800      1250
    39.2000      1244
    39.2200      1244
    39.2400      1220
    39.2600      1212
    39.2800      1240
    39.3000      1250
    39.3200      1232
    39.3400      1220
    39.3600      1284
    39.3800      1332
    39.4000      1342
    39.4200      1404
    39.4400      1444
    39.4600      1442
    39.4800      1416
    39.5000      1504
    39.5200      1458
    39.5400      1478
    39.5600      1580
    39.5800      1482
    39.6000      1618
    39.6200      1708
    39.6400      1808
    39.6600      1814
    39.6800      1900
    39.7000      1898
    39.7200      1754
    39.7400      1734
    39.7600      1740
    39.7800      1524
    39.8000      1498
    39.8200      1390
    39.8400      1320
    39.8600      1240
    39.8800      1072
    39.9000      1008
    39.9200       990
    39.9400       900
    39.9600       840
    39.9800       830
    40.0000       840
    40.0200       794
    40.0400       814
    40.0600       854
    40.0800       854
    40.1000       884
    40.1200       902
    40.1400       940
    40.1600       908
    40.1800       950
    40.2000       992
    40.2200       954
    40.2400      1044
    40.2600      1050
    40.2800      1056
    40.3000      1044
    40.3200      1070
    40.3400      1114
    40.3600      1142
    40.3800      1134
    40.4000      1190
    40.4200      1174
    40.4400      1234
    40.4600      1302
    40.4800      1400
    40.5000      1444
    40.5200      1522
    40.5400      1628
    40.5600      1710
    40.5800      1644
    40.6000      1770
    40.6200      1762
    40.6400      1698
    40.6600      1740
    40.6800      1644
    40.7000      1594
    40.7200      1496
    40.7400      1314
    40.7600      1270
    40.7800      1206
    40.8000      1110
    40.8200      1090
    40.8400       974
    40.8600       962
    40.8800       904
    40.9000       864
    40.9200       780
    40.9400       780
    40.9600       786
    40.9800       820
    41.0000       752
    41.0200       798
    41.0400       872
    41.0600       830
    41.0800       850
    41.1000       944
    41.1200       932
    41.1400       976
    41.1600      1076
    41.1800      1062
    41.2000      1126
    41.2200      1262
    41.2400      1264
    41.2600      1354
    41.2800      1356
    41.3000      1464
    41.3200      1488
    41.3400      1536
    41.3600      1536
    41.3800      1582
    41.4000      1660
    41.4200      1700
    41.4400      1684
    41.4600      1746
    41.4800      1834
    41.5000      1900
    41.5200      2012
    41.5400      2022
    41.5600      2058
    41.5800      2156
    41.6000      2016
    41.6200      1932
    41.6400      1944
    41.6600      1954
    41.6800      1830
    41.7000      1768
    41.7200      1762
    41.7400      1720
    41.7600      1588
    41.7800      1638
    41.8000      1558
    41.8200      1506
    41.8400      1546
    41.8600      1502
    41.8800      1510
    41.9000      1530
    41.9200      1564
    41.9400      1436
    41.9600      1418
    41.9800      1348
    42.0000      1280
    42.0200      1194
    42.0400      1114
    42.0600       996
    42.0800       978
    42.1000       856
    42.1200       878
    42.1400       818
    42.1600       726
    42.1800       690
    42.2000       654
    42.2200       628
    42.2400       610
    42.2600       630
    42.2800       556
    42.3000       546
    42.3200       528
    42.3400       518
    42.3600       516
    42.3800       534
    42.4000       494
    42.4200       454
    42.4400       472
    42.4600       468
    42.4800       544
    42.5000       458
    42.5200       458
    42.5400       484
    42.5600       484
    42.5800       448
    42.6000       492
    42.6200       464
    42.6400       446
    42.6600       414
    42.6800       450
    42.7000       416
    42.7200       444
    42.7400       484
    42.7600       424
    42.7800       474
    42.8000       480
    42.8200       516
    42.8400       500
    42.8600       496
    42.8800       532
    42.9000       548
    42.9200       564
    42.9400       638
    42.9600       582
    42.9800       640
    43.0000       678
    43.0200       744
    43.0400       836
    43.0600       818
    43.0800       936
    43.1000       984
    43.1200      1068
    43.1400      1114
    43.1600      1098
    43.1800      1238
    43.2000      1306
    43.2200      1278
    43.2400      1274
    43.2600      1282
    43.2800      1196
    43.3000      1174
    43.3200      1118
    43.3400      1008
    43.3600       948
    43.3800       870
    43.4000       830
    43.4200       814
    43.4400       708
    43.4600       634
    43.4800       662
    43.5000       614
    43.5200       586
    43.5400       582
    43.5600       562
    43.5800       540
    43.6000       566
    43.6200       516
    43.6400       538
    43.6600       586
    43.6800       560
    43.7000       552
    43.7200       548
    43.7400       554
    43.7600       594
    43.7800       608
    43.8000       620
    43.8200       574
    43.8400       600
    43.8600       626
    43.8800       610
    43.9000       566
    43.9200       604
    43.9400       560
    43.9600       596
    43.9800       558
    44.0000       478
    44.0200       540
    44.0400       546
    44.0600       492
    44.0800       490
    44.1000       504
    44.1200       496
    44.1400       460
    44.1600       472
    44.1800       498
    44.2000       500
    44.2200       514
    44.2400       496
    44.2600       542
    44.2800       556
    44.3000       540
    44.3200       532
    44.3400       576
    44.3600       536
    44.3800       528
    44.4000       546
    44.4200       562
    44.4400       578
    44.4600       578
    44.4800       538
    44.5000       524
    44.5200       536
    44.5400       532
    44.5600       508
    44.5800       548
    44.6000       564
    44.6200       568
    44.6400       566
    44.6600       608
    44.6800       560
    44.7000       532
    44.7200       632
    44.7400       634
    44.7600       682
    44.7800       722
    44.8000       740
    44.8200       772
    44.8400       860
    44.8600       912
    44.8800       942
    44.9000      1010
    44.9200      1124
    44.9400      1192
    44.9600      1196
    44.9800      1314
    45.0000      1302
    45.0200      1420
    45.0400      1522
    45.0600      1634
    45.0800      1658
    45.1000      1716
    45.1200      1854
    45.1400      1908
    45.1600      2018
    45.1800      2076
    45.2000      2044
    45.2200      2194
    45.2400      2220
    45.2600      2376
    45.2800      2296
    45.3000      2280
    45.3200      2264
    45.3400      2216
    45.3600      2142
    45.3800      2234
    45.4000      2034
    45.4200      2090
    45.4400      2070
    45.4600      1884
    45.4800      1786
    45.5000      1782
    45.5200      1630
    45.5400      1650
    45.5600      1438
    45.5800      1448
    45.6000      1240
    45.6200      1224
    45.6400      1200
    45.6600      1102
    45.6800      1014
    45.7000       942
    45.7200       976
    45.7400       904
    45.7600       872
    45.7800       800
    45.8000       818
    45.8200       758
    45.8400       786
    45.8600       746
    45.8800       726
    45.9000       708
    45.9200       716
    45.9400       710
    45.9600       704
    45.9800       704
    46.0000       740
    46.0200       728
    46.0400       724
    46.0600       688
    46.0800       732
    46.1000       752
    46.1200       770
    46.1400       710
    46.1600       766
    46.1800       804
    46.2000       822
    46.2200       892
    46.2400       876
    46.2600       978
    46.2800       974
    46.3000      1034
    46.3200      1144
    46.3400      1182
    46.3600      1282
    46.3800      1384
    46.4000      1458
    46.4200      1578
    46.4400      1718
    46.4600      1920
    46.4800      2002
    46.5000      2322
    46.5200      2502
    46.5400      2734
    46.5600      3106
    46.5800      3478
    46.6000      3772
    46.6200      4186
    46.6400      4444
    46.6600      4726
    46.6800      5038
    46.7000      5200
    46.7200      5170
    46.7400      5036
    46.7600      4944
    46.7800      4838
    46.8000      4474
    46.8200      4336
    46.8400      4014
    46.8600      3662
    46.8800      3350
    46.9000      2946
    46.9200      2594
    46.9400      2376
    46.9600      2150
    46.9800      1932
    47.0000      1788
    47.0200      1502
    47.0400      1404
    47.0600      1332
    47.0800      1210
    47.1000      1146
    47.1200      1038
    47.1400       972
    47.1600       934
    47.1800       842
    47.2000       850
    47.2200       784
    47.2400       724
    47.2600       738
    47.2800       694
    47.3000       642
    47.3200       666
    47.3400       626
    47.3600       624
    47.3800       630
    47.4000       612
    47.4200       574
    47.4400       566
    47.4600       534
    47.4800       562
    47.5000       560
    47.5200       564
    47.5400       540
    47.5600       574
    47.5800       486
    47.6000       540
    47.6200       528
    47.6400       490
    47.6600       524
    47.6800       532
    47.7000       544
    47.7200       544
    47.7400       580
    47.7600       640
    47.7800       624
    47.8000       654
    47.8200       706
    47.8400       694
    47.8600       706
    47.8800       712
    47.9000       716
    47.9200       666
    47.9400       694
    47.9600       634
    47.9800       634
    48.0000       656
    48.0200       632
    48.0400       602
    48.0600       672
    48.0800       656
    48.1000       676
    48.1200       704
    48.1400       722
    48.1600       708
    48.1800       704
    48.2000       754
    48.2200       742
    48.2400       712
    48.2600       766
    48.2800       770
    48.3000       712
    48.3200       766
    48.3400       764
    48.3600       758
    48.3800       712
    48.4000       756
    48.4200       810
    48.4400       786
    48.4600       788
    48.4800       764
    48.5000       872
    48.5200       852
    48.5400       868
    48.5600       904
    48.5800       858
    48.6000       858
    48.6200       902
    48.6400       884
    48.6600       834
    48.6800       840
    48.7000       824
    48.7200       868
    48.7400       786
    48.7600       774
    48.7800       704
    48.8000       736
    48.8200       724
    48.8400       764
    48.8600       626
    48.8800       634
    48.9000       600
    48.9200       594
    48.9400       526
    48.9600       560
    48.9800       528
    49.0000       514
    49.0200       486
    49.0400       464
    49.0600       442
    49.0800       448
    49.1000       412
    49.1200       478
    49.1400       442
    49.1600       434
    49.1800       422
    49.2000       408
    49.2200       370
    49.2400       376
    49.2600       386
    49.2800       364
    49.3000       334
    49.3200       368
    49.3400       404
    49.3600       360
    49.3800       332
    49.4000       426
    49.4200       388
    49.4400       384
    49.4600       346
    49.4800       390
    49.5000       392
    49.5200       400
    49.5400       368
    49.5600       408
    49.5800       404
    49.6000       390
    49.6200       432
    49.6400       400
    49.6600       394
    49.6800       398
    49.7000       416
    49.7200       422
    49.7400       418
    49.7600       426
    49.7800       426
    49.8000       434
    49.8200       442
    49.8400       458
    49.8600       432
    49.8800       466
    49.9000       460
    49.9200       468
    49.9400       510
    49.9600       556
    49.9800       534
    50.0000       586
    50.0200       538
    50.0400       604
    50.0600       614
    50.0800       678
    50.1000       732
    50.1200       720
    50.1400       814
    50.1600       836
    50.1800       884
    50.2000       914
    50.2200       940
    50.2400       988
    50.2600      1036
    50.2800      1110
    50.3000      1128
    50.3200      1094
    50.3400      1188
    50.3600      1132
    50.3800      1166
    50.4000      1146
    50.4200      1266
    50.4400      1178
    50.4600      1208
    50.4800      1222
    50.5000      1274
    50.5200      1246
    50.5400      1268
    50.5600      1358
    50.5800      1350
    50.6000      1408
    50.6200      1438
    50.6400      1486
    50.6600      1564
    50.6800      1602
    50.7000      1650
    50.7200      1806
    50.7400      1914
    50.7600      1984
    50.7800      2004
    50.8000      2082
    50.8200      2290
    50.8400      2302
    50.8600      2368
    50.8800      2426
    50.9000      2246
    50.9200      2118
    50.9400      2088
    50.9600      2048
    50.9800      2026
    51.0000      1862
    51.0200      1832
    51.0400      1712
    51.0600      1576
    51.0800      1558
    51.1000      1362
    51.1200      1338
    51.1400      1262
    51.1600      1214
    51.1800      1164
    51.2000      1070
    51.2200      1068
    51.2400      1094
    51.2600       984
    51.2800       956
    51.3000       980
    51.3200       920
    51.3400       930
    51.3600       918
    51.3800       996
    51.4000       886
    51.4200       914
    51.4400       926
    51.4600       894
    51.4800       900
    51.5000       886
    51.5200       884
    51.5400       940
    51.5600       902
    51.5800       888
    51.6000       908
    51.6200       936
    51.6400       884
    51.6600       932
    51.6800       960
    51.7000      1012
    51.7200      1104
    51.7400      1124
    51.7600      1078
    51.7800      1142
    51.8000      1198
    51.8200      1360
    51.8400      1324
    51.8600      1534
    51.8800      1464
    51.9000      1624
    51.9200      1606
    51.9400      1726
    51.9600      1852
    51.9800      1956
    52.0000      1978
    52.0200      2108
    52.0400      2166
    52.0600      2140
    52.0800      2292
    52.1000      2264
    52.1200      2252
    52.1400      2106
    52.1600      1988
    52.1800      1856
    52.2000      1872
    52.2200      1854
    52.2400      1616
    52.2600      1608
    52.2800      1498
    52.3000      1474
    52.3200      1312
    52.3400      1208
    52.3600      1292
    52.3800      1150
    52.4000      1142
    52.4200      1144
    52.4400      1166
    52.4600      1128
    52.4800      1068
    52.5000      1230
    52.5200      1198
    52.5400      1256
    52.5600      1188
    52.5800      1274
    52.6000      1258
    52.6200      1242
    52.6400      1294
    52.6600      1362
    52.6800      1264
    52.7000      1324
    52.7200      1270
    52.7400      1234
    52.7600      1256
    52.7800      1246
    52.8000      1206
    52.8200      1164
    52.8400      1092
    52.8600      1068
    52.8800      1024
    52.9000      1006
    52.9200      1002
    52.9400       966
    52.9600       954
    52.9800       958
    53.0000       910
    53.0200       922
    53.0400       880
    53.0600       908
    53.0800       904
    53.1000       882
    53.1200       972
    53.1400       966
    53.1600      1056
    53.1800      1126
    53.2000      1116
    53.2200      1194
    53.2400      1236
    53.2600      1250
    53.2800      1312
    53.3000      1232
    53.3200      1172
    53.3400      1246
    53.3600      1176
    53.3800      1124
    53.4000      1016
    53.4200      1000
    53.4400       970
    53.4600       920
    53.4800       820
    53.5000       820
    53.5200       844
    53.5400       764
    53.5600       706
    53.5800       706
    53.6000       638
    53.6200       674
    53.6400       630
    53.6600       608
    53.6800       590
    53.7000       608
    53.7200       556
    53.7400       604
    53.7600       622
    53.7800       564
    53.8000       550
    53.8200       580
    53.8400       644
    53.8600       580
    53.8800       610
    53.9000       574
    53.9200       600
    53.9400       610
    53.9600       590
    53.9800       566
    54.0000       568
    54.0200       538
    54.0400       564
    54.0600       552
    54.0800       610
    54.1000       586
    54.1200       578
    54.1400       572
    54.1600       628
    54.1800       646
    54.2000       672
    54.2200       686
    54.2400       674
    54.2600       730
    54.2800       752
    54.3000       726
    54.3200       778
    54.3400       782
    54.3600       780
    54.3800       788
    54.4000       864
    54.4200       850
    54.4400       862
    54.4600       860
    54.4800       902
    54.5000       890
    54.5200       968
    54.5400       968
    54.5600       990
    54.5800       996
    54.6000      1088
    54.6200      1016
    54.6400      1104
    54.6600      1002
    54.6800      1046
    54.7000      1012
    54.7200      1036
    54.7400       948
    54.7600       956
    54.7800       980
    54.8000       970
    54.8200       908
    54.8400       886
    54.8600       856
    54.8800       870
    54.9000       844
    54.9200       756
    54.9400       814
    54.9600       760
    54.9800       836
    55.0000       768
    55.0200       770
    55.0400       806
    55.0600       836
    55.0800       872
    55.1000       880
    55.1200       794
    55.1400       856
    55.1600       794
    55.1800       802
    55.2000       864
    55.2200       860
    55.2400       878
    55.2600       822
    55.2800       792
    55.3000       866
    55.3200       786
    55.3400       850
    55.3600       826
    55.3800       758
    55.4000       748
    55.4200       740
    55.4400       764
    55.4600       712
    55.4800       698
    55.5000       716
    55.5200       640
    55.5400       638
    55.5600       610
    55.5800       614
    55.6000       612
    55.6200       570
    55.6400       566
    55.6600       536
    55.6800       536
    55.7000       510
    55.7200       468
    55.7400       452
    55.7600       490
    55.7800       430
    55.8000       418
    55.8200       426
    55.8400       420
    55.8600       420
    55.8800       364
    55.9000       412
    55.9200       394
    55.9400       382
    55.9600       388
    55.9800       394
    56.0000       350
    56.0200       336
    56.0400       356
    56.0600       358
    56.0800       378
    56.1000       372
    56.1200       426
    56.1400       366
    56.1600       396
    56.1800       418
    56.2000       420
    56.2200       392
    56.2400       364
    56.2600       340
    56.2800       374
    56.3000       400
    56.3200       348
    56.3400       412
    56.3600       396
    56.3800       398
    56.4000       398
    56.4200       398
    56.4400       418
    56.4600       398
    56.4800       408
    56.5000       402
    56.5200       448
    56.5400       468
    56.5600       422
    56.5800       424
    56.6000       486
    56.6200       472
    56.6400       532
    56.6600       532
    56.6800       512
    56.7000       574
    56.7200       594
    56.7400       598
    56.7600       610
    56.7800       696
    56.8000       714
    56.8200       708
    56.8400       666
    56.8600       796
    56.8800       796
    56.9000       786
    56.9200       748
    56.9400       782
    56.9600       808
    56.9800       788
    57.0000       752
    57.0200       786
    57.0400       780
    57.0600       798
    57.0800       736
    57.1000       776
    57.1200       736
    57.1400       756
    57.1600       802
    57.1800       852
    57.2000       816
    57.2200       794
    57.2400       910
    57.2600       930
    57.2800       960
    57.3000      1064
    57.3200      1082
    57.3400      1052
    57.3600      1162
    57.3800      1246
    57.4000      1110
    57.4200      1184
    57.4400      1200
    57.4600      1172
    57.4800      1172
    57.5000      1114
    57.5200      1110
    57.5400      1130
    57.5600      1074
    57.5800      1144
    57.6000      1086
    57.6200      1042
    57.6400      1114
    57.6600      1154
    57.6800      1192
    57.7000      1162
    57.7200      1176
    57.7400      1170
    57.7600      1162
    57.7800      1088
    57.8000      1118
    57.8200      1074
    57.8400      1012
    57.8600      1018
    57.8800      1084
    57.9000       974
    57.9200       954
    57.9400       984
    57.9600       948
    57.9800       872
    58.0000       868
    58.0200       840
    58.0400       760
    58.0600       780
    58.0800       780
    58.1000       768
    58.1200       796
    58.1400       724
    58.1600       774
    58.1800       792
    58.2000       822
    58.2200       788
    58.2400       860
    58.2600       856
    58.2800       888
    58.3000      1020
    58.3200      1036
    58.3400      1082
    58.3600      1124
    58.3800      1116
    58.4000      1162
    58.4200      1314
    58.4400      1318
    58.4600      1326
    58.4800      1370
    58.5000      1580
    58.5200      1562
    58.5400      1666
    58.5600      1662
    58.5800      1712
    58.6000      1812
    58.6200      1854
    58.6400      1886
    58.6600      1986
    58.6800      2054
    58.7000      2102
    58.7200      2114
    58.7400      2054
    58.7600      2152
    58.7800      2102
    58.8000      2058
    58.8200      2026
    58.8400      1970
    58.8600      1938
    58.8800      1824
    58.9000      1742
    58.9200      1692
    58.9400      1686
    58.9600      1558
    58.9800      1536
    59.0000      1390
    59.0200      1352
    59.0400      1342
    59.0600      1274
    59.0800      1246
    59.1000      1262
    59.1200      1178
    59.1400      1234
    59.1600      1270
    59.1800      1196
    59.2000      1258
    59.2200      1262
    59.2400      1346
    59.2600      1332
    59.2800      1398
    59.3000      1460
    59.3200      1582
    59.3400      1600
    59.3600      1718
    59.3800      1758
    59.4000      1848
    59.4200      1818
    59.4400      1860
    59.4600      1826
    59.4800      1762
    59.5000      1822
    59.5200      1814
    59.5400      1778
    59.5600      1694
    59.5800      1654
    59.6000      1576
    59.6200      1506
    59.6400      1460
    59.6600      1444
    59.6800      1430
    59.7000      1310
    59.7200      1262
    59.7400      1246
    59.7600      1126
    59.7800      1174
    59.8000      1124
    59.8200      1086
    59.8400       976
    59.8600       930
    59.8800       836
    59.9000       850
    59.9200       852
    59.9400       794
    59.9600       800
    59.9800       766
    60.0000       738
    60.0200       818
    60.0400       704
    60.0600       714
    60.0800       662
    60.1000       692
    60.1200       628
    60.1400       612
    60.1600       592
    60.1800       616
    60.2000       548
    60.2200       512
    60.2400       546
    60.2600       578
    60.2800       498
    60.3000       536
    60.3200       502
    60.3400       508
    60.3600       496
    60.3800       484
    60.4000       468
    60.4200       450
    60.4400       466
    60.4600       442
    60.4800       442
    60.5000       460
    60.5200       432
    60.5400       440
    60.5600       444
    60.5800       454
    60.6000       448
    60.6200       462
    60.6400       450
    60.6600       418
    60.6800       446
    60.7000       454
    60.7200       460
    60.7400       468
    60.7600       452
    60.7800       418
    60.8000       474
    60.8200       452
    60.8400       458
    60.8600       492
    60.8800       520
    60.9000       510
    60.9200       530
    60.9400       506
    60.9600       520
    60.9800       518
    61.0000       506
    61.0200       548
    61.0400       586
    61.0600       614
    61.0800       634
    61.1000       644
    61.1200       676
    61.1400       676
    61.1600       652
    61.1800       732
    61.2000       704
    61.2200       710
    61.2400       750
    61.2600       786
    61.2800       734
    61.3000       722
    61.3200       844
    61.3400       862
    61.3600       890
    61.3800       890
    61.4000       944
    61.4200       970
    61.4400       978
    61.4600      1036
    61.4800      1114
    61.5000      1120
    61.5200      1216
    61.5400      1204
    61.5600      1356
    61.5800      1302
    61.6000      1366
    61.6200      1384
    61.6400      1474
    61.6600      1456
    61.6800      1494
    61.7000      1558
    61.7200      1504
    61.7400      1470
    61.7600      1502
    61.7800      1454
    61.8000      1372
    61.8200      1304
    61.8400      1312
    61.8600      1330
    61.8800      1228
    61.9000      1174
    61.9200      1138
    61.9400      1056
    61.9600      1042
    61.9800       976
    62.0000       962
    62.0200       940
    62.0400       880
    62.0600       840
    62.0800       748
    62.1000       784
    62.1200       770
    62.1400       680
    62.1600       700
    62.1800       630
    62.2000       694
    62.2200       658
    62.2400       614
    62.2600       604
    62.2800       606
    62.3000       576
    62.3200       584
    62.3400       540
    62.3600       544
    62.3800       526
    62.4000       480
    62.4200       522
    62.4400       446
    62.4600       516
    62.4800       456
    62.5000       454
    62.5200       462
    62.5400       446
    62.5600       428
    62.5800       462
    62.6000       438
    62.6200       428
    62.6400       406
    62.6600       414
    62.6800       428
    62.7000       404
    62.7200       430
    62.7400       402
    62.7600       414
    62.7800       410
    62.8000       420
    62.8200       410
    62.8400       376
    62.8600       370
    62.8800       374
    62.9000       388
    62.9200       368
    62.9400       342
    62.9600       396
    62.9800       356
    63.0000       360
    63.0200       340
    63.0400       336
    63.0600       340
    63.0800       356
    63.1000       356
    63.1200       356
    63.1400       318
    63.1600       292
    63.1800       342
    63.2000       318
    63.2200       336
    63.2400       310
    63.2600       324
    63.2800       326
    63.3000       334
    63.3200       322
    63.3400       340
    63.3600       346
    63.3800       332
    63.4000       338
    63.4200       374
    63.4400       338
    63.4600       334
    63.4800       372
    63.5000       374
    63.5200       374
    63.5400       370
    63.5600       394
    63.5800       456
    63.6000       408
    63.6200       420
    63.6400       452
    63.6600       468
    63.6800       502
    63.7000       544
    63.7200       532
    63.7400       596
    63.7600       622
    63.7800       588
    63.8000       630
    63.8200       676
    63.8400       680
    63.8600       724
    63.8800       738
    63.9000       756
    63.9200       804
    63.9400       802
    63.9600       868
    63.9800       822
    64.0000       816
    64.0200       806
    64.0400       792
    64.0600       712
    64.0800       760
    64.1000       710
    64.1200       680
    64.1400       688
    64.1600       646
    64.1800       634
    64.2000       604
    64.2200       552
    64.2400       584
    64.2600       478
    64.2800       486
    64.3000       492
    64.3200       472
    64.3400       466
    64.3600       444
    64.3800       398
    64.4000       424
    64.4200       392
    64.4400       394
    64.4600       370
    64.4800       364
    64.5000       298
    64.5200       328
    64.5400       326
    64.5600       318
    64.5800       338
    64.6000       326
    64.6200       336
    64.6400       330
    64.6600       292
    64.6800       326
    64.7000       316
    64.7200       292
    64.7400       294
    64.7600       288
    64.7800       296
    64.8000       272
    64.8200       280
    64.8400       308
    64.8600       302
    64.8800       308
    64.9000       314
    64.9200       300
    64.9400       312
    64.9600       336
    64.9800       340
    65.0000       334
    65.0200       314
    65.0400       366
    65.0600       344
    65.0800       362
    65.1000       292
    65.1200       336
    65.1400       348
    65.1600       392
    65.1800       390
    65.2000       406
    65.2200       360
    65.2400       392
    65.2600       438
    65.2800       420
    65.3000       406
    65.3200       480
    65.3400       458
    65.3600       420
    65.3800       446
    65.4000       410
    65.4200       420
    65.4400       416
    65.4600       422
    65.4800       422
    65.5000       432
    65.5200       348
    65.5400       380
    65.5600       404
    65.5800       400
    65.6000       380
    65.6200       408
    65.6400       388
    65.6600       386
    65.6800       368
    65.7000       382
    65.7200       384
    65.7400       354
    65.7600       394
    65.7800       352
    65.8000       360
    65.8200       364
    65.8400       340
    65.8600       334
    65.8800       300
    65.9000       362
    65.9200       330
    65.9400       334
    65.9600       288
    65.9800       318
    66.0000       298
    66.0200       296
    66.0400       312
    66.0600       298
    66.0800       318
    66.1000       272
    66.1200       290
    66.1400       294
    66.1600       296
    66.1800       280
    66.2000       282
    66.2200       280
    66.2400       294
    66.2600       306
    66.2800       322
    66.3000       324
    66.3200       316
    66.3400       310
    66.3600       302
    66.3800       306
    66.4000       320
    66.4200       332
    66.4400       354
    66.4600       362
    66.4800       382
    66.5000       366
    66.5200       352
    66.5400       370
    66.5600       372
    66.5800       402
    66.6000       420
    66.6200       430
    66.6400       402
    66.6600       432
    66.6800       490
    66.7000       454
    66.7200       504
    66.7400       474
    66.7600       520
    66.7800       530
    66.8000       564
    66.8200       560
    66.8400       602
    66.8600       648
    66.8800       596
    66.9000       636
    66.9200       656
    66.9400       622
    66.9600       680
    66.9800       620
    67.0000       648
    67.0200       590
    67.0400       664
    67.0600       620
    67.0800       616
    67.1000       624
    67.1200       606
    67.1400       598
    67.1600       566
    67.1800       560
    67.2000       564
    67.2200       564
    67.2400       516
    67.2600       514
    67.2800       474
    67.3000       524
    67.3200       492
    67.3400       434
    67.3600       488
    67.3800       400
    67.4000       440
    67.4200       428
    67.4400       376
    67.4600       362
    67.4800       366
    67.5000       412
    67.5200       378
    67.5400       368
    67.5600       360
    67.5800       376
    67.6000       348
    67.6200       394
    67.6400       376
    67.6600       368
    67.6800       356
    67.7000       372
    67.7200       354
    67.7400       426
    67.7600       380
    67.7800       412
    67.8000       414
    67.8200       414
    67.8400       416
    67.8600       476
    67.8800       486
    67.9000       518
    67.9200       532
    67.9400       496
    67.9600       540
    67.9800       550
    68.0000       588
    68.0200       668
    68.0400       658
    68.0600       708
    68.0800       720
    68.1000       748
    68.1200       736
    68.1400       760
    68.1600       762
    68.1800       828
    68.2000       802
    68.2200       774
    68.2400       812
    68.2600       832
    68.2800       798
    68.3000       754
    68.3200       772
    68.3400       762
    68.3600       712
    68.3800       684
    68.4000       706
    68.4200       682
    68.4400       606
    68.4600       628
    68.4800       584
    68.5000       620
    68.5200       556
    68.5400       544
    68.5600       542
    68.5800       546
    68.6000       474
    68.6200       526
    68.6400       492
    68.6600       468
    68.6800       508
    68.7000       470
    68.7200       432
    68.7400       426
    68.7600       424
    68.7800       446
    68.8000       416
    68.8200       444
    68.8400       460
    68.8600       426
    68.8800       378
    68.9000       416
    68.9200       396
    68.9400       408
    68.9600       404
    68.9800       408
    69.0000       410
    69.0200       422
    69.0400       442
    69.0600       424
    69.0800       414
    69.1000       460
    69.1200       406
    69.1400       424
    69.1600       388
    69.1800       458
    69.2000       412
    69.2200       456
    69.2400       472
    69.2600       416
    69.2800       474
    69.3000       460
    69.3200       542
    69.3400       496
    69.3600       516
    69.3800       524
    69.4000       500
    69.4200       504
    69.4400       514
    69.4600       500
    69.4800       508
    69.5000       510
    69.5200       466
    69.5400       478
    69.5600       484
    69.5800       450
    69.6000       520
    69.6200       412
    69.6400       460
    69.6600       500
    69.6800       438
    69.7000       452
    69.7200       406
    69.7400       402
    69.7600       396
    69.7800       472
    69.8000       434
    69.8200       432
    69.8400       444
    69.8600       414
    69.8800       446
    69.9000       440
    69.9200       406
    69.9400       456
    69.9600       444
    69.9800       444
    70.0000       474
    70.0200       446
    70.0400       416
    70.0600       422
    70.0800       402
    70.1000       404
    70.1200       394
    70.1400       386
    70.1600       396
    70.1800       390
    70.2000       366
    70.2200       364
    70.2400       358
    70.2600       340
    70.2800       340
    70.3000       368
    70.3200       328
    70.3400       330
    70.3600       346
    70.3800       312
    70.4000       316
    70.4200       284
    70.4400       314
    70.4600       300
    70.4800       332
    70.5000       294
    70.5200       262
    70.5400       296
    70.5600       304
    70.5800       304
    70.6000       298
    70.6200       276
    70.6400       318
    70.6600       262
    70.6800       272
    70.7000       302
    70.7200       284
    70.7400       278
    70.7600       302
    70.7800       268
    70.8000       282
    70.8200       268
    70.8400       274
    70.8600       270
    70.8800       258
    70.9000       258
    70.9200       258
    70.9400       266
    70.9600       290
    70.9800       274
    71.0000       250
    71.0200       256
    71.0400       260
    71.0600       256
    71.0800       290
    71.1000       248
    71.1200       254
    71.1400       280
    71.1600       306
    71.1800       290
    71.2000       280
    71.2200       314
    71.2400       304
    71.2600       350
    71.2800       306
    71.3000       360
    71.3200       360
    71.3400       414
    71.3600       382
    71.3800       376
    71.4000       418
    71.4200       408
    71.4400       432
    71.4600       440
    71.4800       452
    71.5000       456
    71.5200       472
    71.5400       494
    71.5600       450
    71.5800       480
    71.6000       484
    71.6200       482
    71.6400       490
    71.6600       496
    71.6800       508
    71.7000       478
    71.7200       472
    71.7400       478
    71.7600       478
    71.7800       494
    71.8000       448
    71.8200       448
    71.8400       440
    71.8600       464
    71.8800       448
    71.9000       466
    71.9200       468
    71.9400       474
    71.9600       452
    71.9800       422
    72.0000       390
    72.0200       426
    72.0400       386
    72.0600       386
    72.0800       394
    72.1000       392
    72.1200       382
    72.1400       406
    72.1600       438
    72.1800       422
    72.2000       468
    72.2200       480
    72.2400       436
    72.2600       456
    72.2800       474
    72.3000       480
    72.3200       492
    72.3400       502
    72.3600       498
    72.3800       506
    72.4000       506
    72.4200       482
    72.4400       516
    72.4600       522
    72.4800       516
    72.5000       546
    72.5200       554
    72.5400       534
    72.5600       562
    72.5800       506
    72.6000       576
    72.6200       574
    72.6400       596
    72.6600       628
    72.6800       594
    72.7000       588
    72.7200       562
    72.7400       562
    72.7600       588
    72.7800       580
    72.8000       554
    72.8200       602
    72.8400       560
    72.8600       548
    72.8800       554
    72.9000       510
    72.9200       586
    72.9400       496
    72.9600       500
    72.9800       544
    73.0000       496
    73.0200       468
    73.0400       496
    73.0600       502
    73.0800       466
    73.1000       446
    73.1200       460
    73.1400       456
    73.1600       404
    73.1800       400
    73.2000       390
    73.2200       400
    73.2400       372
    73.2600       406
    73.2800       370
    73.3000       364
    73.3200       358
    73.3400       316
    73.3600       322
    73.3800       300
    73.4000       336
    73.4200       332
    73.4400       322
    73.4600       314
    73.4800       290
    73.5000       290
    73.5200       314
    73.5400       314
    73.5600       292
    73.5800       294
    73.6000       296
    73.6200       284
    73.6400       290
    73.6600       276
    73.6800       290
    73.7000       310
    73.7200       286
    73.7400       258
    73.7600       282
    73.7800       282
    73.8000       282
    73.8200       270
    73.8400       284
    73.8600       266
    73.8800       250
    73.9000       254
    73.9200       276
    73.9400       284
    73.9600       260
    73.9800       300
    74.0000       286
    74.0200       278
    74.0400       294
    74.0600       296
    74.0800       274
    74.1000       288
    74.1200       314
    74.1400       274
    74.1600       294
    74.1800       292
    74.2000       282
    74.2200       286
    74.2400       254
    74.2600       284
    74.2800       270
    74.3000       258
    74.3200       274
    74.3400       264
    74.3600       238
    74.3800       248
    74.4000       248
    74.4200       248
    74.4400       246
    74.4600       272
    74.4800       240
    74.5000       214
    74.5200       224
    74.5400       210
    74.5600       224
    74.5800       218
    74.6000       216
    74.6200       220
    74.6400       226
    74.6600       228
    74.6800       216
    74.7000       206
    74.7200       202
    74.7400       236
    74.7600       226
    74.7800       220
    74.8000       190
    74.8200       218
    74.8400       220
    74.8600       222
    74.8800       250
    74.9000       216
    74.9200       226
    74.9400       192
    74.9600       238
    74.9800       222
    75.0000       216
    75.0200       248
    75.0400       220
    75.0600       264
    75.0800       242
    75.1000       238
    75.1200       240
    75.1400       252
    75.1600       240
    75.1800       256
    75.2000       234
    75.2200       228
    75.2400       240
    75.2600       262
    75.2800       264
    75.3000       260
    75.3200       244
    75.3400       286
    75.3600       262
    75.3800       246
    75.4000       252
    75.4200       248
    75.4400       246
    75.4600       254
    75.4800       286
    75.5000       294
    75.5200       264
    75.5400       260
    75.5600       252
    75.5800       282
    75.6000       302
    75.6200       280
    75.6400       298
    75.6600       258
    75.6800       292
    75.7000       308
    75.7200       278
    75.7400       300
    75.7600       300
    75.7800       276
    75.8000       294
    75.8200       284
    75.8400       276
    75.8600       252
    75.8800       270
    75.9000       278
    75.9200       298
    75.9400       272
    75.9600       294
    75.9800       280
    76.0000       264
    76.0200       308
    76.0400       280
    76.0600       292
    76.0800       310
    76.1000       284
    76.1200       290
    76.1400       314
    76.1600       296
    76.1800       324
    76.2000       296
    76.2200       308
    76.2400       312
    76.2600       306
    76.2800       304
    76.3000       332
    76.3200       342
    76.3400       318
    76.3600       342
    76.3800       336
    76.4000       344
    76.4200       318
    76.4400       366
    76.4600       362
    76.4800       356
    76.5000       360
    76.5200       388
    76.5400       352
    76.5600       374
    76.5800       390
    76.6000       370
    76.6200       412
    76.6400       382
    76.6600       384
    76.6800       412
    76.7000       424
    76.7200       374
    76.7400       404
    76.7600       422
    76.7800       398
    76.8000       444
    76.8200       394
    76.8400       406
    76.8600       410
    76.8800       422
    76.9000       400
    76.9200       388
    76.9400       398
    76.9600       404
    76.9800       388
    77.0000       348
    77.0200       396
    77.0400       350
    77.0600       390
    77.0800       422
    77.1000       366
    77.1200       382
    77.1400       370
    77.1600       362
    77.1800       370
    77.2000       444
    77.2200       410
    77.2400       408
    77.2600       414
    77.2800       410
    77.3000       434
    77.3200       446
    77.3400       484
    77.3600       470
    77.3800       436
    77.4000       492
    77.4200       520
    77.4400       482
    77.4600       500
    77.4800       508
    77.5000       512
    77.5200       538
    77.5400       550
    77.5600       560
    77.5800       608
    77.6000       606
    77.6200       592
    77.6400       646
    77.6600       632
    77.6800       608
    77.7000       612
    77.7200       572
    77.7400       618
    77.7600       618
    77.7800       564
    77.8000       542
    77.8200       576
    77.8400       570
    77.8600       524
    77.8800       530
    77.9000       518
    77.9200       496
    77.9400       526
    77.9600       492
    77.9800       452
    78.0000       468
    78.0200       462
    78.0400       392
    78.0600       438
    78.0800       424
    78.1000       432
    78.1200       440
    78.1400       362
    78.1600       364
    78.1800       366
    78.2000       344
    78.2200       392
    78.2400       402
    78.2600       412
    78.2800       358
    78.3000       320
    78.3200       330
    78.3400       352
    78.3600       338
    78.3800       378
    78.4000       376
    78.4200       356
    78.4400       376
    78.4600       368
    78.4800       362
    78.5000       386
    78.5200       394
    78.5400       424
    78.5600       390
    78.5800       376
    78.6000       408
    78.6200       404
    78.6400       394
    78.6600       432
    78.6800       402
    78.7000       424
    78.7200       410
    78.7400       406
    78.7600       416
    78.7800       398
    78.8000       432
    78.8200       426
    78.8400       408
    78.8600       402
    78.8800       404
    78.9000       382
    78.9200       358
    78.9400       358
    78.9600       364
    78.9800       346
    79.0000       366
    79.0200       344
    79.0400       358
    79.0600       292
    79.0800       320
    79.1000       296
    79.1200       296
    79.1400       330
    79.1600       316
    79.1800       292
    79.2000       312
    79.2200       326
    79.2400       266
    79.2600       282
    79.2800       290
    79.3000       282
    79.3200       286
    79.3400       282
    79.3600       292
    79.3800       314
    79.4000       294
    79.4200       306
    79.4400       320
    79.4600       274
    79.4800       258
    79.5000       238
    79.5200       262
    79.5400       300
    79.5600       280
    79.5800       270
    79.6000       314
    79.6200       268
    79.6400       292
    79.6600       290
    79.6800       292
    79.7000       276
    79.7200       272
    79.7400       292
    79.7600       272
    79.7800       298
    79.8000       292
    79.8200       266
    79.8400       254
    79.8600       306
    79.8800       290
    79.9000       264
    79.9200       246
    79.9400       268
    79.9600       302
    79.9800       292
    80.0000       258
    80.0200       250
    80.0400       248
    80.0600       246
    80.0800       280
    80.1000       280
    80.1200       272
    80.1400       272
    80.1600       250
    80.1800       252
    80.2000       274
    80.2200       276
    80.2400       276
    80.2600       262
    80.2800       286
    80.3000       300
    80.3200       272
    80.3400       254
    80.3600       258
    80.3800       268
    80.4000       278
    80.4200       268
    80.4400       272
    80.4600       272
    80.4800       282
    80.5000       286
    80.5200       282
    80.5400       278
    80.5600       274
    80.5800       254
    80.6000       258
    80.6200       260
    80.6400       270
    80.6600       268
    80.6800       256
    80.7000       254
    80.7200       282
    80.7400       270
    80.7600       266
    80.7800       260
    80.8000       250
    80.8200       246
    80.8400       280
    80.8600       236
    80.8800       236
    80.9000       240
    80.9200       218
    80.9400       238
    80.9600       226
    80.9800       252
    81.0000       254
    81.0200       232
    81.0400       254
    81.0600       252
    81.0800       270
    81.1000       246
    81.1200       246
    81.1400       260
    81.1600       236
    81.1800       232
    81.2000       254
    81.2200       284
    81.2400       262
    81.2600       262
    81.2800       270
    81.3000       234
    81.3200       274
    81.3400       278
    81.3600       310
    81.3800       282
    81.4000       270
    81.4200       258
    81.4400       278
    81.4600       280
    81.4800       256
    81.5000       304
    81.5200       298
    81.5400       268
    81.5600       294
    81.5800       306
    81.6000       254
    81.6200       302
    81.6400       268
    81.6600       270
    81.6800       286
    81.7000       292
    81.7200       272
    81.7400       300
    81.7600       282
    81.7800       292
    81.8000       310
    81.8200       308
    81.8400       284
    81.8600       330
    81.8800       308
    81.9000       340
    81.9200       328
    81.9400       330
    81.9600       324
    81.9800       354
    82.0000       308
    82.0200       318
    82.0400       338
    82.0600       344
    82.0800       348
    82.1000       350
    82.1200       356
    82.1400       382
    82.1600       388
    82.1800       388
    82.2000       376
    82.2200       406
    82.2400       372
    82.2600       394
    82.2800       406
    82.3000       376
    82.3200       418
    82.3400       390
    82.3600       412
    82.3800       454
    82.4000       456
    82.4200       472
    82.4400       468
    82.4600       494
    82.4800       506
    82.5000       480
    82.5200       474
    82.5400       474
    82.5600       478
    82.5800       510
    82.6000       534
    82.6200       534
    82.6400       494
    82.6600       606
    82.6800       592
    82.7000       578
    82.7200       620
    82.7400       608
    82.7600       650
    82.7800       660
    82.8000       670
    82.8200       726
    82.8400       732
    82.8600       760
    82.8800       722
    82.9000       776
    82.9200       782
    82.9400       734
    82.9600       728
    82.9800       766
    83.0000       732
    83.0200       768
    83.0400       716
    83.0600       716
    83.0800       706
    83.1000       754
    83.1200       728
    83.1400       676
    83.1600       692
    83.1800       706
    83.2000       642
    83.2200       648
    83.2400       686
    83.2600       600
    83.2800       670
    83.3000       628
    83.3200       554
    83.3400       590
    83.3600       558
    83.3800       514
    83.4000       528
    83.4200       478
    83.4400       510
    83.4600       482
    83.4800       432
    83.5000       454
    83.5200       436
    83.5400       448
    83.5600       428
    83.5800       398
    83.6000       426
    83.6200       360
    83.6400       388
    83.6600       404
    83.6800       362
    83.7000       358
    83.7200       362
    83.7400       410
    83.7600       338
    83.7800       362
    83.8000       350
    83.8200       356
    83.8400       386
    83.8600       356
    83.8800       344
    83.9000       370
    83.9200       348
    83.9400       360
    83.9600       344
    83.9800       316
    84.0000       360
    84.0200       340
    84.0400       312
    84.0600       352
    84.0800       326
    84.1000       334
    84.1200       372
    84.1400       322
    84.1600       332
    84.1800       324
    84.2000       328
    84.2200       328
    84.2400       324
    84.2600       310
    84.2800       314
    84.3000       328
    84.3200       344
    84.3400       336
    84.3600       360
    84.3800       308
    84.4000       318
    84.4200       306
    84.4400       330
    84.4600       296
    84.4800       316
    84.5000       328
    84.5200       286
    84.5400       294
    84.5600       298
    84.5800       316
    84.6000       324
    84.6200       300
    84.6400       312
    84.6600       316
    84.6800       332
    84.7000       316
    84.7200       262
    84.7400       294
    84.7600       296
    84.7800       316
    84.8000       318
    84.8200       292
    84.8400       284
    84.8600       314
    84.8800       330
    84.9000       304
    84.9200       276
    84.9400       298
    84.9600       304
    84.9800       304
    85.0000       266
    85.0200       308
    85.0400       304
    85.0600       320
    85.0800       312
    85.1000       276
    85.1200       296
    85.1400       316
    85.1600       304
    85.1800       296
    85.2000       300
    85.2200       290
    85.2400       308
    85.2600       282
    85.2800       278
    85.3000       336
    85.3200       296
    85.3400       306
    85.3600       282
    85.3800       320
    85.4000       286
    85.4200       320
    85.4400       320
    85.4600       336
    85.4800       334
    85.5000       316
    85.5200       294
    85.5400       314
    85.5600       290
    85.5800       304
    85.6000       326
    85.6200       318
    85.6400       280
    85.6600       272
    85.6800       276
    85.7000       304
    85.7200       260
    85.7400       324
    85.7600       272
    85.7800       248
    85.8000       286
    85.8200       276
    85.8400       274
    85.8600       288
    85.8800       256
    85.9000       264
    85.9200       296
    85.9400       278
    85.9600       306
    85.9800       262
    86.0000       250
    86.0200       280
    86.0400       276
    86.0600       274
    86.0800       264
    86.1000       270
    86.1200       256
    86.1400       266
    86.1600       280
    86.1800       216
    86.2000       252
    86.2200       260
    86.2400       276
    86.2600       286
    86.2800       262
    86.3000       254
    86.3200       266
    86.3400       248
    86.3600       246
    86.3800       278
    86.4000       270
    86.4200       282
    86.4400       274
    86.4600       286
    86.4800       280
    86.5000       276
    86.5200       266
    86.5400       268
    86.5600       320
    86.5800       272
    86.6000       300
    86.6200       300
    86.6400       274
    86.6600       356
    86.6800       284
    86.7000       346
    86.7200       342
    86.7400       292
    86.7600       302
    86.7800       346
    86.8000       362
    86.8200       332
    86.8400       352
    86.8600       366
    86.8800       408
    86.9000       408
    86.9200       388
    86.9400       398
    86.9600       410
    86.9800       404
    87.0000       380
    87.0200       426
    87.0400       372
    87.0600       392
    87.0800       370
    87.1000       362
    87.1200       402
    87.1400       400
    87.1600       402
    87.1800       378
    87.2000       352
    87.2200       364
    87.2400       368
    87.2600       364
    87.2800       352
    87.3000       340
    87.3200       326
    87.3400       344
    87.3600       342
    87.3800       330
    87.4000       332
    87.4200       326
    87.4400       338
    87.4600       352
    87.4800       384
    87.5000       348
    87.5200       348
    87.5400       324
    87.5600       360
    87.5800       336
    87.6000       376
    87.6200       380
    87.6400       366
    87.6600       392
    87.6800       366
    87.7000       382
    87.7200       396
    87.7400       364
    87.7600       406
    87.7800       428
    87.8000       440
    87.8200       436
    87.8400       450
    87.8600       372
    87.8800       392
    87.9000       430
    87.9200       424
    87.9400       464
    87.9600       482
    87.9800       444
    88.0000       430
    88.0200       450
    88.0400       430
    88.0600       400
    88.0800       424
    88.1000       444
    88.1200       422
    88.1400       416
    88.1600       400
    88.1800       424
    88.2000       422
    88.2200       406
    88.2400       474
    88.2600       428
    88.2800       418
    88.3000       416
    88.3200       386
    88.3400       396
    88.3600       446
    88.3800       378
    88.4000       354
    88.4200       372
    88.4400       354
    88.4600       346
    88.4800       390
    88.5000       370
    88.5200       362
    88.5400       366
    88.5600       346
    88.5800       342
    88.6000       344
    88.6200       348
    88.6400       320
    88.6600       334
    88.6800       376
    88.7000       332
    88.7200       318
    88.7400       338
    88.7600       320
    88.7800       310
    88.8000       294
    88.8200       328
    88.8400       266
    88.8600       302
    88.8800       290
    88.9000       336
    88.9200       296
    88.9400       288
    88.9600       278
    88.9800       302
    89.0000       304
    89.0200       290
    89.0400       306
    89.0600       282
    89.0800       306
    89.1000       252
    89.1200       268
    89.1400       304
    89.1600       296
    89.1800       246
    89.2000       280
    89.2200       278
    89.2400       274
    89.2600       290
    89.2800       280
    89.3000       258
    89.3200       270
    89.3400       300
    89.3600       246
    89.3800       290
    89.4000       280
    89.4200       260
    89.4400       296
    89.4600       274
    89.4800       274
    89.5000       288
    89.5200       268
    89.5400       290
    89.5600       298
    89.5800       290
    89.6000       280
    89.6200       286
    89.6400       280
    89.6600       304
    89.6800       256
    89.7000       306
    89.7200       298
    89.7400       282
    89.7600       296
    89.7800       322
    89.8000       318
    89.8200       314
    89.8400       298
    89.8600       318
    89.8800       310
    89.9000       340
    89.9200       276
    89.9400       324
    89.9600       316
    89.9800       328
    90.0000       300
