    10.0000       358
    10.0200       392
    10.0400       378
    10.0600       432
    10.0800       388
    10.1000       416
    10.1200       386
    10.1400       388
    10.1600       390
    10.1800       360
    10.2000       346
    10.2200       376
    10.2400       340
    10.2600       332
    10.2800       336
    10.3000       376
    10.3200       344
    10.3400       310
    10.3600       312
    10.3800       338
    10.4000       320
    10.4200       350
    10.4400       318
    10.4600       322
    10.4800       348
    10.5000       336
    10.5200       344
    10.5400       358
    10.5600       306
    10.5800       330
    10.6000       332
    10.6200       338
    10.6400       346
    10.6600       326
    10.6800       314
    10.7000       306
    10.7200       312
    10.7400       354
    10.7600       312
    10.7800       334
    10.8000       358
    10.8200       310
    10.8400       352
    10.8600       332
    10.8800       334
    10.9000       342
    10.9200       318
    10.9400       298
    10.9600       324
    10.9800       294
    11.0000       282
    11.0200       314
    11.0400       310
    11.0600       328
    11.0800       312
    11.1000       340
    11.1200       300
    11.1400       332
    11.1600       326
    11.1800       316
    11.2000       338
    11.2200       286
    11.2400       290
    11.2600       296
    11.2800       342
    11.3000       326
    11.3200       318
    11.3400       264
    11.3600       362
    11.3800       272
    11.4000       314
    11.4200       294
    11.4400       292
    11.4600       316
    11.4800       316
    11.5000       282
    11.5200       310
    11.5400       304
    11.5600       298
    11.5800       312
    11.6000       344
    11.6200       312
    11.6400       320
    11.6600       304
    11.6800       308
    11.7000       310
    11.7200       304
    11.7400       342
    11.7600       310
    11.7800       320
    11.8000       318
    11.8200       306
    11.8400       298
    11.8600       288
    11.8800       356
    11.9000       308
    11.9200       292
    11.9400       342
    11.9600       328
    11.9800       324
    12.0000       344
    12.0200       314
    12.0400       326
    12.0600       338
    12.0800       302
    12.1000       342
    12.1200       378
    12.1400       348
    12.1600       334
    12.1800       356
    12.2000       376
    12.2200       356
    12.2400       338
    12.2600       362
    12.2800       324
    12.3000       342
    12.3200       324
    12.3400       320
    12.3600       274
    12.3800       266
    12.4000       290
    12.4200       306
    12.4400       270
    12.4600       332
    12.4800       276
    12.5000       308
    12.5200       270
    12.5400       258
    12.5600       292
    12.5800       324
    12.6000       290
    12.6200       276
    12.6400       250
    12.6600       278
    12.6800       260
    12.7000       296
    12.7200       270
    12.7400       246
    12.7600       272
    12.7800       260
    12.8000       276
    12.8200       248
    12.8400       278
    12.8600       262
    12.8800       248
    12.9000       244
    12.9200       280
    12.9400       266
    12.9600       254
    12.9800       288
    13.0000       256
    13.0200       252
    13.0400       264
    13.0600       262
    13.0800       274
    13.1000       254
    13.1200       282
    13.1400       276
    13.1600       282
    13.1800       246
    13.2000       258
    13.2200       262
    13.2400       272
    13.2600       282
    13.2800       282
    13.3000       246
    13.3200       248
    13.3400       262
    13.3600       250
    13.3800       256
    13.4000       232
    13.4200       286
    13.4400       268
    13.4600       244
    13.4800       246
    13.5000       264
    13.5200       256
    13.5400       236
    13.5600       252
    13.5800       268
    13.6000       272
    13.6200       278
    13.6400       262
    13.6600       226
    13.6800       248
    13.7000       252
    13.7200       222
    13.7400       230
    13.7600       274
    13.7800       214
    13.8000       240
    13.8200       238
    13.8400       262
    13.8600       258
    13.8800       256
    13.9000       250
    13.9200       260
    13.9400       246
    13.9600       240
    13.9800       252
    14.0000       236
    14.0200       246
    14.0400       244
    14.0600       228
    14.0800       242
    14.1000       230
    14.1200       226
    14.1400       260
    14.1600       242
    14.1800       252
    14.2000       244
    14.2200       236
    14.2400       244
    14.2600       226
    14.2800       234
    14.3000       246
    14.3200       224
    14.3400       256
    14.3600       258
    14.3800       238
    14.4000       248
    14.4200       220
    14.4400       216
    14.4600       248
    14.4800       228
    14.5000       248
    14.5200       224
    14.5400       188
    14.5600       236
    14.5800       198
    14.6000       218
    14.6200       214
    14.6400       206
    14.6600       232
    14.6800       240
    14.7000       218
    14.7200       250
    14.7400       242
    14.7600       280
    14.7800       222
    14.8000       230
    14.8200       232
    14.8400       214
    14.8600       246
    14.8800       238
    14.9000       232
    14.9200       266
    14.9400       232
    14.9600       282
    14.9800       248
    15.0000       266
    15.0200       274
    15.0400       274
    15.0600       264
    15.0800       248
    15.1000       256
    15.1200       278
    15.1400       274
    15.1600       278
    15.1800       256
    15.2000       290
    15.2200       228
    15.2400       244
    15.2600       254
    15.2800       252
    15.3000       234
    15.3200       242
    15.3400       224
    15.3600       230
    15.3800       190
    15.4000       208
    15.4200       202
    15.4400       220
    15.4600       198
    15.4800       222
    15.5000       234
    15.5200       218
    15.5400       220
    15.5600       204
    15.5800       204
    15.6000       204
    15.6200       222
    15.6400       226
    15.6600       230
    15.6800       204
    15.7000       196
    15.7200       190
    15.7400       226
    15.7600       220
    15.7800       220
    15.8000       206
    15.8200       246
    15.8400       204
    15.8600       236
    15.8800       206
    15.9000       218
    15.9200       198
    15.9400       234
    15.9600       230
    15.9800       196
    16.0000       228
    16.0200       208
    16.0400       218
    16.0600       224
    16.0800       184
    16.1000       198
    16.1200       220
    16.1400       222
    16.1600       210
    16.1800       220
    16.2000       202
    16.2200       222
    16.2400       212
    16.2600       206
    16.2800       218
    16.3000       228
    16.3200       218
    16.3400       214
    16.3600       198
    16.3800       222
    16.4000       196
    16.4200       206
    16.4400       184
    16.4600       218
    16.4800       210
    16.5000       214
    16.5200       218
    16.5400       208
    16.5600       206
    16.5800       204
    16.6000       206
    16.6200       198
    16.6400       214
    16.6600       224
    16.6800       224
    16.7000       230
    16.7200       220
    16.7400       232
    16.7600       212
    16.7800       230
    16.8000       210
    16.8200       208
    16.8400       242
    16.8600       242
    16.8800       246
    16.9000       260
    16.9200       214
    16.9400       234
    16.9600       256
    16.9800       246
    17.0000       260
    17.0200       264
    17.0400       292
    17.0600       264
    17.0800       304
    17.1000       314
    17.1200       306
    17.1400       292
    17.1600       330
    17.1800       316
    17.2000       360
    17.2200       316
    17.2400       332
    17.2600       368
    17.2800       300
    17.3000       320
    17.3200       330
    17.3400       350
    17.3600       308
    17.3800       296
    17.4000       284
    17.4200       268
    17.4400       260
    17.4600       274
    17.4800       272
    17.5000       258
    17.5200       238
    17.5400       238
    17.5600       236
    17.5800       214
    17.6000       238
    17.6200       232
    17.6400       208
    17.6600       218
    17.6800       210
    17.7000       236
    17.7200       228
    17.7400       208
    17.7600       216
    17.7800       214
    17.8000       218
    17.8200       224
    17.8400       236
    17.8600       194
    17.8800       206
    17.9000       188
    17.9200       194
    17.9400       188
    17.9600       180
    17.9800       184
    18.0000       172
    18.0200       196
    18.0400       198
    18.0600       194
    18.0800       200
    18.1000       190
    18.1200       226
    18.1400       230
    18.1600       184
    18.1800       176
    18.2000       194
    18.2200       178
    18.2400       188
    18.2600       200
    18.2800       208
    18.3000       212
    18.3200       194
    18.3400       194
    18.3600       188
    18.3800       180
    18.4000       186
    18.4200       216
    18.4400       204
    18.4600       190
    18.4800       204
    18.5000       214
    18.5200       188
    18.5400       212
    18.5600       214
    18.5800       212
    18.6000       210
    18.6200       200
    18.6400       222
    18.6600       198
    18.6800       214
    18.7000       212
    18.7200       232
    18.7400       246
    18.7600       218
    18.7800       240
    18.8000       226
    18.8200       244
    18.8400       240
    18.8600       260
    18.8800       232
    18.9000       228
    18.9200       234
    18.9400       240
    18.9600       262
    18.9800       290
    19.0000       302
    19.0200       304
    19.0400       290
    19.0600       318
    19.0800       298
    19.1000       330
    19.1200       400
    19.1400       428
    19.1600       492
    19.1800       540
    19.2000       534
    19.2200       564
    19.2400       644
    19.2600       738
    19.2800       768
    19.3000       940
    19.3200      1034
    19.3400      1172
    19.3600      1364
    19.3800      1540
    19.4000      1802
    19.4200      2114
    19.4400      2458
    19.4600      2972
    19.4800      3376
    19.5000      3872
    19.5200      4224
    19.5400      4352
    19.5600      4208
    19.5800      3762
    19.6000      3146
    19.6200      2484
    19.6400      2042
    19.6600      1598
    19.6800      1352
    19.7000      1220
    19.7200      1170
    19.7400      1240
    19.7600      1188
    19.7800      1342
    19.8000      1394
    19.8200      1510
    19.8400      1726
    19.8600      1974
    19.8800      2208
    19.9000      2476
    19.9200      2802
    19.9400      3166
    19.9600      3366
    19.9800      3432
    20.0000      3312
    20.0200      3004
    20.0400      2598
    20.0600      2158
    20.0800      1660
    20.1000      1376
    20.1200      1060
    20.1400       804
    20.1600       754
    20.1800       682
    20.2000       634
    20.2200       584
    20.2400       574
    20.2600       586
    20.2800       558
    20.3000       566
    20.3200       544
    20.3400       522
    20.3600       508
    20.3800       480
    20.4000       434
    20.4200       416
    20.4400       414
    20.4600       366
    20.4800       324
    20.5000       304
    20.5200       292
    20.5400       258
    20.5600       286
    20.5800       226
    20.6000       234
    20.6200       240
    20.6400       242
    20.6600       206
    20.6800       228
    20.7000       222
    20.7200       238
    20.7400       200
    20.7600       210
    20.7800       228
    20.8000       222
    20.8200       230
    20.8400       252
    20.8600       244
    20.8800       294
    20.9000       258
    20.9200       308
    20.9400       274
    20.9600       274
    20.9800       276
    21.0000       318
    21.0200       302
    21.0400       344
    21.0600       382
    21.0800       370
    21.1000       416
    21.1200       464
    21.1400       462
    21.1600       498
    21.1800       580
    21.2000       568
    21.2200       514
    21.2400       538
    21.2600       524
    21.2800       514
    21.3000       476
    21.3200       386
    21.3400       382
    21.3600       350
    21.3800       318
    21.4000       256
    21.4200       244
    21.4400       246
    21.4600       248
    21.4800       238
    21.5000       210
    21.5200       218
    21.5400       206
    21.5600       210
    21.5800       206
    21.6000       206
    21.6200       194
    21.6400       210
    21.6600       196
    21.6800       210
    21.7000       210
    21.7200       214
    21.7400       204
    21.7600       204
    21.7800       168
    21.8000       192
    21.8200       178
    21.8400       248
    21.8600       200
    21.8800       218
    21.9000       212
    21.9200       196
    21.9400       206
    21.9600       184
    21.9800       214
    22.0000       194
    22.0200       220
    22.0400       182
    22.0600       212
    22.0800       178
    22.1000       214
    22.1200       220
    22.1400       250
    22.1600       236
    22.1800       232
    22.2000       212
    22.2200       246
    22.2400       224
    22.2600       242
    22.2800       268
    22.3000       246
    22.3200       278
    22.3400       296
    22.3600       284
    22.3800       332
    22.4000       344
    22.4200       374
    22.4400       394
    22.4600       436
    22.4800       484
    22.5000       548
    22.5200       620
    22.5400       672
    22.5600       750
    22.5800       812
    22.6000       952
    22.6200      1102
    22.6400      1310
    22.6600      1532
    22.6800      1798
    22.7000      2104
    22.7200      2492
    22.7400      2876
    22.7600      3486
    22.7800      4154
    22.8000      4720
    22.8200      5436
    22.8400      5842
    22.8600      6044
    22.8800      5814
    22.9000      5212
    22.9200      4406
    22.9400      3604
    22.9600      2810
    22.9800      2124
    23.0000      1648
    23.0200      1404
    23.0400      1126
    23.0600      1044
    23.0800       968
    23.1000       878
    23.1200       854
    23.1400       780
    23.1600       722
    23.1800       686
    23.2000       638
    23.2200       610
    23.2400       576
    23.2600       468
    23.2800       504
    23.3000       472
    23.3200       446
    23.3400       394
    23.3600       342
    23.3800       378
    23.4000       362
    23.4200       298
    23.4400       318
    23.4600       302
    23.4800       300
    23.5000       304
    23.5200       278
    23.5400       306
    23.5600       310
    23.5800       288
    23.6000       292
    23.6200       276
    23.6400       308
    23.6600       302
    23.6800       290
    23.7000       286
    23.7200       276
    23.7400       296
    23.7600       222
    23.7800       310
    23.8000       270
    23.8200       306
    23.8400       272
    23.8600       276
    23.8800       264
    23.9000       262
    23.9200       274
    23.9400       266
    23.9600       290
    23.9800       292
    24.0000       288
    24.0200       280
    24.0400       310
    24.0600       290
    24.0800       312
    24.1000       312
    24.1200       338
    24.1400       294
    24.1600       320
    24.1800       348
    24.2000       330
    24.2200       360
    24.2400       414
    24.2600       428
    24.2800       462
    24.3000       484
    24.3200       574
    24.3400       638
    24.3600       662
    24.3800       748
    24.4000       886
    24.4200       914
    24.4400       974
    24.4600       930
    24.4800       980
    24.5000       908
    24.5200       858
    24.5400       832
    24.5600       768
    24.5800       642
    24.6000       612
    24.6200       610
    24.6400       518
    24.6600       470
    24.6800       484
    24.7000       412
    24.7200       368
    24.7400       348
    24.7600       308
    24.7800       330
    24.8000       278
    24.8200       274
    24.8400       286
    24.8600       278
    24.8800       238
    24.9000       234
    24.9200       268
    24.9400       268
    24.9600       280
    24.9800       282
    25.0000       260
    25.0200       288
    25.0400       274
    25.0600       250
    25.0800       244
    25.1000       260
    25.1200       248
    25.1400       256
    25.1600       278
    25.1800       288
    25.2000       318
    25.2200       312
    25.2400       302
    25.2600       300
    25.2800       328
    25.3000       348
    25.3200       346
    25.3400       374
    25.3600       442
    25.3800       440
    25.4000       506
    25.4200       570
    25.4400       588
    25.4600       670
    25.4800       776
    25.5000       942
    25.5200      1006
    25.5400      1140
    25.5600      1344
    25.5800      1366
    25.6000      1422
    25.6200      1286
    25.6400      1248
    25.6600      1062
    25.6800       918
    25.7000       772
    25.7200       728
    25.7400       528
    25.7600       432
    25.7800       442
    25.8000       362
    25.8200       340
    25.8400       334
    25.8600       326
    25.8800       320
    25.9000       308
    25.9200       314
    25.9400       278
    25.9600       270
    25.9800       260
    26.0000       288
    26.0200       262
    26.0400       318
    26.0600       282
    26.0800       266
    26.1000       286
    26.1200       320
    26.1400       266
    26.1600       342
    26.1800       348
    26.2000       332
    26.2200       384
    26.2400       402
    26.2600       404
    26.2800       506
    26.3000       500
    26.3200       544
    26.3400       548
    26.3600       640
    26.3800       648
    26.4000       698
    26.4200       746
    26.4400       712
    26.4600       804
    26.4800       828
    26.5000       826
    26.5200       868
    26.5400       806
    26.5600       888
    26.5800       948
    26.6000       908
    26.6200       940
    26.6400       886
    26.6600       820
    26.6800       884
    26.7000       796
    26.7200       790
    26.7400       706
    26.7600       672
    26.7800       622
    26.8000       500
    26.8200       512
    26.8400       468
    26.8600       394
    26.8800       414
    26.9000       402
    26.9200       342
    26.9400       344
    26.9600       344
    26.9800       338
    27.0000       336
    27.0200       340
    27.0400       312
    27.0600       330
    27.0800       308
    27.1000       320
    27.1200       328
    27.1400       314
    27.1600       304
    27.1800       328
    27.2000       334
    27.2200       348
    27.2400       346
    27.2600       328
    27.2800       342
    27.3000       288
    27.3200       332
    27.3400       326
    27.3600       340
    27.3800       350
    27.4000       342
    27.4200       404
    27.4400       382
    27.4600       414
    27.4800       430
    27.5000       426
    27.5200       450
    27.5400       410
    27.5600       408
    27.5800       350
    27.6000       346
    27.6200       378
    27.6400       354
    27.6600       300
    27.6800       298
    27.7000       322
    27.7200       316
    27.7400       320
    27.7600       296
    27.7800       306
    27.8000       308
    27.8200       338
    27.8400       284
    27.8600       352
    27.8800       374
    27.9000       372
    27.9200       388
    27.9400       442
    27.9600       486
    27.9800       484
    28.0000       548
    28.0200       612
    28.0400       628
    28.0600       748
    28.0800       876
    28.1000       982
    28.1200      1170
    28.1400      1388
    28.1600      1582
    28.1800      1952
    28.2000      2208
    28.2200      2520
    28.2400      2668
    28.2600      2850
    28.2800      2788
    28.3000      2576
    28.3200      2338
    28.3400      2032
    28.3600      1646
    28.3800      1502
    28.4000      1082
    28.4200       886
    28.4400       710
    28.4600       622
    28.4800       548
    28.5000       486
    28.5200       468
    28.5400       370
    28.5600       364
    28.5800       318
    28.6000       290
    28.6200       244
    28.6400       264
    28.6600       278
    28.6800       278
    28.7000       242
    28.7200       274
    28.7400       228
    28.7600       252
    28.7800       252
    28.8000       216
    28.8200       208
    28.8400       210
    28.8600       220
    28.8800       240
    28.9000       214
    28.9200       220
    28.9400       210
    28.9600       226
    28.9800       220
    29.0000       222
    29.0200       210
    29.0400       206
    29.0600       216
    29.0800       212
    29.1000       200
    29.1200       220
    29.1400       206
    29.1600       198
    29.1800       242
    29.2000       216
    29.2200       206
    29.2400       222
    29.2600       240
    29.2800       248
    29.3000       206
    29.3200       242
    29.3400       222
    29.3600       244
    29.3800       260
    29.4000       262
    29.4200       236
    29.4400       220
    29.4600       258
    29.4800       272
    29.5000       258
    29.5200       268
    29.5400       274
    29.5600       258
    29.5800       262
    29.6000       278
    29.6200       280
    29.6400       276
    29.6600       254
    29.6800       244
    29.7000       240
    29.7200       210
    29.7400       230
    29.7600       236
    29.7800       228
    29.8000       234
    29.8200       244
    29.8400       216
    29.8600       208
    29.8800       230
    29.9000       274
    29.9200       254
    29.9400       246
    29.9600       290
    29.9800       306
    30.0000       310
    30.0200       356
    30.0400       338
    30.0600       408
    30.0800       422
    30.1000       446
    30.1200       446
    30.1400       538
    30.1600       544
    30.1800       578
    30.2000       580
    30.2200       612
    30.2400       642
    30.2600       624
    30.2800       670
    30.3000       646
    30.3200       606
    30.3400       610
    30.3600       580
    30.3800       534
    30.4000       542
    30.4200       508
    30.4400       510
    30.4600       442
    30.4800       526
    30.5000       516
    30.5200       484
    30.5400       442
    30.5600       510
    30.5800       518
    30.6000       472
    30.6200       520
    30.6400       510
    30.6600       526
    30.6800       478
    30.7000       494
    30.7200       434
    30.7400       484
    30.7600       404
    30.7800       374
    30.8000       356
    30.8200       336
    30.8400       326
    30.8600       342
    30.8800       336
    30.9000       332
    30.9200       312
    30.9400       318
    30.9600       324
    30.9800       290
    31.0000       278
    31.0200       310
    31.0400       334
    31.0600       314
    31.0800       284
    31.1000       290
    31.1200       298
    31.1400       294
    31.1600       272
    31.1800       292
    31.2000       294
    31.2200       296
    31.2400       294
    31.2600       270
    31.2800       294
    31.3000       328
    31.3200       288
    31.3400       282
    31.3600       312
    31.3800       300
    31.4000       364
    31.4200       330
    31.4400       344
    31.4600       354
    31.4800       336
    31.5000       354
    31.5200       410
    31.5400       404
    31.5600       470
    31.5800       460
    31.6000       460
    31.6200       542
    31.6400       578
    31.6600       678
    31.6800       654
    31.7000       712
    31.7200       852
    31.7400       842
    31.7600       992
    31.7800       996
    31.8000      1152
    31.8200      1270
    31.8400      1450
    31.8600      1686
    31.8800      1882
    31.9000      2092
    31.9200      2352
    31.9400      2776
    31.9600      2932
    31.9800      3140
    32.0000      3202
    32.0200      3088
    32.0400      2990
    32.0600      2670
    32.0800      2290
    32.1000      2128
    32.1200      1976
    32.1400      1710
    32.1600      1530
    32.1800      1500
    32.2000      1496
    32.2200      1484
    32.2400      1542
    32.2600      1708
    32.2800      1882
    32.3000      2070
    32.3200      2344
    32.3400      2710
    32.3600      3036
    32.3800      3590
    32.4000      4232
    32.4200      4844
    32.4400      5806
    32.4600      6698
    32.4800      7692
    32.5000      8676
    32.5200      9540
    32.5400      9780
    32.5600     10080
    32.5800      9640
    32.6000      9008
    32.6200      8298
    32.6400      7178
    32.6600      6298
    32.6800      5118
    32.7000      4368
    32.7200      3584
    32.7400      2876
    32.7600      2448
    32.7800      2026
    32.8000      1890
    32.8200      1630
    32.8400      1440
    32.8600      1420
    32.8800      1368
    32.9000      1342
    32.9200      1276
    32.9400      1334
    32.9600      1354
    32.9800      1484
    33.0000      1656
    33.0200      1782
    33.0400      1908
    33.0600      2074
    33.0800      2076
    33.1000      2038
    33.1200      1946
    33.1400      1928
    33.1600      1670
    33.1800      1508
    33.2000      1324
    33.2200      1118
    33.2400       932
    33.2600       782
    33.2800       644
    33.3000       582
    33.3200       484
    33.3400       472
    33.3600       456
    33.3800       404
    33.4000       368
    33.4200       332
    33.4400       358
    33.4600       310
    33.4800       318
    33.5000       336
    33.5200       276
    33.5400       274
    33.5600       270
    33.5800       254
    33.6000       228
    33.6200       264
    33.6400       252
    33.6600       234
    33.6800       240
    33.7000       254
    33.7200       198
    33.7400       256
    33.7600       234
    33.7800       250
    33.8000       232
    33.8200       202
    33.8400       236
    33.8600       204
    33.8800       190
    33.9000       212
    33.9200       216
    33.9400       242
    33.9600       230
    33.9800       240
    34.0000       240
    34.0200       246
    34.0400       228
    34.0600       228
    34.0800       236
    34.1000       232
    34.1200       252
    34.1400       202
    34.1600       218
    34.1800       242
    34.2000       218
    34.2200       208
    34.2400       218
    34.2600       228
    34.2800       224
    34.3000       206
    34.3200       258
    34.3400       192
    34.3600       226
    34.3800       212
    34.4000       220
    34.4200       222
    34.4400       222
    34.4600       240
    34.4800       242
    34.5000       264
    34.5200       232
    34.5400       242
    34.5600       252
    34.5800       238
    34.6000       254
    34.6200       250
    34.6400       216
    34.6600       244
    34.6800       252
    34.7000       244
    34.7200       222
    34.7400       238
    34.7600       268
    34.7800       230
    34.8000       246
    34.8200       234
    34.8400       230
    34.8600       250
    34.8800       236
    34.9000       236
    34.9200       250
    34.9400       252
    34.9600       272
    34.9800       240
    35.0000       292
    35.0200       268
    35.0400       270
    35.0600       272
    35.0800       252
    35.1000       318
    35.1200       270
    35.1400       304
    35.1600       264
    35.1800       284
    35.2000       280
    35.2200       274
    35.2400       262
    35.2600       248
    35.2800       288
    35.3000       228
    35.3200       256
    35.3400       240
    35.3600       246
    35.3800       246
    35.4000       274
    35.4200       258
    35.4400       246
    35.4600       258
    35.4800       254
    35.5000       248
    35.5200       242
    35.5400       270
    35.5600       278
    35.5800       272
    35.6000       248
    35.6200       274
    35.6400       290
    35.6600       264
    35.6800       300
    35.7000       294
    35.7200       308
    35.7400       294
    35.7600       304
    35.7800       344
    35.8000       348
    35.8200       322
    35.8400       368
    35.8600       394
    35.8800       370
    35.9000       366
    35.9200       432
    35.9400       426
    35.9600       468
    35.9800       444
    36.0000       532
    36.0200       588
    36.0400       618
    36.0600       664
    36.0800       710
    36.1000       754
    36.1200       794
    36.1400       846
    36.1600       846
    36.1800       802
    36.2000       762
    36.2200       712
    36.2400       650
    36.2600       598
    36.2800       542
    36.3000       528
    36.3200       420
    36.3400       426
    36.3600       380
    36.3800       392
    36.4000       408
    36.4200       408
    36.4400       400
    36.4600       414
    36.4800       438
    36.5000       420
    36.5200       428
    36.5400       428
    36.5600       464
    36.5800       508
    36.6000       532
    36.6200       570
    36.6400       626
    36.6600       814
    36.6800       822
    36.7000       858
    36.7200      1016
    36.7400      1180
    36.7600      1288
    36.7800      1532
    36.8000      1796
    36.8200      2038
    36.8400      2176
    36.8600      2414
    36.8800      2520
    36.9000      2596
    36.9200      2360
    36.9400      2434
    36.9600      2200
    36.9800      2016
    37.0000      1752
    37.0200      1658
    37.0400      1324
    37.0600      1164
    37.0800      1018
    37.1000       894
    37.1200       886
    37.1400       776
    37.1600       718
    37.1800       714
    37.2000       692
    37.2200       660
    37.2400       614
    37.2600       640
    37.2800       628
    37.3000       626
    37.3200       518
    37.3400       578
    37.3600       548
    37.3800       574
    37.4000       542
    37.4200       554
    37.4400       542
    37.4600       520
    37.4800       526
    37.5000       558
    37.5200       560
    37.5400       590
    37.5600       544
    37.5800       524
    37.6000       552
    37.6200       614
    37.6400       566
    37.6600       588
    37.6800       632
    37.7000       610
    37.7200       660
    37.7400       740
    37.7600       752
    37.7800       834
    37.8000       860
    37.8200       916
    37.8400      1066
    37.8600      1176
    37.8800      1270
    37.9000      1544
    37.9200      1764
    37.9400      2044
    37.9600      2158
    37.9800      2454
    38.0000      2632
    38.0200      2610
    38.0400      2696
    38.0600      2502
    38.0800      2350
    38.1000      2200
    38.1200      2108
    38.1400      2026
    38.1600      1824
    38.1800      1708
    38.2000      1618
    38.2200      1644
    38.2400      1634
    38.2600      1652
    38.2800      1810
    38.3000      1950
    38.3200      2164
    38.3400      2376
    38.3600      2690
    38.3800      3024
    38.4000      3562
    38.4200      3956
    38.4400      4532
    38.4600      4782
    38.4800      5004
    38.5000      5000
    38.5200      4900
    38.5400      5032
    38.5600      4846
    38.5800      4758
    38.6000      4608
    38.6200      4412
    38.6400      4346
    38.6600      4216
    38.6800      4370
    38.7000      4408
    38.7200      4258
    38.7400      4236
    38.7600      3984
    38.7800      3802
    38.8000      3402
    38.8200      3020
    38.8400      2814
    38.8600      2416
    38.8800      2194
    38.9000      1918
    38.9200      1642
    38.9400      1472
    38.9600      1246
    38.9800      1198
    39.0000      1000
    39.0200      1028
    39.0400       918
    39.0600       872
    39.0800       778
    39.1000       740
    39.1200       728
    39.1400       740
    39.1600       694
    39.1800       660
    39.2000       668
    39.2200       690
    39.2400       686
    39.2600       668
    39.2800       708
    39.3000       710
    39.3200       674
    39.3400       736
    39.3600       676
    39.3800       750
    39.4000       726
    39.4200       828
    39.4400       806
    39.4600       894
    39.4800      1000
    39.5000      1068
    39.5200      1218
    39.5400      1368
    39.5600      1458
    39.5800      1710
    39.6000      1968
    39.6200      2214
    39.6400      2566
    39.6600      2716
    39.6800      2894
    39.7000      3052
    39.7200      2832
    39.7400      2634
    39.7600      2502
    39.7800      2274
    39.8000      2172
    39.8200      1870
    39.8400      1586
    39.8600      1352
    39.8800      1106
    39.9000       996
    39.9200       882
    39.9400       818
    39.9600       796
    39.9800       702
    40.0000       632
    40.0200       630
    40.0400       590
    40.0600       570
    40.0800       576
    40.1000       550
    40.1200       504
    40.1400       514
    40.1600       536
    40.1800       536
    40.2000       534
    40.2200       522
    40.2400       558
    40.2600       538
    40.2800       510
    40.3000       602
    40.3200       640
    40.3400       670
    40.3600       736
    40.3800       798
    40.4000       780
    40.4200       914
    40.4400       978
    40.4600      1062
    40.4800      1210
    40.5000      1262
    40.5200      1392
    40.5400      1542
    40.5600      1616
    40.5800      1660
    40.6000      1686
    40.6200      1592
    40.6400      1598
    40.6600      1506
    40.6800      1502
    40.7000      1430
    40.7200      1208
    40.7400      1184
    40.7600      1024
    40.7800       956
    40.8000       822
    40.8200       740
    40.8400       714
    40.8600       644
    40.8800       604
    40.9000       564
    40.9200       546
    40.9400       524
    40.9600       558
    40.9800       510
    41.0000       508
    41.0200       500
    41.0400       500
    41.0600       548
    41.0800       520
    41.1000       540
    41.1200       544
    41.1400       554
    41.1600       512
    41.1800       584
    41.2000       612
    41.2200       606
    41.2400       624
    41.2600       628
    41.2800       694
    41.3000       638
    41.3200       668
    41.3400       654
    41.3600       682
    41.3800       628
    41.4000       620
    41.4200       646
    41.4400       606
    41.4600       578
    41.4800       608
    41.5000       682
    41.5200       622
    41.5400       600
    41.5600       682
    41.5800       690
    41.6000       626
    41.6200       746
    41.6400       764
    41.6600       788
    41.6800       886
    41.7000       908
    41.7200      1092
    41.7400      1144
    41.7600      1312
    41.7800      1496
    41.8000      1618
    41.8200      1854
    41.8400      2032
    41.8600      2142
    41.8800      2326
    41.9000      2254
    41.9200      2324
    41.9400      2236
    41.9600      2108
    41.9800      1826
    42.0000      1762
    42.0200      1630
    42.0400      1372
    42.0600      1310
    42.0800      1122
    42.1000       946
    42.1200       830
    42.1400       806
    42.1600       772
    42.1800       698
    42.2000       652
    42.2200       574
    42.2400       620
    42.2600       576
    42.2800       552
    42.3000       520
    42.3200       490
    42.3400       474
    42.3600       484
    42.3800       470
    42.4000       426
    42.4200       446
    42.4400       456
    42.4600       454
    42.4800       452
    42.5000       402
    42.5200       428
    42.5400       420
    42.5600       408
    42.5800       400
    42.6000       362
    42.6200       400
    42.6400       356
    42.6600       408
    42.6800       430
    42.7000       404
    42.7200       392
    42.7400       416
    42.7600       422
    42.7800       436
    42.8000       492
    42.8200       464
    42.8400       470
    42.8600       492
    42.8800       534
    42.9000       602
    42.9200       630
    42.9400       646
    42.9600       722
    42.9800       742
    43.0000       844
    43.0200       960
    43.0400      1056
    43.0600      1304
    43.0800      1442
    43.1000      1618
    43.1200      1792
    43.1400      1946
    43.1600      2114
    43.1800      2228
    43.2000      2266
    43.2200      2218
    43.2400      2244
    43.2600      2060
    43.2800      1942
    43.3000      1864
    43.3200      1582
    43.3400      1448
    43.3600      1326
    43.3800      1160
    43.4000      1044
    43.4200       906
    43.4400       836
    43.4600       706
    43.4800       696
    43.5000       600
    43.5200       584
    43.5400       602
    43.5600       528
    43.5800       560
    43.6000       564
    43.6200       574
    43.6400       568
    43.6600       544
    43.6800       580
    43.7000       656
    43.7200       708
    43.7400       740
    43.7600       772
    43.7800       738
    43.8000       812
    43.8200       848
    43.8400       878
    43.8600       814
    43.8800       812
    43.9000       798
    43.9200       784
    43.9400       700
    43.9600       666
    43.9800       666
    44.0000       636
    44.0200       588
    44.0400       552
    44.0600       592
    44.0800       530
    44.1000       512
    44.1200       496
    44.1400       464
    44.1600       504
    44.1800       462
    44.2000       480
    44.2200       500
    44.2400       462
    44.2600       500
    44.2800       442
    44.3000       480
    44.3200       532
    44.3400       510
    44.3600       514
    44.3800       478
    44.4000       468
    44.4200       514
    44.4400       450
    44.4600       476
    44.4800       466
    44.5000       466
    44.5200       478
    44.5400       472
    44.5600       412
    44.5800       436
    44.6000       466
    44.6200       436
    44.6400       458
    44.6600       428
    44.6800       464
    44.7000       434
    44.7200       450
    44.7400       450
    44.7600       454
    44.7800       432
    44.8000       420
    44.8200       432
    44.8400       438
    44.8600       456
    44.8800       444
    44.9000       486
    44.9200       496
    44.9400       462
    44.9600       544
    44.9800       528
    45.0000       606
    45.0200       574
    45.0400       626
    45.0600       578
    45.0800       634
    45.1000       608
    45.1200       622
    45.1400       688
    45.1600       652
    45.1800       664
    45.2000       592
    45.2200       612
    45.2400       586
    45.2600       556
    45.2800       568
    45.3000       568
    45.3200       558
    45.3400       518
    45.3600       510
    45.3800       490
    45.4000       508
    45.4200       470
    45.4400       488
    45.4600       534
    45.4800       526
    45.5000       522
    45.5200       458
    45.5400       494
    45.5600       500
    45.5800       498
    45.6000       530
    45.6200       498
    45.6400       490
    45.6600       514
    45.6800       514
    45.7000       518
    45.7200       526
    45.7400       502
    45.7600       480
    45.7800       572
    45.8000       496
    45.8200       510
    45.8400       500
    45.8600       534
    45.8800       514
    45.9000       512
    45.9200       568
    45.9400       584
    45.9600       570
    45.9800       566
    46.0000       512
    46.0200       590
    46.0400       562
    46.0600       620
    46.0800       612
    46.1000       686
    46.1200       660
    46.1400       646
    46.1600       742
    46.1800       732
    46.2000       764
    46.2200       820
    46.2400       784
    46.2600       918
    46.2800      1012
    46.3000      1082
    46.3200      1130
    46.3400      1274
    46.3600      1414
    46.3800      1528
    46.4000      1658
    46.4200      1886
    46.4400      2094
    46.4600      2412
    46.4800      2790
    46.5000      3046
    46.5200      3474
    46.5400      4018
    46.5600      4770
    46.5800      5518
    46.6000      6424
    46.6200      7266
    46.6400      8248
    46.6600      9098
    46.6800      9892
    46.7000     10314
    46.7200     10374
    46.7400      9874
    46.7600      9722
    46.7800      9084
    46.8000      8612
    46.8200      7936
    46.8400      7452
    46.8600      6960
    46.8800      6284
    46.9000      5710
    46.9200      5260
    46.9400      4968
    46.9600      4830
    46.9800      4628
    47.0000      4274
    47.0200      4086
    47.0400      3688
    47.0600      3504
    47.0800      3118
    47.1000      2958
    47.1200      2712
    47.1400      2476
    47.1600      2290
    47.1800      2028
    47.2000      1738
    47.2200      1578
    47.2400      1398
    47.2600      1322
    47.2800      1208
    47.3000      1080
    47.3200       996
    47.3400      1004
    47.3600       906
    47.3800       876
    47.4000       850
    47.4200       794
    47.4400       794
    47.4600       750
    47.4800       762
    47.5000       660
    47.5200       748
    47.5400       698
    47.5600       662
    47.5800       670
    47.6000       698
    47.6200       706
    47.6400       692
    47.6600       702
    47.6800       744
    47.7000       798
    47.7200       796
    47.7400       848
    47.7600       946
    47.7800       972
    47.8000      1036
    47.8200      1136
    47.8400      1112
    47.8600      1082
    47.8800      1068
    47.9000      1040
    47.9200      1030
    47.9400       988
    47.9600       982
    47.9800       988
    48.0000       968
    48.0200       910
    48.0400       910
    48.0600       938
    48.0800       972
    48.1000       884
    48.1200      1000
    48.1400      1006
    48.1600      1040
    48.1800      1064
    48.2000      1090
    48.2200      1096
    48.2400      1052
    48.2600      1024
    48.2800      1026
    48.3000       990
    48.3200       866
    48.3400       894
    48.3600       832
    48.3800       782
    48.4000       762
    48.4200       776
    48.4400       638
    48.4600       652
    48.4800       610
    48.5000       640
    48.5200       568
    48.5400       562
    48.5600       562
    48.5800       574
    48.6000       538
    48.6200       530
    48.6400       466
    48.6600       482
    48.6800       514
    48.7000       516
    48.7200       502
    48.7400       468
    48.7600       474
    48.7800       416
    48.8000       432
    48.8200       446
    48.8400       408
    48.8600       438
    48.8800       394
    48.9000       380
    48.9200       326
    48.9400       354
    48.9600       366
    48.9800       366
    49.0000       348
    49.0200       378
    49.0400       314
    49.0600       348
    49.0800       330
    49.1000       354
    49.1200       314
    49.1400       346
    49.1600       320
    49.1800       310
    49.2000       286
    49.2200       306
    49.2400       294
    49.2600       330
    49.2800       318
    49.3000       298
    49.3200       284
    49.3400       296
    49.3600       314
    49.3800       322
    49.4000       308
    49.4200       278
    49.4400       282
    49.4600       290
    49.4800       310
    49.5000       304
    49.5200       350
    49.5400       324
    49.5600       298
    49.5800       308
    49.6000       346
    49.6200       340
    49.6400       332
    49.6600       346
    49.6800       312
    49.7000       334
    49.7200       370
    49.7400       332
    49.7600       336
    49.7800       346
    49.8000       364
    49.8200       370
    49.8400       370
    49.8600       386
    49.8800       424
    49.9000       428
    49.9200       412
    49.9400       422
    49.9600       458
    49.9800       438
    50.0000       526
    50.0200       532
    50.0400       514
    50.0600       588
    50.0800       580
    50.1000       634
    50.1200       598
    50.1400       612
    50.1600       678
    50.1800       742
    50.2000       674
    50.2200       714
    50.2400       738
    50.2600       726
    50.2800       790
    50.3000       748
    50.3200       752
    50.3400       696
    50.3600       712
    50.3800       690
    50.4000       688
    50.4200       682
    50.4400       662
    50.4600       684
    50.4800       646
    50.5000       646
    50.5200       614
    50.5400       594
    50.5600       566
    50.5800       578
    50.6000       586
    50.6200       586
    50.6400       540
    50.6600       596
    50.6800       560
    50.7000       542
    50.7200       582
    50.7400       586
    50.7600       598
    50.7800       672
    50.8000       686
    50.8200       716
    50.8400       788
    50.8600       818
    50.8800       876
    50.9000       870
    50.9200       892
    50.9400       960
    50.9600       858
    50.9800       880
    51.0000       820
    51.0200       778
    51.0400       792
    51.0600       774
    51.0800       754
    51.1000       744
    51.1200       706
    51.1400       680
    51.1600       622
    51.1800       668
    51.2000       604
    51.2200       600
    51.2400       642
    51.2600       648
    51.2800       654
    51.3000       694
    51.3200       740
    51.3400       764
    51.3600       718
    51.3800       826
    51.4000       834
    51.4200       806
    51.4400       820
    51.4600       810
    51.4800       796
    51.5000       790
    51.5200       724
    51.5400       770
    51.5600       772
    51.5800       758
    51.6000       742
    51.6200       682
    51.6400       728
    51.6600       692
    51.6800       704
    51.7000       772
    51.7200       784
    51.7400       886
    51.7600       888
    51.7800       934
    51.8000      1028
    51.8200      1068
    51.8400      1170
    51.8600      1146
    51.8800      1158
    51.9000      1108
    51.9200      1090
    51.9400      1130
    51.9600      1062
    51.9800      1040
    52.0000      1010
    52.0200      1022
    52.0400       952
    52.0600       958
    52.0800       856
    52.1000       800
    52.1200       776
    52.1400       718
    52.1600       722
    52.1800       704
    52.2000       718
    52.2200       660
    52.2400       640
    52.2600       650
    52.2800       636
    52.3000       662
    52.3200       674
    52.3400       706
    52.3600       762
    52.3800       734
    52.4000       856
    52.4200       888
    52.4400       936
    52.4600      1048
    52.4800      1096
    52.5000      1300
    52.5200      1412
    52.5400      1578
    52.5600      1546
    52.5800      1638
    52.6000      1640
    52.6200      1666
    52.6400      1716
    52.6600      1678
    52.6800      1710
    52.7000      1590
    52.7200      1436
    52.7400      1408
    52.7600      1262
    52.7800      1228
    52.8000      1118
    52.8200      1068
    52.8400      1022
    52.8600       896
    52.8800       920
    52.9000       874
    52.9200       772
    52.9400       782
    52.9600       782
    52.9800       826
    53.0000       754
    53.0200       782
    53.0400       910
    53.0600       934
    53.0800      1042
    53.1000      1116
    53.1200      1234
    53.1400      1302
    53.1600      1560
    53.1800      1642
    53.2000      1734
    53.2200      1948
    53.2400      2036
    53.2600      2158
    53.2800      2076
    53.3000      1932
    53.3200      2028
    53.3400      1892
    53.3600      1810
    53.3800      1680
    53.4000      1670
    53.4200      1484
    53.4400      1344
    53.4600      1310
    53.4800      1134
    53.5000       982
    53.5200       842
    53.5400       772
    53.5600       718
    53.5800       646
    53.6000       540
    53.6200       538
    53.6400       514
    53.6600       508
    53.6800       486
    53.7000       446
    53.7200       470
    53.7400       424
    53.7600       412
    53.7800       368
    53.8000       376
    53.8200       348
    53.8400       368
    53.8600       370
    53.8800       334
    53.9000       354
    53.9200       324
    53.9400       348
    53.9600       312
    53.9800       324
    54.0000       304
    54.0200       340
    54.0400       330
    54.0600       326
    54.0800       312
    54.1000       336
    54.1200       304
    54.1400       328
    54.1600       368
    54.1800       342
    54.2000       332
    54.2200       360
    54.2400       382
    54.2600       382
    54.2800       366
    54.3000       352
    54.3200       360
    54.3400       374
    54.3600       402
    54.3800       406
    54.4000       432
    54.4200       434
    54.4400       440
    54.4600       498
    54.4800       540
    54.5000       552
    54.5200       526
    54.5400       572
    54.5600       634
    54.5800       650
    54.6000       680
    54.6200       720
    54.6400       746
    54.6600       794
    54.6800       908
    54.7000       902
    54.7200       872
    54.7400       964
    54.7600       988
    54.7800       952
    54.8000       948
    54.8200       924
    54.8400       852
    54.8600       832
    54.8800       816
    54.9000       758
    54.9200       732
    54.9400       698
    54.9600       702
    54.9800       652
    55.0000       590
    55.0200       566
    55.0400       542
    55.0600       498
    55.0800       514
    55.1000       518
    55.1200       524
    55.1400       490
    55.1600       496
    55.1800       496
    55.2000       484
    55.2200       526
    55.2400       444
    55.2600       454
    55.2800       450
    55.3000       498
    55.3200       474
    55.3400       484
    55.3600       500
    55.3800       432
    55.4000       450
    55.4200       444
    55.4400       500
    55.4600       442
    55.4800       470
    55.5000       490
    55.5200       534
    55.5400       544
    55.5600       524
    55.5800       560
    55.6000       608
    55.6200       634
    55.6400       704
    55.6600       762
    55.6800       876
    55.7000       816
    55.7200       968
    55.7400       950
    55.7600       952
    55.7800       926
    55.8000       918
    55.8200       852
    55.8400       878
    55.8600       810
    55.8800       802
    55.9000       754
    55.9200       760
    55.9400       698
    55.9600       640
    55.9800       588
    56.0000       562
    56.0200       540
    56.0400       534
    56.0600       452
    56.0800       468
    56.1000       424
    56.1200       412
    56.1400       394
    56.1600       390
    56.1800       398
    56.2000       360
    56.2200       330
    56.2400       346
    56.2600       358
    56.2800       338
    56.3000       334
    56.3200       348
    56.3400       294
    56.3600       378
    56.3800       334
    56.4000       342
    56.4200       308
    56.4400       300
    56.4600       336
    56.4800       304
    56.5000       338
    56.5200       306
    56.5400       310
    56.5600       336
    56.5800       306
    56.6000       346
    56.6200       310
    56.6400       336
    56.6600       338
    56.6800       366
    56.7000       344
    56.7200       312
    56.7400       338
    56.7600       382
    56.7800       378
    56.8000       388
    56.8200       368
    56.8400       386
    56.8600       390
    56.8800       406
    56.9000       402
    56.9200       418
    56.9400       428
    56.9600       428
    56.9800       496
    57.0000       466
    57.0200       494
    57.0400       552
    57.0600       592
    57.0800       616
    57.1000       706
    57.1200       706
    57.1400       804
    57.1600       826
    57.1800       886
    57.2000      1008
    57.2200      1082
    57.2400      1162
    57.2600      1392
    57.2800      1470
    57.3000      1630
    57.3200      1716
    57.3400      1884
    57.3600      1984
    57.3800      1952
    57.4000      2036
    57.4200      2056
    57.4400      1972
    57.4600      1880
    57.4800      1866
    57.5000      1822
    57.5200      1762
    57.5400      1812
    57.5600      1824
    57.5800      1670
    57.6000      1728
    57.6200      1758
    57.6400      1834
    57.6600      1806
    57.6800      2030
    57.7000      1944
    57.7200      2070
    57.7400      2058
    57.7600      2030
    57.7800      1948
    57.8000      1848
    57.8200      1780
    57.8400      1780
    57.8600      1732
    57.8800      1598
    57.9000      1522
    57.9200      1468
    57.9400      1358
    57.9600      1252
    57.9800      1172
    58.0000      1042
    58.0200       980
    58.0400       978
    58.0600       912
    58.0800       874
    58.1000       866
    58.1200       842
    58.1400       882
    58.1600       840
    58.1800       910
    58.2000       912
    58.2200       942
    58.2400       972
    58.2600      1034
    58.2800      1128
    58.3000      1132
    58.3200      1248
    58.3400      1374
    58.3600      1494
    58.3800      1610
    58.4000      1688
    58.4200      1844
    58.4400      2064
    58.4600      2204
    58.4800      2368
    58.5000      2432
    58.5200      2554
    58.5400      2674
    58.5600      2728
    58.5800      2836
    58.6000      3008
    58.6200      3214
    58.6400      3246
    58.6600      3536
    58.6800      3622
    58.7000      3726
    58.7200      3938
    58.7400      3896
    58.7600      3760
    58.7800      3738
    58.8000      3612
    58.8200      3560
    58.8400      3364
    58.8600      3198
    58.8800      3038
    58.9000      2892
    58.9200      2668
    58.9400      2440
    58.9600      2216
    58.9800      2024
    59.0000      1774
    59.0200      1624
    59.0400      1480
    59.0600      1408
    59.0800      1240
    59.1000      1060
    59.1200       986
    59.1400       932
    59.1600       828
    59.1800       778
    59.2000       716
    59.2200       700
    59.2400       646
    59.2600       642
    59.2800       636
    59.3000       570
    59.3200       534
    59.3400       568
    59.3600       534
    59.3800       462
    59.4000       514
    59.4200       464
    59.4400       454
    59.4600       494
    59.4800       460
    59.5000       494
    59.5200       428
    59.5400       486
    59.5600       472
    59.5800       430
    59.6000       428
    59.6200       420
    59.6400       412
    59.6600       402
    59.6800       400
    59.7000       404
    59.7200       450
    59.7400       394
    59.7600       434
    59.7800       404
    59.8000       418
    59.8200       428
    59.8400       384
    59.8600       416
    59.8800       416
    59.9000       452
    59.9200       420
    59.9400       428
    59.9600       412
    59.9800       392
    60.0000       366
    60.0200       396
    60.0400       418
    60.0600       370
    60.0800       412
    60.1000       406
    60.1200       360
    60.1400       404
    60.1600       330
    60.1800       390
    60.2000       416
    60.2200       382
    60.2400       380
    60.2600       402
    60.2800       394
    60.3000       380
    60.3200       408
    60.3400       392
    60.3600       410
    60.3800       398
    60.4000       352
    60.4200       382
    60.4400       390
    60.4600       380
    60.4800       376
    60.5000       424
    60.5200       418
    60.5400       426
    60.5600       372
    60.5800       366
    60.6000       360
    60.6200       420
    60.6400       378
    60.6600       388
    60.6800       396
    60.7000       404
    60.7200       388
    60.7400       390
    60.7600       380
    60.7800       380
    60.8000       398
    60.8200       424
    60.8400       408
    60.8600       412
    60.8800       458
    60.9000       426
    60.9200       428
    60.9400       440
    60.9600       492
    60.9800       504
    61.0000       506
    61.0200       526
    61.0400       512
    61.0600       562
    61.0800       612
    61.1000       628
    61.1200       580
    61.1400       636
    61.1600       636
    61.1800       560
    61.2000       596
    61.2200       592
    61.2400       592
    61.2600       594
    61.2800       626
    61.3000       568
    61.3200       576
    61.3400       526
    61.3600       534
    61.3800       554
    61.4000       534
    61.4200       602
    61.4400       604
    61.4600       556
    61.4800       606
    61.5000       630
    61.5200       652
    61.5400       622
    61.5600       598
    61.5800       612
    61.6000       556
    61.6200       570
    61.6400       622
    61.6600       536
    61.6800       554
    61.7000       510
    61.7200       542
    61.7400       508
    61.7600       512
    61.7800       534
    61.8000       542
    61.8200       524
    61.8400       528
    61.8600       514
    61.8800       520
    61.9000       558
    61.9200       540
    61.9400       596
    61.9600       550
    61.9800       610
    62.0000       594
    62.0200       584
    62.0400       606
    62.0600       596
    62.0800       644
    62.1000       604
    62.1200       584
    62.1400       616
    62.1600       642
    62.1800       604
    62.2000       592
    62.2200       558
    62.2400       602
    62.2600       604
    62.2800       602
    62.3000       564
    62.3200       534
    62.3400       576
    62.3600       600
    62.3800       546
    62.4000       512
    62.4200       486
    62.4400       532
    62.4600       474
    62.4800       460
    62.5000       472
    62.5200       476
    62.5400       438
    62.5600       430
    62.5800       384
    62.6000       422
    62.6200       398
    62.6400       400
    62.6600       376
    62.6800       386
    62.7000       364
    62.7200       336
    62.7400       348
    62.7600       336
    62.7800       368
    62.8000       330
    62.8200       318
    62.8400       282
    62.8600       292
    62.8800       312
    62.9000       310
    62.9200       256
    62.9400       264
    62.9600       270
    62.9800       260
    63.0000       284
    63.0200       232
    63.0400       262
    63.0600       224
    63.0800       246
    63.1000       268
    63.1200       242
    63.1400       248
    63.1600       230
    63.1800       212
    63.2000       252
    63.2200       238
    63.2400       234
    63.2600       208
    63.2800       216
    63.3000       230
    63.3200       218
    63.3400       222
    63.3600       256
    63.3800       256
    63.4000       232
    63.4200       244
    63.4400       238
    63.4600       256
    63.4800       268
    63.5000       242
    63.5200       260
    63.5400       248
    63.5600       252
    63.5800       268
    63.6000       270
    63.6200       308
    63.6400       306
    63.6600       316
    63.6800       334
    63.7000       368
    63.7200       372
    63.7400       376
    63.7600       418
    63.7800       436
    63.8000       480
    63.8200       480
    63.8400       512
    63.8600       498
    63.8800       482
    63.9000       556
    63.9200       470
    63.9400       490
    63.9600       448
    63.9800       418
    64.0000       436
    64.0200       456
    64.0400       428
    64.0600       408
    64.0800       368
    64.1000       390
    64.1200       342
    64.1400       354
    64.1600       332
    64.1800       328
    64.2000       284
    64.2200       278
    64.2400       272
    64.2600       268
    64.2800       250
    64.3000       226
    64.3200       250
    64.3400       234
    64.3600       232
    64.3800       238
    64.4000       238
    64.4200       222
    64.4400       214
    64.4600       222
    64.4800       270
    64.5000       228
    64.5200       222
    64.5400       226
    64.5600       224
    64.5800       228
    64.6000       236
    64.6200       212
    64.6400       220
    64.6600       220
    64.6800       244
    64.7000       222
    64.7200       224
    64.7400       222
    64.7600       250
    64.7800       202
    64.8000       222
    64.8200       248
    64.8400       234
    64.8600       210
    64.8800       222
    64.9000       216
    64.9200       240
    64.9400       262
    64.9600       248
    64.9800       270
    65.0000       270
    65.0200       252
    65.0400       272
    65.0600       312
    65.0800       334
    65.1000       338
    65.1200       326
    65.1400       352
    65.1600       368
    65.1800       412
    65.2000       412
    65.2200       438
    65.2400       452
    65.2600       480
    65.2800       456
    65.3000       496
    65.3200       480
    65.3400       480
    65.3600       456
    65.3800       444
    65.4000       458
    65.4200       434
    65.4400       426
    65.4600       414
    65.4800       394
    65.5000       406
    65.5200       400
    65.5400       356
    65.5600       352
    65.5800       332
    65.6000       346
    65.6200       298
    65.6400       328
    65.6600       294
    65.6800       270
    65.7000       234
    65.7200       300
    65.7400       264
    65.7600       256
    65.7800       240
    65.8000       252
    65.8200       246
    65.8400       226
    65.8600       248
    65.8800       260
    65.9000       252
    65.9200       274
    65.9400       254
    65.9600       228
    65.9800       234
    66.0000       244
    66.0200       224
    66.0400       252
    66.0600       258
    66.0800       246
    66.1000       266
    66.1200       244
    66.1400       282
    66.1600       266
    66.1800       276
    66.2000       292
    66.2200       266
    66.2400       284
    66.2600       312
    66.2800       290
    66.3000       276
    66.3200       322
    66.3400       294
    66.3600       308
    66.3800       334
    66.4000       318
    66.4200       346
    66.4400       346
    66.4600       384
    66.4800       378
    66.5000       416
    66.5200       362
    66.5400       388
    66.5600       406
    66.5800       470
    66.6000       418
    66.6200       458
    66.6400       434
    66.6600       486
    66.6800       490
    66.7000       470
    66.7200       536
    66.7400       494
    66.7600       526
    66.7800       558
    66.8000       626
    66.8200       680
    66.8400       674
    66.8600       724
    66.8800       710
    66.9000       672
    66.9200       672
    66.9400       644
    66.9600       658
    66.9800       638
    67.0000       564
    67.0200       578
    67.0400       552
    67.0600       592
    67.0800       502
    67.1000       524
    67.1200       480
    67.1400       454
    67.1600       424
    67.1800       424
    67.2000       440
    67.2200       372
    67.2400       372
    67.2600       344
    67.2800       384
    67.3000       340
    67.3200       328
    67.3400       312
    67.3600       352
    67.3800       302
    67.4000       318
    67.4200       332
    67.4400       336
    67.4600       334
    67.4800       306
    67.5000       314
    67.5200       358
    67.5400       300
    67.5600       316
    67.5800       316
    67.6000       292
    67.6200       326
    67.6400       334
    67.6600       324
    67.6800       330
    67.7000       394
    67.7200       334
    67.7400       390
    67.7600       416
    67.7800       374
    67.8000       420
    67.8200       406
    67.8400       432
    67.8600       476
    67.8800       564
    67.9000       542
    67.9200       546
    67.9400       642
    67.9600       682
    67.9800       754
    68.0000       784
    68.0200       920
    68.0400       996
    68.0600      1056
    68.0800      1162
    68.1000      1282
    68.1200      1334
    68.1400      1296
    68.1600      1372
    68.1800      1446
    68.2000      1440
    68.2200      1414
    68.2400      1412
    68.2600      1338
    68.2800      1446
    68.3000      1326
    68.3200      1238
    68.3400      1212
    68.3600      1130
    68.3800      1156
    68.4000      1046
    68.4200       980
    68.4400       930
    68.4600       906
    68.4800       852
    68.5000       800
    68.5200       752
    68.5400       746
    68.5600       764
    68.5800       714
    68.6000       688
    68.6200       670
    68.6400       630
    68.6600       648
    68.6800       564
    68.7000       626
    68.7200       528
    68.7400       480
    68.7600       512
    68.7800       484
    68.8000       478
    68.8200       504
    68.8400       476
    68.8600       438
    68.8800       446
    68.9000       430
    68.9200       394
    68.9400       388
    68.9600       400
    68.9800       368
    69.0000       380
    69.0200       334
    69.0400       382
    69.0600       366
    69.0800       360
    69.1000       384
    69.1200       392
    69.1400       344
    69.1600       382
    69.1800       428
    69.2000       400
    69.2200       450
    69.2400       436
    69.2600       462
    69.2800       454
    69.3000       500
    69.3200       548
    69.3400       548
    69.3600       584
    69.3800       586
    69.4000       656
    69.4200       654
    69.4400       650
    69.4600       624
    69.4800       678
    69.5000       600
    69.5200       580
    69.5400       534
    69.5600       538
    69.5800       530
    69.6000       506
    69.6200       482
    69.6400       476
    69.6600       456
    69.6800       442
    69.7000       396
    69.7200       366
    69.7400       392
    69.7600       366
    69.7800       328
    69.8000       344
    69.8200       278
    69.8400       302
    69.8600       272
    69.8800       302
    69.9000       238
    69.9200       288
    69.9400       264
    69.9600       226
    69.9800       248
    70.0000       238
    70.0200       238
    70.0400       248
    70.0600       250
    70.0800       238
    70.1000       248
    70.1200       228
    70.1400       216
    70.1600       230
    70.1800       198
    70.2000       230
    70.2200       208
    70.2400       216
    70.2600       216
    70.2800       224
    70.3000       228
    70.3200       220
    70.3400       206
    70.3600       240
    70.3800       198
    70.4000       232
    70.4200       236
    70.4400       226
    70.4600       236
    70.4800       220
    70.5000       238
    70.5200       236
    70.5400       274
    70.5600       258
    70.5800       264
    70.6000       270
    70.6200       248
    70.6400       250
    70.6600       226
    70.6800       268
    70.7000       276
    70.7200       212
    70.7400       264
    70.7600       202
    70.7800       242
    70.8000       260
    70.8200       262
    70.8400       266
    70.8600       240
    70.8800       242
    70.9000       222
    70.9200       226
    70.9400       242
    70.9600       218
    70.9800       224
    71.0000       250
    71.0200       236
    71.0400       294
    71.0600       270
    71.0800       224
    71.1000       260
    71.1200       268
    71.1400       258
    71.1600       328
    71.1800       298
    71.2000       278
    71.2200       326
    71.2400       348
    71.2600       380
    71.2800       382
    71.3000       380
    71.3200       444
    71.3400       480
    71.3600       468
    71.3800       566
    71.4000       554
    71.4200       602
    71.4400       606
    71.4600       614
    71.4800       686
    71.5000       658
    71.5200       680
    71.5400       674
    71.5600       740
    71.5800       732
    71.6000       718
    71.6200       760
    71.6400       710
    71.6600       666
    71.6800       684
    71.7000       666
    71.7200       676
    71.7400       674
    71.7600       696
    71.7800       636
    71.8000       616
    71.8200       576
    71.8400       576
    71.8600       594
    71.8800       560
    71.9000       524
    71.9200       560
    71.9400       504
    71.9600       572
    71.9800       548
    72.0000       532
    72.0200       514
    72.0400       488
    72.0600       498
    72.0800       414
    72.1000       532
    72.1200       472
    72.1400       494
    72.1600       488
    72.1800       502
    72.2000       550
    72.2200       562
    72.2400       556
    72.2600       558
    72.2800       584
    72.3000       516
    72.3200       514
    72.3400       506
    72.3600       492
    72.3800       504
    72.4000       504
    72.4200       444
    72.4400       494
    72.4600       498
    72.4800       428
    72.5000       468
    72.5200       410
    72.5400       416
    72.5600       410
    72.5800       398
    72.6000       434
    72.6200       362
    72.6400       382
    72.6600       332
    72.6800       322
    72.7000       318
    72.7200       278
    72.7400       314
    72.7600       330
    72.7800       300
    72.8000       318
    72.8200       336
    72.8400       310
    72.8600       330
    72.8800       338
    72.9000       338
    72.9200       316
    72.9400       308
    72.9600       326
    72.9800       288
    73.0000       300
    73.0200       312
    73.0400       286
    73.0600       272
    73.0800       286
    73.1000       300
    73.1200       250
    73.1400       252
    73.1600       236
    73.1800       252
    73.2000       246
    73.2200       236
    73.2400       238
    73.2600       238
    73.2800       196
    73.3000       200
    73.3200       216
    73.3400       218
    73.3600       232
    73.3800       212
    73.4000       194
    73.4200       236
    73.4400       206
    73.4600       210
    73.4800       230
    73.5000       210
    73.5200       208
    73.5400       204
    73.5600       226
    73.5800       208
    73.6000       234
    73.6200       200
    73.6400       214
    73.6600       182
    73.6800       248
    73.7000       218
    73.7200       222
    73.7400       230
    73.7600       230
    73.7800       238
    73.8000       234
    73.8200       246
    73.8400       246
    73.8600       234
    73.8800       262
    73.9000       240
    73.9200       258
    73.9400       258
    73.9600       308
    73.9800       302
    74.0000       260
    74.0200       294
    74.0400       308
    74.0600       332
    74.0800       318
    74.1000       320
    74.1200       282
    74.1400       316
    74.1600       338
    74.1800       346
    74.2000       318
    74.2200       320
    74.2400       318
    74.2600       308
    74.2800       314
    74.3000       276
    74.3200       278
    74.3400       256
    74.3600       314
    74.3800       270
    74.4000       282
    74.4200       256
    74.4400       254
    74.4600       232
    74.4800       240
    74.5000       228
    74.5200       202
    74.5400       240
    74.5600       218
    74.5800       202
    74.6000       224
    74.6200       186
    74.6400       216
    74.6600       202
    74.6800       192
    74.7000       210
    74.7200       210
    74.7400       182
    74.7600       196
    74.7800       190
    74.8000       186
    74.8200       190
    74.8400       184
    74.8600       196
    74.8800       200
    74.9000       180
    74.9200       204
    74.9400       198
    74.9600       180
    74.9800       202
    75.0000       212
    75.0200       190
    75.0400       206
    75.0600       198
    75.0800       208
    75.1000       210
    75.1200       218
    75.1400       202
    75.1600       212
    75.1800       202
    75.2000       202
    75.2200       222
    75.2400       192
    75.2600       234
    75.2800       216
    75.3000       196
    75.3200       216
    75.3400       208
    75.3600       230
    75.3800       230
    75.4000       210
    75.4200       206
    75.4400       190
    75.4600       222
    75.4800       226
    75.5000       234
    75.5200       236
    75.5400       246
    75.5600       236
    75.5800       226
    75.6000       236
    75.6200       234
    75.6400       250
    75.6600       280
    75.6800       266
    75.7000       272
    75.7200       296
    75.7400       310
    75.7600       318
    75.7800       328
    75.8000       342
    75.8200       364
    75.8400       348
    75.8600       332
    75.8800       338
    75.9000       312
    75.9200       336
    75.9400       352
    75.9600       334
    75.9800       334
    76.0000       312
    76.0200       350
    76.0400       336
    76.0600       324
    76.0800       312
    76.1000       332
    76.1200       304
    76.1400       304
    76.1600       318
    76.1800       312
    76.2000       274
    76.2200       310
    76.2400       296
    76.2600       296
    76.2800       326
    76.3000       356
    76.3200       334
    76.3400       324
    76.3600       342
    76.3800       320
    76.4000       322
    76.4200       340
    76.4400       306
    76.4600       362
    76.4800       354
    76.5000       390
    76.5200       354
    76.5400       384
    76.5600       362
    76.5800       388
    76.6000       382
    76.6200       400
    76.6400       460
    76.6600       386
    76.6800       432
    76.7000       430
    76.7200       416
    76.7400       402
    76.7600       396
    76.7800       398
    76.8000       376
    76.8200       390
    76.8400       370
    76.8600       410
    76.8800       352
    76.9000       390
    76.9200       324
    76.9400       362
    76.9600       368
    76.9800       346
    77.0000       348
    77.0200       332
    77.0400       310
    77.0600       292
    77.0800       334
    77.1000       316
    77.1200       338
    77.1400       324
    77.1600       354
    77.1800       324
    77.2000       348
    77.2200       368
    77.2400       336
    77.2600       358
    77.2800       348
    77.3000       386
    77.3200       368
    77.3400       428
    77.3600       486
    77.3800       476
    77.4000       518
    77.4200       546
    77.4400       598
    77.4600       648
    77.4800       672
    77.5000       688
    77.5200       804
    77.5400       810
    77.5600       848
    77.5800       856
    77.6000       942
    77.6200       950
    77.6400      1026
    77.6600      1006
    77.6800      1014
    77.7000      1026
    77.7200       912
    77.7400       964
    77.7600       886
    77.7800       918
    77.8000       880
    77.8200       874
    77.8400       840
    77.8600       748
    77.8800       778
    77.9000       730
    77.9200       718
    77.9400       730
    77.9600       650
    77.9800       608
    78.0000       590
    78.0200       520
    78.0400       524
    78.0600       466
    78.0800       474
    78.1000       444
    78.1200       430
    78.1400       442
    78.1600       426
    78.1800       402
    78.2000       404
    78.2200       380
    78.2400       402
    78.2600       394
    78.2800       356
    78.3000       392
    78.3200       378
    78.3400       374
    78.3600       362
    78.3800       374
    78.4000       360
    78.4200       394
    78.4400       376
    78.4600       396
    78.4800       420
    78.5000       436
    78.5200       396
    78.5400       446
    78.5600       420
    78.5800       440
    78.6000       454
    78.6200       456
    78.6400       432
    78.6600       490
    78.6800       460
    78.7000       466
    78.7200       472
    78.7400       496
    78.7600       462
    78.7800       432
    78.8000       412
    78.8200       436
    78.8400       398
    78.8600       392
    78.8800       376
    78.9000       410
    78.9200       350
    78.9400       348
    78.9600       366
    78.9800       370
    79.0000       332
    79.0200       312
    79.0400       316
    79.0600       290
    79.0800       312
    79.1000       272
    79.1200       278
    79.1400       292
    79.1600       256
    79.1800       272
    79.2000       258
    79.2200       256
    79.2400       270
    79.2600       262
    79.2800       254
    79.3000       236
    79.3200       270
    79.3400       234
    79.3600       288
    79.3800       278
    79.4000       214
    79.4200       258
    79.4400       250
    79.4600       244
    79.4800       262
    79.5000       234
    79.5200       282
    79.5400       234
    79.5600       254
    79.5800       302
    79.6000       258
    79.6200       284
    79.6400       256
    79.6600       274
    79.6800       256
    79.7000       266
    79.7200       280
    79.7400       304
    79.7600       294
    79.7800       246
    79.8000       230
    79.8200       286
    79.8400       288
    79.8600       252
    79.8800       258
    79.9000       294
    79.9200       262
    79.9400       274
    79.9600       244
    79.9800       272
    80.0000       246
    80.0200       222
    80.0400       242
    80.0600       282
    80.0800       256
    80.1000       256
    80.1200       238
    80.1400       240
    80.1600       234
    80.1800       238
    80.2000       246
    80.2200       272
    80.2400       258
    80.2600       238
    80.2800       278
    80.3000       240
    80.3200       222
    80.3400       230
    80.3600       210
    80.3800       234
    80.4000       224
    80.4200       280
    80.4400       236
    80.4600       220
    80.4800       238
    80.5000       216
    80.5200       250
    80.5400       206
    80.5600       248
    80.5800       220
    80.6000       260
    80.6200       218
    80.6400       232
    80.6600       222
    80.6800       206
    80.7000       230
    80.7200       234
    80.7400       196
    80.7600       218
    80.7800       212
    80.8000       216
    80.8200       218
    80.8400       202
    80.8600       210
    80.8800       216
    80.9000       196
    80.9200       194
    80.9400       190
    80.9600       228
    80.9800       182
    81.0000       240
    81.0200       222
    81.0400       196
    81.0600       224
    81.0800       192
    81.1000       246
    81.1200       228
    81.1400       212
    81.1600       230
    81.1800       236
    81.2000       220
    81.2200       236
    81.2400       236
    81.2600       258
    81.2800       236
    81.3000       298
    81.3200       278
    81.3400       290
    81.3600       272
    81.3800       242
    81.4000       258
    81.4200       262
    81.4400       234
    81.4600       276
    81.4800       268
    81.5000       272
    81.5200       270
    81.5400       260
    81.5600       270
    81.5800       250
    81.6000       254
    81.6200       284
    81.6400       268
    81.6600       244
    81.6800       256
    81.7000       264
    81.7200       264
    81.7400       296
    81.7600       246
    81.7800       268
    81.8000       254
    81.8200       264
    81.8400       246
    81.8600       238
    81.8800       270
    81.9000       272
    81.9200       244
    81.9400       294
    81.9600       286
    81.9800       274
    82.0000       286
    82.0200       246
    82.0400       296
    82.0600       270
    82.0800       276
    82.1000       280
    82.1200       340
    82.1400       272
    82.1600       290
    82.1800       326
    82.2000       304
    82.2200       338
    82.2400       326
    82.2600       376
    82.2800       328
    82.3000       330
    82.3200       384
    82.3400       362
    82.3600       318
    82.3800       334
    82.4000       342
    82.4200       358
    82.4400       336
    82.4600       360
    82.4800       370
    82.5000       318
    82.5200       354
    82.5400       358
    82.5600       354
    82.5800       330
    82.6000       360
    82.6200       334
    82.6400       418
    82.6600       370
    82.6800       356
    82.7000       376
    82.7200       428
    82.7400       412
    82.7600       394
    82.7800       370
    82.8000       376
    82.8200       442
    82.8400       426
    82.8600       438
    82.8800       422
    82.9000       420
    82.9200       446
    82.9400       408
    82.9600       366
    82.9800       400
    83.0000       382
    83.0200       422
    83.0400       416
    83.0600       422
    83.0800       424
    83.1000       394
    83.1200       394
    83.1400       380
    83.1600       448
    83.1800       374
    83.2000       412
    83.2200       426
    83.2400       402
    83.2600       364
    83.2800       424
    83.3000       402
    83.3200       396
    83.3400       368
    83.3600       418
    83.3800       368
    83.4000       410
    83.4200       400
    83.4400       398
    83.4600       366
    83.4800       368
    83.5000       378
    83.5200       356
    83.5400       308
    83.5600       334
    83.5800       322
    83.6000       312
    83.6200       314
    83.6400       294
    83.6600       348
    83.6800       312
    83.7000       322
    83.7200       298
    83.7400       326
    83.7600       298
    83.7800       272
    83.8000       320
    83.8200       316
    83.8400       286
    83.8600       286
    83.8800       282
    83.9000       304
    83.9200       306
    83.9400       292
    83.9600       290
    83.9800       318
    84.0000       272
    84.0200       320
    84.0400       310
    84.0600       296
    84.0800       292
    84.1000       300
    84.1200       300
    84.1400       294
    84.1600       266
    84.1800       298
    84.2000       278
    84.2200       262
    84.2400       290
    84.2600       264
    84.2800       236
    84.3000       246
    84.3200       216
    84.3400       252
    84.3600       226
    84.3800       240
    84.4000       266
    84.4200       240
    84.4400       260
    84.4600       240
    84.4800       218
    84.5000       228
    84.5200       242
    84.5400       234
    84.5600       228
    84.5800       220
    84.6000       224
    84.6200       228
    84.6400       214
    84.6600       218
    84.6800       240
    84.7000       232
    84.7200       208
    84.7400       250
    84.7600       210
    84.7800       202
    84.8000       218
    84.8200       204
    84.8400       226
    84.8600       222
    84.8800       208
    84.9000       216
    84.9200       206
    84.9400       188
    84.9600       204
    84.9800       226
    85.0000       196
    85.0200       218
    85.0400       222
    85.0600       226
    85.0800       230
    85.1000       214
    85.1200       208
    85.1400       222
    85.1600       220
    85.1800       216
    85.2000       212
    85.2200       218
    85.2400       202
    85.2600       206
    85.2800       224
    85.3000       220
    85.3200       214
    85.3400       238
    85.3600       248
    85.3800       234
    85.4000       274
    85.4200       232
    85.4400       274
    85.4600       254
    85.4800       268
    85.5000       270
    85.5200       276
    85.5400       272
    85.5600       260
    85.5800       302
    85.6000       274
    85.6200       280
    85.6400       272
    85.6600       270
    85.6800       244
    85.7000       260
    85.7200       276
    85.7400       260
    85.7600       270
    85.7800       212
    85.8000       232
    85.8200       236
    85.8400       242
    85.8600       252
    85.8800       250
    85.9000       238
    85.9200       230
    85.9400       248
    85.9600       220
    85.9800       218
    86.0000       206
    86.0200       182
    86.0400       192
    86.0600       194
    86.0800       210
    86.1000       212
    86.1200       206
    86.1400       210
    86.1600       204
    86.1800       184
    86.2000       192
    86.2200       190
    86.2400       194
    86.2600       198
    86.2800       182
    86.3000       204
    86.3200       220
    86.3400       214
    86.3600       210
    86.3800       206
    86.4000       206
    86.4200       218
    86.4400       202
    86.4600       222
    86.4800       182
    86.5000       196
    86.5200       238
    86.5400       184
    86.5600       228
    86.5800       246
    86.6000       224
    86.6200       250
    86.6400       236
    86.6600       230
    86.6800       252
    86.7000       264
    86.7200       254
    86.7400       274
    86.7600       264
    86.7800       286
    86.8000       294
    86.8200       286
    86.8400       320
    86.8600       338
    86.8800       340
    86.9000       342
    86.9200       358
    86.9400       328
    86.9600       348
    86.9800       356
    87.0000       388
    87.0200       356
    87.0400       358
    87.0600       420
    87.0800       376
    87.1000       384
    87.1200       404
    87.1400       426
    87.1600       394
    87.1800       394
    87.2000       442
    87.2200       436
    87.2400       414
    87.2600       486
    87.2800       454
    87.3000       438
    87.3200       490
    87.3400       478
    87.3600       492
    87.3800       500
    87.4000       476
    87.4200       466
    87.4400       460
    87.4600       482
    87.4800       502
    87.5000       502
    87.5200       480
    87.5400       454
    87.5600       490
    87.5800       458
    87.6000       460
    87.6200       450
    87.6400       464
    87.6600       434
    87.6800       520
    87.7000       456
    87.7200       444
    87.7400       446
    87.7600       450
    87.7800       444
    87.8000       410
    87.8200       392
    87.8400       428
    87.8600       454
    87.8800       396
    87.9000       416
    87.9200       436
    87.9400       406
    87.9600       394
    87.9800       382
    88.0000       364
    88.0200       394
    88.0400       374
    88.0600       362
    88.0800       370
    88.1000       382
    88.1200       356
    88.1400       366
    88.1600       348
    88.1800       340
    88.2000       316
    88.2200       316
    88.2400       296
    88.2600       314
    88.2800       324
    88.3000       288
    88.3200       304
    88.3400       286
    88.3600       308
    88.3800       296
    88.4000       320
    88.4200       304
    88.4400       300
    88.4600       282
    88.4800       268
    88.5000       258
    88.5200       282
    88.5400       270
    88.5600       314
    88.5800       270
    88.6000       304
    88.6200       284
    88.6400       284
    88.6600       268
    88.6800       270
    88.7000       272
    88.7200       284
    88.7400       268
    88.7600       288
    88.7800       250
    88.8000       292
    88.8200       284
    88.8400       266
    88.8600       272
    88.8800       254
    88.9000       248
    88.9200       282
    88.9400       252
    88.9600       258
    88.9800       248
    89.0000       242
    89.0200       256
    89.0400       218
    89.0600       246
    89.0800       244
    89.1000       246
    89.1200       266
    89.1400       280
    89.1600       228
    89.1800       252
    89.2000       260
    89.2200       216
    89.2400       224
    89.2600       242
    89.2800       232
    89.3000       260
    89.3200       252
    89.3400       282
    89.3600       256
    89.3800       248
    89.4000       254
    89.4200       264
    89.4400       258
    89.4600       294
    89.4800       258
    89.5000       248
    89.5200       282
    89.5400       292
    89.5600       262
    89.5800       254
    89.6000       280
    89.6200       254
    89.6400       264
    89.6600       254
    89.6800       306
    89.7000       296
    89.7200       314
    89.7400       282
    89.7600       266
    89.7800       278
    89.8000       318
    89.8200       292
    89.8400       270
    89.8600       276
    89.8800       264
    89.9000       304
    89.9200       326
    89.9400       306
    89.9600       288
    89.9800       292
    90.0000       310
