    10.0000       420
    10.0200       398
    10.0400       390
    10.0600       404
    10.0800       400
    10.1000       400
    10.1200       392
    10.1400       398
    10.1600       382
    10.1800       388
    10.2000       400
    10.2200       344
    10.2400       386
    10.2600       384
    10.2800       370
    10.3000       362
    10.3200       368
    10.3400       352
    10.3600       348
    10.3800       366
    10.4000       330
    10.4200       318
    10.4400       356
    10.4600       322
    10.4800       330
    10.5000       340
    10.5200       356
    10.5400       370
    10.5600       346
    10.5800       358
    10.6000       346
    10.6200       344
    10.6400       330
    10.6600       348
    10.6800       336
    10.7000       366
    10.7200       384
    10.7400       350
    10.7600       304
    10.7800       336
    10.8000       344
    10.8200       350
    10.8400       324
    10.8600       334
    10.8800       328
    10.9000       306
    10.9200       304
    10.9400       312
    10.9600       360
    10.9800       346
    11.0000       330
    11.0200       356
    11.0400       330
    11.0600       350
    11.0800       326
    11.1000       352
    11.1200       324
    11.1400       300
    11.1600       298
    11.1800       298
    11.2000       310
    11.2200       298
    11.2400       282
    11.2600       310
    11.2800       312
    11.3000       296
    11.3200       344
    11.3400       274
    11.3600       268
    11.3800       324
    11.4000       334
    11.4200       312
    11.4400       318
    11.4600       352
    11.4800       300
    11.5000       286
    11.5200       334
    11.5400       310
    11.5600       300
    11.5800       348
    11.6000       296
    11.6200       324
    11.6400       326
    11.6600       318
    11.6800       308
    11.7000       328
    11.7200       334
    11.7400       346
    11.7600       334
    11.7800       324
    11.8000       320
    11.8200       368
    11.8400       336
    11.8600       346
    11.8800       376
    11.9000       352
    11.9200       324
    11.9400       366
    11.9600       374
    11.9800       392
    12.0000       394
    12.0200       438
    12.0400       442
    12.0600       412
    12.0800       438
    12.1000       482
    12.1200       494
    12.1400       486
    12.1600       536
    12.1800       582
    12.2000       574
    12.2200       540
    12.2400       566
    12.2600       518
    12.2800       524
    12.3000       418
    12.3200       372
    12.3400       376
    12.3600       368
    12.3800       330
    12.4000       332
    12.4200       286
    12.4400       306
    12.4600       316
    12.4800       272
    12.5000       300
    12.5200       304
    12.5400       286
    12.5600       280
    12.5800       286
    12.6000       266
    12.6200       264
    12.6400       280
    12.6600       260
    12.6800       280
    12.7000       280
    12.7200       296
    12.7400       298
    12.7600       294
    12.7800       286
    12.8000       282
    12.8200       292
    12.8400       260
    12.8600       276
    12.8800       262
    12.9000       298
    12.9200       296
    12.9400       302
    12.9600       270
    12.9800       280
    13.0000       288
    13.0200       294
    13.0400       262
    13.0600       304
    13.0800       284
    13.1000       312
    13.1200       270
    13.1400       256
    13.1600       292
    13.1800       298
    13.2000       250
    13.2200       242
    13.2400       288
    13.2600       264
    13.2800       248
    13.3000       274
    13.3200       266
    13.3400       272
    13.3600       274
    13.3800       272
    13.4000       222
    13.4200       238
    13.4400       262
    13.4600       272
    13.4800       258
    13.5000       242
    13.5200       262
    13.5400       244
    13.5600       244
    13.5800       242
    13.6000       272
    13.6200       256
    13.6400       228
    13.6600       242
    13.6800       256
    13.7000       264
    13.7200       298
    13.7400       224
    13.7600       244
    13.7800       274
    13.8000       258
    13.8200       244
    13.8400       290
    13.8600       238
    13.8800       266
    13.9000       248
    13.9200       284
    13.9400       240
    13.9600       232
    13.9800       264
    14.0000       268
    14.0200       254
    14.0400       242
    14.0600       216
    14.0800       256
    14.1000       222
    14.1200       260
    14.1400       252
    14.1600       256
    14.1800       242
    14.2000       276
    14.2200       256
    14.2400       236
    14.2600       252
    14.2800       256
    14.3000       252
    14.3200       248
    14.3400       212
    14.3600       236
    14.3800       230
    14.4000       274
    14.4200       272
    14.4400       238
    14.4600       242
    14.4800       272
    14.5000       284
    14.5200       248
    14.5400       258
    14.5600       240
    14.5800       232
    14.6000       242
    14.6200       230
    14.6400       246
    14.6600       234
    14.6800       262
    14.7000       250
    14.7200       288
    14.7400       270
    14.7600       266
    14.7800       270
    14.8000       268
    14.8200       284
    14.8400       278
    14.8600       274
    14.8800       274
    14.9000       274
    14.9200       300
    14.9400       322
    14.9600       338
    14.9800       328
    15.0000       342
    15.0200       370
    15.0400       364
    15.0600       382
    15.0800       410
    15.1000       448
    15.1200       430
    15.1400       388
    15.1600       384
    15.1800       396
    15.2000       410
    15.2200       388
    15.2400       346
    15.2600       334
    15.2800       318
    15.3000       322
    15.3200       260
    15.3400       268
    15.3600       240
    15.3800       248
    15.4000       230
    15.4200       238
    15.4400       258
    15.4600       238
    15.4800       250
    15.5000       238
    15.5200       226
    15.5400       226
    15.5600       220
    15.5800       244
    15.6000       230
    15.6200       238
    15.6400       222
    15.6600       234
    15.6800       194
    15.7000       246
    15.7200       226
    15.7400       230
    15.7600       222
    15.7800       222
    15.8000       244
    15.8200       236
    15.8400       220
    15.8600       224
    15.8800       222
    15.9000       238
    15.9200       210
    15.9400       228
    15.9600       224
    15.9800       210
    16.0000       216
    16.0200       210
    16.0400       236
    16.0600       224
    16.0800       244
    16.1000       204
    16.1200       244
    16.1400       232
    16.1600       200
    16.1800       234
    16.2000       234
    16.2200       206
    16.2400       248
    16.2600       242
    16.2800       252
    16.3000       234
    16.3200       202
    16.3400       218
    16.3600       228
    16.3800       216
    16.4000       208
    16.4200       204
    16.4400       220
    16.4600       218
    16.4800       230
    16.5000       220
    16.5200       230
    16.5400       264
    16.5600       220
    16.5800       210
    16.6000       210
    16.6200       224
    16.6400       212
    16.6600       206
    16.6800       254
    16.7000       246
    16.7200       240
    16.7400       234
    16.7600       268
    16.7800       220
    16.8000       252
    16.8200       294
    16.8400       258
    16.8600       244
    16.8800       298
    16.9000       290
    16.9200       330
    16.9400       334
    16.9600       360
    16.9800       396
    17.0000       392
    17.0200       450
    17.0400       410
    17.0600       500
    17.0800       500
    17.1000       546
    17.1200       540
    17.1400       582
    17.1600       636
    17.1800       656
    17.2000       664
    17.2200       636
    17.2400       642
    17.2600       628
    17.2800       654
    17.3000       620
    17.3200       582
    17.3400       554
    17.3600       522
    17.3800       514
    17.4000       434
    17.4200       406
    17.4400       440
    17.4600       400
    17.4800       400
    17.5000       408
    17.5200       360
    17.5400       344
    17.5600       334
    17.5800       320
    17.6000       328
    17.6200       320
    17.6400       282
    17.6600       330
    17.6800       278
    17.7000       314
    17.7200       308
    17.7400       296
    17.7600       302
    17.7800       254
    17.8000       270
    17.8200       254
    17.8400       252
    17.8600       234
    17.8800       236
    17.9000       234
    17.9200       214
    17.9400       200
    17.9600       202
    17.9800       202
    18.0000       228
    18.0200       210
    18.0400       206
    18.0600       210
    18.0800       206
    18.1000       198
    18.1200       206
    18.1400       212
    18.1600       204
    18.1800       204
    18.2000       214
    18.2200       222
    18.2400       226
    18.2600       198
    18.2800       208
    18.3000       222
    18.3200       188
    18.3400       198
    18.3600       202
    18.3800       178
    18.4000       204
    18.4200       206
    18.4400       214
    18.4600       206
    18.4800       174
    18.5000       216
    18.5200       224
    18.5400       220
    18.5600       208
    18.5800       200
    18.6000       230
    18.6200       218
    18.6400       244
    18.6600       216
    18.6800       200
    18.7000       202
    18.7200       236
    18.7400       188
    18.7600       220
    18.7800       212
    18.8000       218
    18.8200       220
    18.8400       234
    18.8600       258
    18.8800       250
    18.9000       252
    18.9200       270
    18.9400       272
    18.9600       262
    18.9800       266
    19.0000       292
    19.0200       258
    19.0400       294
    19.0600       338
    19.0800       300
    19.1000       340
    19.1200       362
    19.1400       398
    19.1600       434
    19.1800       428
    19.2000       504
    19.2200       518
    19.2400       624
    19.2600       650
    19.2800       710
    19.3000       810
    19.3200       902
    19.3400      1050
    19.3600      1208
    19.3800      1400
    19.4000      1570
    19.4200      1816
    19.4400      2060
    19.4600      2366
    19.4800      2680
    19.5000      3052
    19.5200      3326
    19.5400      3608
    19.5600      3618
    19.5800      3450
    19.6000      3040
    19.6200      2556
    19.6400      1976
    19.6600      1628
    19.6800      1368
    19.7000      1230
    19.7200      1174
    19.7400      1168
    19.7600      1116
    19.7800      1190
    19.8000      1252
    19.8200      1368
    19.8400      1518
    19.8600      1650
    19.8800      1868
    19.9000      2116
    19.9200      2286
    19.9400      2528
    19.9600      2746
    19.9800      2844
    20.0000      2866
    20.0200      2684
    20.0400      2368
    20.0600      2130
    20.0800      1712
    20.1000      1404
    20.1200      1150
    20.1400       950
    20.1600       846
    20.1800       722
    20.2000       664
    20.2200       586
    20.2400       638
    20.2600       626
    20.2800       658
    20.3000       612
    20.3200       564
    20.3400       550
    20.3600       508
    20.3800       568
    20.4000       484
    20.4200       454
    20.4400       410
    20.4600       358
    20.4800       380
    20.5000       338
    20.5200       286
    20.5400       294
    20.5600       266
    20.5800       278
    20.6000       232
    20.6200       232
    20.6400       280
    20.6600       252
    20.6800       268
    20.7000       254
    20.7200       260
    20.7400       262
    20.7600       244
    20.7800       288
    20.8000       276
    20.8200       282
    20.8400       334
    20.8600       344
    20.8800       348
    20.9000       374
    20.9200       382
    20.9400       426
    20.9600       454
    20.9800       496
    21.0000       574
    21.0200       626
    21.0400       662
    21.0600       774
    21.0800       816
    21.1000       898
    21.1200       992
    21.1400      1178
    21.1600      1226
    21.1800      1338
    21.2000      1442
    21.2200      1372
    21.2400      1378
    21.2600      1424
    21.2800      1322
    21.3000      1174
    21.3200      1064
    21.3400       924
    21.3600       832
    21.3800       700
    21.4000       608
    21.4200       518
    21.4400       470
    21.4600       416
    21.4800       328
    21.5000       326
    21.5200       302
    21.5400       290
    21.5600       292
    21.5800       250
    21.6000       254
    21.6200       256
    21.6400       264
    21.6600       262
    21.6800       228
    21.7000       230
    21.7200       228
    21.7400       216
    21.7600       224
    21.7800       216
    21.8000       204
    21.8200       214
    21.8400       202
    21.8600       220
    21.8800       228
    21.9000       214
    21.9200       212
    21.9400       198
    21.9600       224
    21.9800       202
    22.0000       188
    22.0200       216
    22.0400       208
    22.0600       200
    22.0800       224
    22.1000       192
    22.1200       216
    22.1400       208
    22.1600       246
    22.1800       218
    22.2000       272
    22.2200       256
    22.2400       272
    22.2600       238
    22.2800       270
    22.3000       256
    22.3200       232
    22.3400       290
    22.3600       284
    22.3800       320
    22.4000       306
    22.4200       368
    22.4400       388
    22.4600       382
    22.4800       462
    22.5000       498
    22.5200       620
    22.5400       598
    22.5600       666
    22.5800       724
    22.6000       888
    22.6200       980
    22.6400      1158
    22.6600      1262
    22.6800      1514
    22.7000      1714
    22.7200      2080
    22.7400      2358
    22.7600      2888
    22.7800      3234
    22.8000      3822
    22.8200      4124
    22.8400      4558
    22.8600      4830
    22.8800      4860
    22.9000      4552
    22.9200      3948
    22.9400      3328
    22.9600      2652
    22.9800      2068
    23.0000      1542
    23.0200      1230
    23.0400      1030
    23.0600       880
    23.0800       766
    23.1000       674
    23.1200       590
    23.1400       528
    23.1600       462
    23.1800       522
    23.2000       450
    23.2200       392
    23.2400       396
    23.2600       374
    23.2800       330
    23.3000       332
    23.3200       312
    23.3400       322
    23.3600       312
    23.3800       286
    23.4000       282
    23.4200       270
    23.4400       302
    23.4600       258
    23.4800       280
    23.5000       286
    23.5200       266
    23.5400       252
    23.5600       278
    23.5800       230
    23.6000       272
    23.6200       268
    23.6400       254
    23.6600       292
    23.6800       284
    23.7000       306
    23.7200       274
    23.7400       266
    23.7600       262
    23.7800       294
    23.8000       258
    23.8200       252
    23.8400       272
    23.8600       254
    23.8800       244
    23.9000       292
    23.9200       276
    23.9400       288
    23.9600       270
    23.9800       292
    24.0000       284
    24.0200       332
    24.0400       284
    24.0600       286
    24.0800       308
    24.1000       326
    24.1200       252
    24.1400       316
    24.1600       344
    24.1800       348
    24.2000       346
    24.2200       392
    24.2400       438
    24.2600       486
    24.2800       496
    24.3000       526
    24.3200       586
    24.3400       674
    24.3600       758
    24.3800       918
    24.4000       960
    24.4200      1066
    24.4400      1278
    24.4600      1408
    24.4800      1448
    24.5000      1512
    24.5200      1478
    24.5400      1590
    24.5600      1424
    24.5800      1436
    24.6000      1324
    24.6200      1150
    24.6400      1026
    24.6600       910
    24.6800       870
    24.7000       786
    24.7200       680
    24.7400       598
    24.7600       586
    24.7800       558
    24.8000       446
    24.8200       440
    24.8400       452
    24.8600       426
    24.8800       402
    24.9000       372
    24.9200       376
    24.9400       386
    24.9600       372
    24.9800       324
    25.0000       376
    25.0200       344
    25.0400       360
    25.0600       390
    25.0800       340
    25.1000       360
    25.1200       378
    25.1400       362
    25.1600       380
    25.1800       382
    25.2000       352
    25.2200       374
    25.2400       376
    25.2600       398
    25.2800       394
    25.3000       398
    25.3200       384
    25.3400       402
    25.3600       416
    25.3800       432
    25.4000       472
    25.4200       550
    25.4400       522
    25.4600       574
    25.4800       708
    25.5000       734
    25.5200       846
    25.5400       942
    25.5600      1022
    25.5800      1094
    25.6000      1126
    25.6200      1118
    25.6400      1048
    25.6600       964
    25.6800       868
    25.7000       762
    25.7200       622
    25.7400       530
    25.7600       436
    25.7800       384
    25.8000       370
    25.8200       308
    25.8400       310
    25.8600       330
    25.8800       290
    25.9000       286
    25.9200       266
    25.9400       284
    25.9600       244
    25.9800       268
    26.0000       288
    26.0200       286
    26.0400       264
    26.0600       274
    26.0800       282
    26.1000       256
    26.1200       252
    26.1400       296
    26.1600       314
    26.1800       288
    26.2000       326
    26.2200       376
    26.2400       394
    26.2600       406
    26.2800       436
    26.3000       474
    26.3200       536
    26.3400       610
    26.3600       664
    26.3800       620
    26.4000       726
    26.4200       750
    26.4400       754
    26.4600       754
    26.4800       792
    26.5000       788
    26.5200       770
    26.5400       838
    26.5600       890
    26.5800       830
    26.6000       904
    26.6200       894
    26.6400       952
    26.6600       920
    26.6800       956
    26.7000       924
    26.7200       846
    26.7400       844
    26.7600       772
    26.7800       768
    26.8000       656
    26.8200       618
    26.8400       518
    26.8600       500
    26.8800       436
    26.9000       416
    26.9200       402
    26.9400       398
    26.9600       358
    26.9800       350
    27.0000       312
    27.0200       382
    27.0400       338
    27.0600       362
    27.0800       374
    27.1000       390
    27.1200       352
    27.1400       416
    27.1600       394
    27.1800       452
    27.2000       434
    27.2200       436
    27.2400       450
    27.2600       518
    27.2800       504
    27.3000       534
    27.3200       568
    27.3400       592
    27.3600       652
    27.3800       744
    27.4000       800
    27.4200       848
    27.4400       892
    27.4600       896
    27.4800       968
    27.5000       894
    27.5200       936
    27.5400       870
    27.5600       844
    27.5800       794
    27.6000       756
    27.6200       708
    27.6400       652
    27.6600       602
    27.6800       558
    27.7000       510
    27.7200       466
    27.7400       460
    27.7600       440
    27.7800       384
    27.8000       384
    27.8200       320
    27.8400       330
    27.8600       314
    27.8800       290
    27.9000       330
    27.9200       276
    27.9400       304
    27.9600       254
    27.9800       284
    28.0000       276
    28.0200       268
    28.0400       284
    28.0600       254
    28.0800       256
    28.1000       256
    28.1200       246
    28.1400       288
    28.1600       300
    28.1800       306
    28.2000       274
    28.2200       282
    28.2400       230
    28.2600       246
    28.2800       284
    28.3000       272
    28.3200       280
    28.3400       294
    28.3600       250
    28.3800       226
    28.4000       232
    28.4200       240
    28.4400       248
    28.4600       218
    28.4800       208
    28.5000       226
    28.5200       192
    28.5400       222
    28.5600       216
    28.5800       212
    28.6000       208
    28.6200       224
    28.6400       220
    28.6600       218
    28.6800       230
    28.7000       242
    28.7200       206
    28.7400       214
    28.7600       270
    28.7800       240
    28.8000       244
    28.8200       234
    28.8400       214
    28.8600       224
    28.8800       230
    28.9000       218
    28.9200       208
    28.9400       232
    28.9600       224
    28.9800       236
    29.0000       250
    29.0200       222
    29.0400       248
    29.0600       246
    29.0800       280
    29.1000       266
    29.1200       260
    29.1400       252
    29.1600       258
    29.1800       244
    29.2000       264
    29.2200       262
    29.2400       258
    29.2600       298
    29.2800       314
    29.3000       276
    29.3200       298
    29.3400       308
    29.3600       310
    29.3800       310
    29.4000       352
    29.4200       356
    29.4400       386
    29.4600       376
    29.4800       348
    29.5000       378
    29.5200       374
    29.5400       414
    29.5600       416
    29.5800       392
    29.6000       392
    29.6200       390
    29.6400       366
    29.6600       356
    29.6800       318
    29.7000       394
    29.7200       344
    29.7400       300
    29.7600       316
    29.7800       352
    29.8000       356
    29.8200       334
    29.8400       338
    29.8600       330
    29.8800       344
    29.9000       412
    29.9200       416
    29.9400       450
    29.9600       520
    29.9800       596
    30.0000       612
    30.0200       698
    30.0400       780
    30.0600       810
    30.0800       928
    30.1000      1022
    30.1200      1178
    30.1400      1214
    30.1600      1392
    30.1800      1488
    30.2000      1550
    30.2200      1628
    30.2400      1648
    30.2600      1624
    30.2800      1566
    30.3000      1498
    30.3200      1462
    30.3400      1442
    30.3600      1406
    30.3800      1308
    30.4000      1370
    30.4200      1308
    30.4400      1302
    30.4600      1342
    30.4800      1332
    30.5000      1286
    30.5200      1292
    30.5400      1246
    30.5600      1324
    30.5800      1316
    30.6000      1320
    30.6200      1318
    30.6400      1186
    30.6600      1236
    30.6800      1148
    30.7000      1114
    30.7200      1056
    30.7400      1036
    30.7600       946
    30.7800       808
    30.8000       732
    30.8200       698
    30.8400       586
    30.8600       536
    30.8800       516
    30.9000       490
    30.9200       474
    30.9400       440
    30.9600       456
    30.9800       374
    31.0000       380
    31.0200       402
    31.0400       398
    31.0600       336
    31.0800       322
    31.1000       286
    31.1200       352
    31.1400       296
    31.1600       322
    31.1800       278
    31.2000       296
    31.2200       280
    31.2400       324
    31.2600       302
    31.2800       310
    31.3000       302
    31.3200       302
    31.3400       260
    31.3600       326
    31.3800       288
    31.4000       302
    31.4200       336
    31.4400       336
    31.4600       336
    31.4800       360
    31.5000       344
    31.5200       390
    31.5400       416
    31.5600       478
    31.5800       460
    31.6000       470
    31.6200       548
    31.6400       596
    31.6600       612
    31.6800       678
    31.7000       730
    31.7200       812
    31.7400       850
    31.7600       850
    31.7800      1016
    31.8000      1142
    31.8200      1202
    31.8400      1274
    31.8600      1478
    31.8800      1560
    31.9000      1856
    31.9200      2010
    31.9400      2228
    31.9600      2542
    31.9800      2688
    32.0000      2832
    32.0200      2688
    32.0400      2610
    32.0600      2410
    32.0800      2262
    32.1000      2006
    32.1200      1784
    32.1400      1652
    32.1600      1556
    32.1800      1432
    32.2000      1440
    32.2200      1518
    32.2400      1540
    32.2600      1632
    32.2800      1758
    32.3000      1912
    32.3200      2098
    32.3400      2294
    32.3600      2590
    32.3800      3032
    32.4000      3476
    32.4200      4094
    32.4400      4798
    32.4600      5456
    32.4800      6308
    32.5000      7128
    32.5200      7780
    32.5400      8204
    32.5600      8584
    32.5800      8328
    32.6000      7900
    32.6200      7334
    32.6400      6800
    32.6600      5998
    32.6800      5074
    32.7000      4304
    32.7200      3708
    32.7400      3104
    32.7600      2582
    32.7800      2204
    32.8000      1866
    32.8200      1724
    32.8400      1520
    32.8600      1432
    32.8800      1294
    32.9000      1246
    32.9200      1210
    32.9400      1278
    32.9600      1306
    32.9800      1354
    33.0000      1400
    33.0200      1538
    33.0400      1634
    33.0600      1706
    33.0800      1806
    33.1000      1740
    33.1200      1712
    33.1400      1624
    33.1600      1494
    33.1800      1364
    33.2000      1152
    33.2200       980
    33.2400       876
    33.2600       732
    33.2800       646
    33.3000       602
    33.3200       502
    33.3400       468
    33.3600       420
    33.3800       466
    33.4000       400
    33.4200       388
    33.4400       360
    33.4600       348
    33.4800       324
    33.5000       322
    33.5200       252
    33.5400       302
    33.5600       306
    33.5800       282
    33.6000       248
    33.6200       254
    33.6400       262
    33.6600       278
    33.6800       248
    33.7000       302
    33.7200       232
    33.7400       240
    33.7600       238
    33.7800       232
    33.8000       236
    33.8200       206
    33.8400       216
    33.8600       248
    33.8800       226
    33.9000       216
    33.9200       224
    33.9400       236
    33.9600       246
    33.9800       214
    34.0000       232
    34.0200       226
    34.0400       246
    34.0600       262
    34.0800       240
    34.1000       230
    34.1200       222
    34.1400       248
    34.1600       218
    34.1800       250
    34.2000       248
    34.2200       230
    34.2400       220
    34.2600       216
    34.2800       220
    34.3000       274
    34.3200       206
    34.3400       264
    34.3600       234
    34.3800       248
    34.4000       216
    34.4200       238
    34.4400       244
    34.4600       238
    34.4800       266
    34.5000       256
    34.5200       298
    34.5400       302
    34.5600       292
    34.5800       292
    34.6000       304
    34.6200       260
    34.6400       280
    34.6600       282
    34.6800       320
    34.7000       316
    34.7200       288
    34.7400       280
    34.7600       288
    34.7800       252
    34.8000       304
    34.8200       280
    34.8400       278
    34.8600       272
    34.8800       278
    34.9000       298
    34.9200       316
    34.9400       306
    34.9600       296
    34.9800       278
    35.0000       288
    35.0200       266
    35.0400       300
    35.0600       264
    35.0800       288
    35.1000       304
    35.1200       270
    35.1400       274
    35.1600       288
    35.1800       266
    35.2000       276
    35.2200       274
    35.2400       272
    35.2600       242
    35.2800       274
    35.3000       284
    35.3200       280
    35.3400       266
    35.3600       292
    35.3800       290
    35.4000       290
    35.4200       258
    35.4400       264
    35.4600       260
    35.4800       268
    35.5000       316
    35.5200       290
    35.5400       284
    35.5600       308
    35.5800       300
    35.6000       290
    35.6200       306
    35.6400       288
    35.6600       320
    35.6800       322
    35.7000       336
    35.7200       336
    35.7400       352
    35.7600       394
    35.7800       354
    35.8000       362
    35.8200       394
    35.8400       370
    35.8600       442
    35.8800       430
    35.9000       476
    35.9200       448
    35.9400       468
    35.9600       512
    35.9800       508
    36.0000       540
    36.0200       524
    36.0400       608
    36.0600       646
    36.0800       718
    36.1000       746
    36.1200       740
    36.1400       742
    36.1600       852
    36.1800       762
    36.2000       676
    36.2200       674
    36.2400       634
    36.2600       578
    36.2800       570
    36.3000       546
    36.3200       496
    36.3400       480
    36.3600       452
    36.3800       418
    36.4000       398
    36.4200       426
    36.4400       410
    36.4600       412
    36.4800       432
    36.5000       414
    36.5200       436
    36.5400       476
    36.5600       526
    36.5800       506
    36.6000       536
    36.6200       594
    36.6400       654
    36.6600       696
    36.6800       734
    36.7000       806
    36.7200       882
    36.7400      1048
    36.7600      1164
    36.7800      1272
    36.8000      1526
    36.8200      1708
    36.8400      1864
    36.8600      2098
    36.8800      2168
    36.9000      2288
    36.9200      2204
    36.9400      2118
    36.9600      2020
    36.9800      1884
    37.0000      1720
    37.0200      1544
    37.0400      1416
    37.0600      1222
    37.0800      1206
    37.1000       970
    37.1200      1050
    37.1400      1000
    37.1600       950
    37.1800       884
    37.2000       904
    37.2200       880
    37.2400       806
    37.2600       806
    37.2800       880
    37.3000       812
    37.3200       776
    37.3400       778
    37.3600       734
    37.3800       780
    37.4000       702
    37.4200       712
    37.4400       712
    37.4600       730
    37.4800       752
    37.5000       740
    37.5200       832
    37.5400       840
    37.5600       792
    37.5800       848
    37.6000       862
    37.6200       908
    37.6400       882
    37.6600       926
    37.6800       918
    37.7000       868
    37.7200       986
    37.7400       910
    37.7600       928
    37.7800       926
    37.8000      1008
    37.8200       970
    37.8400      1076
    37.8600      1136
    37.8800      1244
    37.9000      1354
    37.9200      1624
    37.9400      1728
    37.9600      1886
    37.9800      2034
    38.0000      2224
    38.0200      2366
    38.0400      2376
    38.0600      2188
    38.0800      2176
    38.1000      2130
    38.1200      2040
    38.1400      1814
    38.1600      1776
    38.1800      1666
    38.2000      1616
    38.2200      1602
    38.2400      1626
    38.2600      1680
    38.2800      1674
    38.3000      1836
    38.3200      2018
    38.3400      2218
    38.3600      2420
    38.3800      2700
    38.4000      3102
    38.4200      3472
    38.4400      3872
    38.4600      4082
    38.4800      4362
    38.5000      4374
    38.5200      4488
    38.5400      4522
    38.5600      4356
    38.5800      4312
    38.6000      4338
    38.6200      4140
    38.6400      4070
    38.6600      4036
    38.6800      3872
    38.7000      4034
    38.7200      4044
    38.7400      3882
    38.7600      3666
    38.7800      3462
    38.8000      3240
    38.8200      3068
    38.8400      2656
    38.8600      2464
    38.8800      2136
    38.9000      1924
    38.9200      1760
    38.9400      1526
    38.9600      1368
    38.9800      1204
    39.0000      1120
    39.0200      1062
    39.0400      1030
    39.0600       952
    39.0800       918
    39.1000       958
    39.1200       924
    39.1400       876
    39.1600       862
    39.1800       880
    39.2000       882
    39.2200       918
    39.2400       864
    39.2600       910
    39.2800       932
    39.3000       928
    39.3200       876
    39.3400       944
    39.3600       944
    39.3800       954
    39.4000       954
    39.4200       994
    39.4400      1000
    39.4600      1012
    39.4800      1080
    39.5000      1104
    39.5200      1126
    39.5400      1224
    39.5600      1486
    39.5800      1524
    39.6000      1728
    39.6200      2012
    39.6400      2216
    39.6600      2362
    39.6800      2524
    39.7000      2620
    39.7200      2600
    39.7400      2526
    39.7600      2294
    39.7800      2088
    39.8000      1990
    39.8200      1744
    39.8400      1558
    39.8600      1350
    39.8800      1212
    39.9000      1050
    39.9200      1002
    39.9400       918
    39.9600       774
    39.9800       778
    40.0000       736
    40.0200       762
    40.0400       656
    40.0600       638
    40.0800       638
    40.1000       664
    40.1200       618
    40.1400       598
    40.1600       608
    40.1800       648
    40.2000       606
    40.2200       624
    40.2400       612
    40.2600       642
    40.2800       658
    40.3000       644
    40.3200       628
    40.3400       724
    40.3600       692
    40.3800       730
    40.4000       848
    40.4200       864
    40.4400       966
    40.4600      1070
    40.4800      1156
    40.5000      1166
    40.5200      1338
    40.5400      1338
    40.5600      1472
    40.5800      1422
    40.6000      1478
    40.6200      1548
    40.6400      1466
    40.6600      1398
    40.6800      1398
    40.7000      1288
    40.7200      1204
    40.7400      1090
    40.7600       996
    40.7800       900
    40.8000       922
    40.8200       834
    40.8400       682
    40.8600       720
    40.8800       700
    40.9000       670
    40.9200       632
    40.9400       684
    40.9600       676
    40.9800       638
    41.0000       664
    41.0200       654
    41.0400       750
    41.0600       744
    41.0800       744
    41.1000       830
    41.1200       808
    41.1400       898
    41.1600       938
    41.1800      1040
    41.2000       970
    41.2200      1168
    41.2400      1154
    41.2600      1238
    41.2800      1298
    41.3000      1344
    41.3200      1276
    41.3400      1360
    41.3600      1362
    41.3800      1236
    41.4000      1286
    41.4200      1220
    41.4400      1166
    41.4600      1174
    41.4800      1046
    41.5000      1026
    41.5200      1016
    41.5400       976
    41.5600       946
    41.5800       910
    41.6000       896
    41.6200       836
    41.6400       794
    41.6600       882
    41.6800       896
    41.7000       968
    41.7200      1028
    41.7400      1014
    41.7600      1146
    41.7800      1306
    41.8000      1430
    41.8200      1552
    41.8400      1672
    41.8600      1856
    41.8800      1874
    41.9000      1966
    41.9200      2044
    41.9400      1886
    41.9600      1802
    41.9800      1684
    42.0000      1604
    42.0200      1466
    42.0400      1314
    42.0600      1196
    42.0800      1086
    42.1000       990
    42.1200       880
    42.1400       778
    42.1600       712
    42.1800       734
    42.2000       640
    42.2200       594
    42.2400       560
    42.2600       542
    42.2800       520
    42.3000       534
    42.3200       528
    42.3400       546
    42.3600       514
    42.3800       480
    42.4000       520
    42.4200       470
    42.4400       426
    42.4600       448
    42.4800       444
    42.5000       460
    42.5200       452
    42.5400       418
    42.5600       380
    42.5800       392
    42.6000       418
    42.6200       360
    42.6400       394
    42.6600       408
    42.6800       362
    42.7000       392
    42.7200       454
    42.7400       418
    42.7600       394
    42.7800       400
    42.8000       456
    42.8200       404
    42.8400       482
    42.8600       500
    42.8800       468
    42.9000       558
    42.9200       610
    42.9400       562
    42.9600       684
    42.9800       742
    43.0000       790
    43.0200       906
    43.0400       970
    43.0600      1108
    43.0800      1206
    43.1000      1362
    43.1200      1508
    43.1400      1622
    43.1600      1880
    43.1800      1890
    43.2000      1838
    43.2200      1996
    43.2400      1860
    43.2600      1734
    43.2800      1652
    43.3000      1532
    43.3200      1436
    43.3400      1362
    43.3600      1120
    43.3800      1034
    43.4000       944
    43.4200       812
    43.4400       756
    43.4600       704
    43.4800       696
    43.5000       598
    43.5200       578
    43.5400       570
    43.5600       498
    43.5800       498
    43.6000       528
    43.6200       564
    43.6400       566
    43.6600       608
    43.6800       572
    43.7000       596
    43.7200       654
    43.7400       614
    43.7600       692
    43.7800       724
    43.8000       680
    43.8200       726
    43.8400       710
    43.8600       758
    43.8800       698
    43.9000       730
    43.9200       716
    43.9400       672
    43.9600       608
    43.9800       594
    44.0000       600
    44.0200       556
    44.0400       498
    44.0600       536
    44.0800       500
    44.1000       542
    44.1200       508
    44.1400       466
    44.1600       484
    44.1800       486
    44.2000       492
    44.2200       512
    44.2400       500
    44.2600       504
    44.2800       546
    44.3000       492
    44.3200       502
    44.3400       502
    44.3600       486
    44.3800       540
    44.4000       488
    44.4200       506
    44.4400       542
    44.4600       480
    44.4800       494
    44.5000       494
    44.5200       488
    44.5400       508
    44.5600       498
    44.5800       464
    44.6000       482
    44.6200       448
    44.6400       542
    44.6600       494
    44.6800       518
    44.7000       492
    44.7200       488
    44.7400       528
    44.7600       542
    44.7800       612
    44.8000       594
    44.8200       624
    44.8400       634
    44.8600       650
    44.8800       714
    44.9000       770
    44.9200       836
    44.9400       934
    44.9600       986
    44.9800       988
    45.0000      1082
    45.0200      1102
    45.0400      1164
    45.0600      1230
    45.0800      1256
    45.1000      1312
    45.1200      1292
    45.1400      1344
    45.1600      1338
    45.1800      1288
    45.2000      1348
    45.2200      1234
    45.2400      1174
    45.2600      1134
    45.2800      1092
    45.3000      1032
    45.3200       972
    45.3400       936
    45.3600       962
    45.3800       872
    45.4000       836
    45.4200       804
    45.4400       746
    45.4600       768
    45.4800       728
    45.5000       736
    45.5200       728
    45.5400       696
    45.5600       700
    45.5800       686
    45.6000       712
    45.6200       714
    45.6400       678
    45.6600       710
    45.6800       710
    45.7000       762
    45.7200       770
    45.7400       794
    45.7600       784
    45.7800       796
    45.8000       798
    45.8200       834
    45.8400       830
    45.8600       830
    45.8800       788
    45.9000       826
    45.9200       766
    45.9400       796
    45.9600       852
    45.9800       796
    46.0000       736
    46.0200       728
    46.0400       716
    46.0600       708
    46.0800       748
    46.1000       700
    46.1200       774
    46.1400       786
    46.1600       818
    46.1800       778
    46.2000       814
    46.2200       850
    46.2400       864
    46.2600       936
    46.2800       992
    46.3000      1068
    46.3200      1138
    46.3400      1270
    46.3600      1276
    46.3800      1374
    46.4000      1578
    46.4200      1718
    46.4400      1844
    46.4600      2082
    46.4800      2358
    46.5000      2630
    46.5200      2954
    46.5400      3438
    46.5600      3822
    46.5800      4350
    46.6000      5102
    46.6200      5750
    46.6400      6496
    46.6600      7234
    46.6800      7906
    46.7000      8216
    46.7200      8480
    46.7400      8340
    46.7600      8086
    46.7800      7526
    46.8000      7070
    46.8200      6430
    46.8400      5852
    46.8600      5306
    46.8800      4740
    46.9000      4236
    46.9200      3514
    46.9400      3080
    46.9600      2660
    46.9800      2308
    47.0000      2002
    47.0200      1776
    47.0400      1622
    47.0600      1518
    47.0800      1406
    47.1000      1264
    47.1200      1170
    47.1400      1044
    47.1600       982
    47.1800       902
    47.2000       876
    47.2200       834
    47.2400       792
    47.2600       730
    47.2800       716
    47.3000       632
    47.3200       652
    47.3400       616
    47.3600       628
    47.3800       624
    47.4000       532
    47.4200       560
    47.4400       568
    47.4600       560
    47.4800       510
    47.5000       554
    47.5200       562
    47.5400       542
    47.5600       530
    47.5800       530
    47.6000       538
    47.6200       530
    47.6400       584
    47.6600       606
    47.6800       626
    47.7000       610
    47.7200       668
    47.7400       694
    47.7600       794
    47.7800       786
    47.8000       882
    47.8200       874
    47.8400       944
    47.8600       986
    47.8800       898
    47.9000       896
    47.9200       946
    47.9400       940
    47.9600       908
    47.9800       954
    48.0000       900
    48.0200       854
    48.0400       898
    48.0600       860
    48.0800       898
    48.1000       908
    48.1200       884
    48.1400       976
    48.1600       994
    48.1800      1024
    48.2000      1078
    48.2200      1094
    48.2400      1092
    48.2600      1010
    48.2800      1106
    48.3000      1058
    48.3200       976
    48.3400       990
    48.3600      1002
    48.3800       880
    48.4000       864
    48.4200       910
    48.4400       910
    48.4600       878
    48.4800       896
    48.5000       856
    48.5200       918
    48.5400       878
    48.5600       918
    48.5800       894
    48.6000       902
    48.6200       806
    48.6400       884
    48.6600       932
    48.6800       892
    48.7000       882
    48.7200       840
    48.7400       808
    48.7600       818
    48.7800       770
    48.8000       710
    48.8200       736
    48.8400       656
    48.8600       638
    48.8800       646
    48.9000       604
    48.9200       594
    48.9400       538
    48.9600       522
    48.9800       490
    49.0000       512
    49.0200       438
    49.0400       474
    49.0600       448
    49.0800       414
    49.1000       414
    49.1200       400
    49.1400       378
    49.1600       376
    49.1800       370
    49.2000       330
    49.2200       380
    49.2400       326
    49.2600       330
    49.2800       352
    49.3000       336
    49.3200       324
    49.3400       320
    49.3600       314
    49.3800       306
    49.4000       328
    49.4200       288
    49.4400       320
    49.4600       300
    49.4800       328
    49.5000       314
    49.5200       324
    49.5400       354
    49.5600       336
    49.5800       344
    49.6000       312
    49.6200       348
    49.6400       372
    49.6600       344
    49.6800       340
    49.7000       390
    49.7200       314
    49.7400       370
    49.7600       362
    49.7800       332
    49.8000       374
    49.8200       368
    49.8400       426
    49.8600       394
    49.8800       408
    49.9000       464
    49.9200       456
    49.9400       474
    49.9600       454
    49.9800       494
    50.0000       548
    50.0200       608
    50.0400       612
    50.0600       718
    50.0800       724
    50.1000       740
    50.1200       844
    50.1400       970
    50.1600       970
    50.1800      1046
    50.2000      1090
    50.2200      1116
    50.2400      1146
    50.2600      1164
    50.2800      1216
    50.3000      1240
    50.3200      1230
    50.3400      1176
    50.3600      1252
    50.3800      1218
    50.4000      1178
    50.4200      1150
    50.4400      1146
    50.4600      1090
    50.4800      1084
    50.5000      1110
    50.5200      1034
    50.5400      1034
    50.5600      1004
    50.5800       952
    50.6000       926
    50.6200       916
    50.6400       848
    50.6600       882
    50.6800       910
    50.7000       882
    50.7200       888
    50.7400       902
    50.7600       818
    50.7800       932
    50.8000       894
    50.8200       916
    50.8400       934
    50.8600       980
    50.8800      1026
    50.9000      1024
    50.9200       970
    50.9400       990
    50.9600      1054
    50.9800       948
    51.0000       988
    51.0200       892
    51.0400       912
    51.0600       922
    51.0800       852
    51.1000       826
    51.1200       822
    51.1400       752
    51.1600       756
    51.1800       772
    51.2000       742
    51.2200       766
    51.2400       796
    51.2600       732
    51.2800       806
    51.3000       796
    51.3200       842
    51.3400       854
    51.3600       956
    51.3800       872
    51.4000       920
    51.4200       876
    51.4400       926
    51.4600       900
    51.4800       942
    51.5000       874
    51.5200       886
    51.5400       884
    51.5600       812
    51.5800       812
    51.6000       846
    51.6200       790
    51.6400       750
    51.6600       804
    51.6800       876
    51.7000       776
    51.7200       806
    51.7400       922
    51.7600       972
    51.7800      1006
    51.8000       968
    51.8200      1096
    51.8400      1120
    51.8600      1180
    51.8800      1150
    51.9000      1214
    51.9200      1116
    51.9400      1114
    51.9600      1028
    51.9800      1026
    52.0000      1060
    52.0200      1046
    52.0400      1020
    52.0600       924
    52.0800       964
    52.1000       884
    52.1200       806
    52.1400       782
    52.1600       744
    52.1800       698
    52.2000       746
    52.2200       744
    52.2400       716
    52.2600       684
    52.2800       698
    52.3000       668
    52.3200       658
    52.3400       706
    52.3600       716
    52.3800       718
    52.4000       768
    52.4200       800
    52.4400       900
    52.4600       954
    52.4800      1114
    52.5000      1120
    52.5200      1196
    52.5400      1352
    52.5600      1358
    52.5800      1378
    52.6000      1422
    52.6200      1462
    52.6400      1536
    52.6600      1428
    52.6800      1408
    52.7000      1386
    52.7200      1344
    52.7400      1274
    52.7600      1208
    52.7800      1142
    52.8000      1056
    52.8200      1004
    52.8400       998
    52.8600       904
    52.8800       864
    52.9000       854
    52.9200       812
    52.9400       836
    52.9600       784
    52.9800       748
    53.0000       794
    53.0200       754
    53.0400       816
    53.0600       866
    53.0800       912
    53.1000      1010
    53.1200      1114
    53.1400      1156
    53.1600      1322
    53.1800      1386
    53.2000      1508
    53.2200      1644
    53.2400      1766
    53.2600      1854
    53.2800      1830
    53.3000      1766
    53.3200      1678
    53.3400      1610
    53.3600      1536
    53.3800      1472
    53.4000      1382
    53.4200      1376
    53.4400      1248
    53.4600      1152
    53.4800      1024
    53.5000       986
    53.5200       824
    53.5400       792
    53.5600       710
    53.5800       684
    53.6000       610
    53.6200       644
    53.6400       566
    53.6600       538
    53.6800       506
    53.7000       510
    53.7200       480
    53.7400       512
    53.7600       502
    53.7800       468
    53.8000       424
    53.8200       446
    53.8400       412
    53.8600       450
    53.8800       432
    53.9000       394
    53.9200       392
    53.9400       382
    53.9600       384
    53.9800       390
    54.0000       416
    54.0200       350
    54.0400       374
    54.0600       386
    54.0800       392
    54.1000       336
    54.1200       388
    54.1400       356
    54.1600       388
    54.1800       370
    54.2000       374
    54.2200       394
    54.2400       402
    54.2600       384
    54.2800       426
    54.3000       426
    54.3200       396
    54.3400       418
    54.3600       450
    54.3800       440
    54.4000       436
    54.4200       464
    54.4400       482
    54.4600       542
    54.4800       504
    54.5000       530
    54.5200       602
    54.5400       578
    54.5600       622
    54.5800       622
    54.6000       690
    54.6200       720
    54.6400       718
    54.6600       728
    54.6800       724
    54.7000       794
    54.7200       860
    54.7400       872
    54.7600       914
    54.7800       908
    54.8000       916
    54.8200       868
    54.8400       876
    54.8600       810
    54.8800       838
    54.9000       822
    54.9200       750
    54.9400       848
    54.9600       828
    54.9800       808
    55.0000       766
    55.0200       700
    55.0400       714
    55.0600       742
    55.0800       730
    55.1000       716
    55.1200       746
    55.1400       748
    55.1600       712
    55.1800       746
    55.2000       778
    55.2200       750
    55.2400       700
    55.2600       724
    55.2800       724
    55.3000       728
    55.3200       696
    55.3400       682
    55.3600       660
    55.3800       586
    55.4000       640
    55.4200       596
    55.4400       592
    55.4600       554
    55.4800       550
    55.5000       544
    55.5200       506
    55.5400       530
    55.5600       466
    55.5800       470
    55.6000       500
    55.6200       488
    55.6400       428
    55.6600       390
    55.6800       400
    55.7000       384
    55.7200       418
    55.7400       406
    55.7600       370
    55.7800       434
    55.8000       346
    55.8200       368
    55.8400       396
    55.8600       376
    55.8800       398
    55.9000       386
    55.9200       346
    55.9400       350
    55.9600       366
    55.9800       396
    56.0000       378
    56.0200       366
    56.0400       362
    56.0600       376
    56.0800       370
    56.1000       376
    56.1200       382
    56.1400       348
    56.1600       398
    56.1800       354
    56.2000       372
    56.2200       380
    56.2400       328
    56.2600       314
    56.2800       328
    56.3000       308
    56.3200       314
    56.3400       332
    56.3600       310
    56.3800       362
    56.4000       320
    56.4200       340
    56.4400       302
    56.4600       354
    56.4800       338
    56.5000       290
    56.5200       326
    56.5400       320
    56.5600       346
    56.5800       360
    56.6000       344
    56.6200       352
    56.6400       356
    56.6600       380
    56.6800       348
    56.7000       388
    56.7200       354
    56.7400       340
    56.7600       392
    56.7800       352
    56.8000       328
    56.8200       400
    56.8400       452
    56.8600       380
    56.8800       420
    56.9000       406
    56.9200       490
    56.9400       430
    56.9600       486
    56.9800       496
    57.0000       504
    57.0200       494
    57.0400       512
    57.0600       576
    57.0800       610
    57.1000       634
    57.1200       728
    57.1400       704
    57.1600       728
    57.1800       784
    57.2000       850
    57.2200       934
    57.2400      1084
    57.2600      1132
    57.2800      1340
    57.3000      1364
    57.3200      1442
    57.3400      1620
    57.3600      1702
    57.3800      1744
    57.4000      1730
    57.4200      1704
    57.4400      1726
    57.4600      1648
    57.4800      1554
    57.5000      1586
    57.5200      1566
    57.5400      1568
    57.5600      1498
    57.5800      1472
    57.6000      1498
    57.6200      1526
    57.6400      1510
    57.6600      1518
    57.6800      1690
    57.7000      1678
    57.7200      1720
    57.7400      1684
    57.7600      1630
    57.7800      1734
    57.8000      1720
    57.8200      1550
    57.8400      1514
    57.8600      1464
    57.8800      1432
    57.9000      1358
    57.9200      1302
    57.9400      1250
    57.9600      1166
    57.9800      1140
    58.0000      1048
    58.0200       968
    58.0400       902
    58.0600       906
    58.0800       870
    58.1000       912
    58.1200       866
    58.1400       866
    58.1600       878
    58.1800       818
    58.2000       920
    58.2200       982
    58.2400      1082
    58.2600      1004
    58.2800      1130
    58.3000      1152
    58.3200      1186
    58.3400      1328
    58.3600      1328
    58.3800      1484
    58.4000      1612
    58.4200      1674
    58.4400      1790
    58.4600      1910
    58.4800      2048
    58.5000      2044
    58.5200      2182
    58.5400      2314
    58.5600      2324
    58.5800      2426
    58.6000      2556
    58.6200      2664
    58.6400      2762
    58.6600      3080
    58.6800      3132
    58.7000      3076
    58.7200      3200
    58.7400      3252
    58.7600      3156
    58.7800      3174
    58.8000      3222
    58.8200      2940
    58.8400      2946
    58.8600      2752
    58.8800      2642
    58.9000      2428
    58.9200      2348
    58.9400      2068
    58.9600      1966
    58.9800      1864
    59.0000      1716
    59.0200      1608
    59.0400      1362
    59.0600      1246
    59.0800      1172
    59.1000      1108
    59.1200       984
    59.1400       888
    59.1600       858
    59.1800       856
    59.2000       758
    59.2200       696
    59.2400       714
    59.2600       700
    59.2800       604
    59.3000       646
    59.3200       646
    59.3400       618
    59.3600       642
    59.3800       580
    59.4000       602
    59.4200       624
    59.4400       620
    59.4600       634
    59.4800       570
    59.5000       634
    59.5200       682
    59.5400       642
    59.5600       646
    59.5800       618
    59.6000       610
    59.6200       646
    59.6400       674
    59.6600       646
    59.6800       650
    59.7000       646
    59.7200       672
    59.7400       646
    59.7600       700
    59.7800       718
    59.8000       656
    59.8200       684
    59.8400       640
    59.8600       658
    59.8800       656
    59.9000       648
    59.9200       658
    59.9400       616
    59.9600       586
    59.9800       614
    60.0000       578
    60.0200       606
    60.0400       566
    60.0600       550
    60.0800       532
    60.1000       558
    60.1200       494
    60.1400       534
    60.1600       500
    60.1800       526
    60.2000       492
    60.2200       478
    60.2400       480
    60.2600       456
    60.2800       508
    60.3000       488
    60.3200       504
    60.3400       462
    60.3600       490
    60.3800       464
    60.4000       500
    60.4200       492
    60.4400       482
    60.4600       518
    60.4800       482
    60.5000       468
    60.5200       504
    60.5400       492
    60.5600       518
    60.5800       504
    60.6000       530
    60.6200       500
    60.6400       536
    60.6600       542
    60.6800       548
    60.7000       540
    60.7200       542
    60.7400       552
    60.7600       582
    60.7800       532
    60.8000       528
    60.8200       570
    60.8400       548
    60.8600       562
    60.8800       546
    60.9000       582
    60.9200       582
    60.9400       616
    60.9600       602
    60.9800       632
    61.0000       622
    61.0200       592
    61.0400       576
    61.0600       714
    61.0800       650
    61.1000       676
    61.1200       682
    61.1400       694
    61.1600       702
    61.1800       722
    61.2000       704
    61.2200       660
    61.2400       658
    61.2600       636
    61.2800       750
    61.3000       676
    61.3200       688
    61.3400       662
    61.3600       632
    61.3800       720
    61.4000       692
    61.4200       656
    61.4400       672
    61.4600       682
    61.4800       692
    61.5000       728
    61.5200       618
    61.5400       700
    61.5600       668
    61.5800       680
    61.6000       656
    61.6200       662
    61.6400       632
    61.6600       624
    61.6800       578
    61.7000       596
    61.7200       584
    61.7400       540
    61.7600       536
    61.7800       542
    61.8000       508
    61.8200       532
    61.8400       552
    61.8600       564
    61.8800       566
    61.9000       544
    61.9200       582
    61.9400       538
    61.9600       532
    61.9800       582
    62.0000       534
    62.0200       538
    62.0400       570
    62.0600       584
    62.0800       578
    62.1000       596
    62.1200       608
    62.1400       540
    62.1600       608
    62.1800       592
    62.2000       526
    62.2200       600
    62.2400       528
    62.2600       536
    62.2800       540
    62.3000       552
    62.3200       516
    62.3400       574
    62.3600       518
    62.3800       532
    62.4000       544
    62.4200       506
    62.4400       484
    62.4600       498
    62.4800       482
    62.5000       484
    62.5200       454
    62.5400       474
    62.5600       450
    62.5800       448
    62.6000       418
    62.6200       402
    62.6400       398
    62.6600       398
    62.6800       376
    62.7000       422
    62.7200       420
    62.7400       430
    62.7600       362
    62.7800       364
    62.8000       338
    62.8200       358
    62.8400       370
    62.8600       348
    62.8800       354
    62.9000       320
    62.9200       356
    62.9400       328
    62.9600       346
    62.9800       304
    63.0000       300
    63.0200       310
    63.0400       292
    63.0600       292
    63.0800       304
    63.1000       322
    63.1200       278
    63.1400       280
    63.1600       270
    63.1800       232
    63.2000       256
    63.2200       254
    63.2400       284
    63.2600       242
    63.2800       248
    63.3000       262
    63.3200       266
    63.3400       274
    63.3600       292
    63.3800       266
    63.4000       264
    63.4200       288
    63.4400       290
    63.4600       288
    63.4800       302
    63.5000       302
    63.5200       300
    63.5400       292
    63.5600       324
    63.5800       338
    63.6000       318
    63.6200       320
    63.6400       338
    63.6600       346
    63.6800       382
    63.7000       372
    63.7200       414
    63.7400       388
    63.7600       434
    63.7800       472
    63.8000       452
    63.8200       446
    63.8400       466
    63.8600       510
    63.8800       486
    63.9000       456
    63.9200       512
    63.9400       498
    63.9600       452
    63.9800       416
    64.0000       446
    64.0200       430
    64.0400       386
    64.0600       408
    64.0800       412
    64.1000       374
    64.1200       406
    64.1400       332
    64.1600       336
    64.1800       324
    64.2000       318
    64.2200       306
    64.2400       276
    64.2600       296
    64.2800       296
    64.3000       256
    64.3200       308
    64.3400       284
    64.3600       286
    64.3800       278
    64.4000       248
    64.4200       258
    64.4400       280
    64.4600       246
    64.4800       296
    64.5000       238
    64.5200       222
    64.5400       216
    64.5600       242
    64.5800       228
    64.6000       256
    64.6200       244
    64.6400       258
    64.6600       240
    64.6800       240
    64.7000       212
    64.7200       232
    64.7400       252
    64.7600       230
    64.7800       230
    64.8000       248
    64.8200       240
    64.8400       276
    64.8600       220
    64.8800       224
    64.9000       248
    64.9200       230
    64.9400       266
    64.9600       248
    64.9800       274
    65.0000       284
    65.0200       278
    65.0400       282
    65.0600       300
    65.0800       332
    65.1000       336
    65.1200       326
    65.1400       352
    65.1600       368
    65.1800       350
    65.2000       394
    65.2200       388
    65.2400       366
    65.2600       362
    65.2800       410
    65.3000       436
    65.3200       426
    65.3400       408
    65.3600       470
    65.3800       426
    65.4000       444
    65.4200       406
    65.4400       384
    65.4600       404
    65.4800       422
    65.5000       408
    65.5200       402
    65.5400       356
    65.5600       394
    65.5800       334
    65.6000       322
    65.6200       330
    65.6400       338
    65.6600       290
    65.6800       332
    65.7000       292
    65.7200       332
    65.7400       298
    65.7600       282
    65.7800       286
    65.8000       258
    65.8200       330
    65.8400       294
    65.8600       292
    65.8800       290
    65.9000       276
    65.9200       276
    65.9400       294
    65.9600       288
    65.9800       270
    66.0000       262
    66.0200       300
    66.0400       308
    66.0600       280
    66.0800       272
    66.1000       276
    66.1200       300
    66.1400       278
    66.1600       274
    66.1800       254
    66.2000       272
    66.2200       264
    66.2400       310
    66.2600       286
    66.2800       326
    66.3000       314
    66.3200       322
    66.3400       322
    66.3600       326
    66.3800       364
    66.4000       348
    66.4200       346
    66.4400       388
    66.4600       408
    66.4800       434
    66.5000       416
    66.5200       468
    66.5400       502
    66.5600       486
    66.5800       534
    66.6000       524
    66.6200       608
    66.6400       600
    66.6600       620
    66.6800       652
    66.7000       700
    66.7200       752
    66.7400       740
    66.7600       734
    66.7800       786
    66.8000       808
    66.8200       888
    66.8400       816
    66.8600       854
    66.8800       852
    66.9000       890
    66.9200       878
    66.9400       864
    66.9600       838
    66.9800       768
    67.0000       784
    67.0200       804
    67.0400       734
    67.0600       744
    67.0800       700
    67.1000       700
    67.1200       668
    67.1400       634
    67.1600       598
    67.1800       572
    67.2000       542
    67.2200       520
    67.2400       458
    67.2600       472
    67.2800       472
    67.3000       442
    67.3200       424
    67.3400       434
    67.3600       420
    67.3800       408
    67.4000       364
    67.4200       400
    67.4400       352
    67.4600       400
    67.4800       338
    67.5000       358
    67.5200       366
    67.5400       370
    67.5600       352
    67.5800       324
    67.6000       366
    67.6200       384
    67.6400       330
    67.6600       402
    67.6800       390
    67.7000       386
    67.7200       396
    67.7400       394
    67.7600       400
    67.7800       400
    67.8000       416
    67.8200       418
    67.8400       448
    67.8600       478
    67.8800       546
    67.9000       490
    67.9200       588
    67.9400       620
    67.9600       656
    67.9800       736
    68.0000       718
    68.0200       822
    68.0400       846
    68.0600       900
    68.0800      1014
    68.1000      1040
    68.1200      1098
    68.1400      1112
    68.1600      1134
    68.1800      1118
    68.2000      1176
    68.2200      1194
    68.2400      1170
    68.2600      1204
    68.2800      1138
    68.3000      1186
    68.3200      1026
    68.3400      1060
    68.3600      1000
    68.3800       966
    68.4000       936
    68.4200       824
    68.4400       862
    68.4600       818
    68.4800       770
    68.5000       702
    68.5200       648
    68.5400       596
    68.5600       574
    68.5800       488
    68.6000       514
    68.6200       516
    68.6400       468
    68.6600       454
    68.6800       446
    68.7000       422
    68.7200       424
    68.7400       348
    68.7600       354
    68.7800       374
    68.8000       358
    68.8200       356
    68.8400       340
    68.8600       310
    68.8800       362
    68.9000       334
    68.9200       346
    68.9400       326
    68.9600       348
    68.9800       318
    69.0000       332
    69.0200       350
    69.0400       328
    69.0600       326
    69.0800       340
    69.1000       354
    69.1200       374
    69.1400       366
    69.1600       372
    69.1800       366
    69.2000       356
    69.2200       384
    69.2400       412
    69.2600       404
    69.2800       462
    69.3000       428
    69.3200       476
    69.3400       544
    69.3600       518
    69.3800       550
    69.4000       556
    69.4200       554
    69.4400       574
    69.4600       600
    69.4800       542
    69.5000       542
    69.5200       500
    69.5400       484
    69.5600       472
    69.5800       496
    69.6000       478
    69.6200       488
    69.6400       448
    69.6600       400
    69.6800       398
    69.7000       416
    69.7200       386
    69.7400       366
    69.7600       312
    69.7800       344
    69.8000       322
    69.8200       322
    69.8400       312
    69.8600       282
    69.8800       290
    69.9000       304
    69.9200       266
    69.9400       254
    69.9600       252
    69.9800       258
    70.0000       268
    70.0200       238
    70.0400       270
    70.0600       236
    70.0800       252
    70.1000       208
    70.1200       232
    70.1400       214
    70.1600       216
    70.1800       234
    70.2000       232
    70.2200       238
    70.2400       194
    70.2600       210
    70.2800       232
    70.3000       244
    70.3200       210
    70.3400       226
    70.3600       210
    70.3800       210
    70.4000       224
    70.4200       224
    70.4400       222
    70.4600       230
    70.4800       228
    70.5000       246
    70.5200       258
    70.5400       228
    70.5600       252
    70.5800       272
    70.6000       230
    70.6200       264
    70.6400       220
    70.6600       258
    70.6800       260
    70.7000       250
    70.7200       244
    70.7400       222
    70.7600       250
    70.7800       252
    70.8000       240
    70.8200       232
    70.8400       200
    70.8600       236
    70.8800       248
    70.9000       226
    70.9200       234
    70.9400       236
    70.9600       242
    70.9800       244
    71.0000       246
    71.0200       246
    71.0400       278
    71.0600       264
    71.0800       250
    71.1000       256
    71.1200       242
    71.1400       278
    71.1600       280
    71.1800       296
    71.2000       328
    71.2200       344
    71.2400       336
    71.2600       334
    71.2800       328
    71.3000       376
    71.3200       396
    71.3400       410
    71.3600       422
    71.3800       432
    71.4000       492
    71.4200       540
    71.4400       512
    71.4600       566
    71.4800       614
    71.5000       618
    71.5200       610
    71.5400       616
    71.5600       648
    71.5800       654
    71.6000       620
    71.6200       594
    71.6400       598
    71.6600       648
    71.6800       606
    71.7000       594
    71.7200       600
    71.7400       622
    71.7600       574
    71.7800       576
    71.8000       566
    71.8200       508
    71.8400       506
    71.8600       496
    71.8800       496
    71.9000       504
    71.9200       478
    71.9400       516
    71.9600       460
    71.9800       498
    72.0000       486
    72.0200       466
    72.0400       436
    72.0600       412
    72.0800       452
    72.1000       432
    72.1200       468
    72.1400       398
    72.1600       458
    72.1800       478
    72.2000       510
    72.2200       518
    72.2400       444
    72.2600       488
    72.2800       512
    72.3000       546
    72.3200       526
    72.3400       486
    72.3600       524
    72.3800       516
    72.4000       476
    72.4200       482
    72.4400       486
    72.4600       448
    72.4800       448
    72.5000       448
    72.5200       452
    72.5400       412
    72.5600       424
    72.5800       408
    72.6000       402
    72.6200       374
    72.6400       392
    72.6600       392
    72.6800       402
    72.7000       354
    72.7200       392
    72.7400       388
    72.7600       382
    72.7800       332
    72.8000       348
    72.8200       376
    72.8400       340
    72.8600       320
    72.8800       360
    72.9000       328
    72.9200       336
    72.9400       340
    72.9600       364
    72.9800       324
    73.0000       282
    73.0200       312
    73.0400       306
    73.0600       302
    73.0800       274
    73.1000       318
    73.1200       296
    73.1400       328
    73.1600       274
    73.1800       268
    73.2000       264
    73.2200       246
    73.2400       246
    73.2600       228
    73.2800       254
    73.3000       240
    73.3200       258
    73.3400       224
    73.3600       256
    73.3800       232
    73.4000       256
    73.4200       228
    73.4400       242
    73.4600       220
    73.4800       234
    73.5000       238
    73.5200       216
    73.5400       228
    73.5600       252
    73.5800       228
    73.6000       220
    73.6200       256
    73.6400       256
    73.6600       232
    73.6800       242
    73.7000       250
    73.7200       236
    73.7400       238
    73.7600       244
    73.7800       216
    73.8000       252
    73.8200       248
    73.8400       244
    73.8600       276
    73.8800       244
    73.9000       230
    73.9200       244
    73.9400       274
    73.9600       272
    73.9800       278
    74.0000       266
    74.0200       260
    74.0400       302
    74.0600       260
    74.0800       298
    74.1000       304
    74.1200       306
    74.1400       300
    74.1600       288
    74.1800       294
    74.2000       304
    74.2200       316
    74.2400       290
    74.2600       310
    74.2800       290
    74.3000       282
    74.3200       288
    74.3400       244
    74.3600       252
    74.3800       262
    74.4000       296
    74.4200       284
    74.4400       264
    74.4600       234
    74.4800       230
    74.5000       226
    74.5200       222
    74.5400       232
    74.5600       226
    74.5800       220
    74.6000       218
    74.6200       236
    74.6400       212
    74.6600       216
    74.6800       204
    74.7000       216
    74.7200       218
    74.7400       224
    74.7600       200
    74.7800       208
    74.8000       186
    74.8200       196
    74.8400       220
    74.8600       224
    74.8800       200
    74.9000       190
    74.9200       228
    74.9400       228
    74.9600       192
    74.9800       198
    75.0000       200
    75.0200       220
    75.0400       196
    75.0600       212
    75.0800       206
    75.1000       220
    75.1200       220
    75.1400       252
    75.1600       208
    75.1800       236
    75.2000       200
    75.2200       226
    75.2400       250
    75.2600       226
    75.2800       198
    75.3000       218
    75.3200       234
    75.3400       192
    75.3600       230
    75.3800       224
    75.4000       224
    75.4200       226
    75.4400       210
    75.4600       224
    75.4800       254
    75.5000       224
    75.5200       200
    75.5400       240
    75.5600       200
    75.5800       254
    75.6000       220
    75.6200       204
    75.6400       228
    75.6600       212
    75.6800       228
    75.7000       200
    75.7200       206
    75.7400       236
    75.7600       242
    75.7800       220
    75.8000       208
    75.8200       218
    75.8400       232
    75.8600       228
    75.8800       252
    75.9000       220
    75.9200       258
    75.9400       236
    75.9600       212
    75.9800       242
    76.0000       216
    76.0200       246
    76.0400       246
    76.0600       228
    76.0800       260
    76.1000       264
    76.1200       262
    76.1400       244
    76.1600       252
    76.1800       274
    76.2000       262
    76.2200       276
    76.2400       290
    76.2600       312
    76.2800       284
    76.3000       312
    76.3200       328
    76.3400       312
    76.3600       314
    76.3800       336
    76.4000       298
    76.4200       320
    76.4400       340
    76.4600       332
    76.4800       350
    76.5000       348
    76.5200       342
    76.5400       378
    76.5600       368
    76.5800       344
    76.6000       374
    76.6200       386
    76.6400       384
    76.6600       392
    76.6800       376
    76.7000       392
    76.7200       380
    76.7400       402
    76.7600       400
    76.7800       374
    76.8000       376
    76.8200       340
    76.8400       382
    76.8600       376
    76.8800       350
    76.9000       340
    76.9200       356
    76.9400       348
    76.9600       370
    76.9800       334
    77.0000       348
    77.0200       318
    77.0400       340
    77.0600       312
    77.0800       310
    77.1000       350
    77.1200       326
    77.1400       308
    77.1600       354
    77.1800       346
    77.2000       352
    77.2200       356
    77.2400       350
    77.2600       412
    77.2800       352
    77.3000       368
    77.3200       388
    77.3400       466
    77.3600       438
    77.3800       458
    77.4000       492
    77.4200       472
    77.4400       546
    77.4600       550
    77.4800       606
    77.5000       598
    77.5200       642
    77.5400       682
    77.5600       750
    77.5800       748
    77.6000       830
    77.6200       826
    77.6400       818
    77.6600       862
    77.6800       878
    77.7000       810
    77.7200       846
    77.7400       800
    77.7600       796
    77.7800       762
    77.8000       792
    77.8200       800
    77.8400       738
    77.8600       724
    77.8800       704
    77.9000       672
    77.9200       664
    77.9400       694
    77.9600       604
    77.9800       600
    78.0000       518
    78.0200       540
    78.0400       462
    78.0600       496
    78.0800       456
    78.1000       446
    78.1200       430
    78.1400       412
    78.1600       462
    78.1800       400
    78.2000       392
    78.2200       426
    78.2400       396
    78.2600       382
    78.2800       328
    78.3000       398
    78.3200       358
    78.3400       348
    78.3600       410
    78.3800       398
    78.4000       370
    78.4200       370
    78.4400       368
    78.4600       432
    78.4800       392
    78.5000       404
    78.5200       434
    78.5400       420
    78.5600       432
    78.5800       424
    78.6000       440
    78.6200       448
    78.6400       454
    78.6600       396
    78.6800       436
    78.7000       448
    78.7200       408
    78.7400       438
    78.7600       424
    78.7800       400
    78.8000       384
    78.8200       400
    78.8400       354
    78.8600       386
    78.8800       380
    78.9000       360
    78.9200       348
    78.9400       372
    78.9600       390
    78.9800       350
    79.0000       352
    79.0200       316
    79.0400       328
    79.0600       320
    79.0800       318
    79.1000       298
    79.1200       292
    79.1400       274
    79.1600       316
    79.1800       294
    79.2000       302
    79.2200       300
    79.2400       282
    79.2600       252
    79.2800       270
    79.3000       278
    79.3200       250
    79.3400       280
    79.3600       274
    79.3800       262
    79.4000       284
    79.4200       262
    79.4400       266
    79.4600       286
    79.4800       300
    79.5000       304
    79.5200       268
    79.5400       272
    79.5600       280
    79.5800       284
    79.6000       258
    79.6200       250
    79.6400       288
    79.6600       274
    79.6800       284
    79.7000       288
    79.7200       252
    79.7400       272
    79.7600       280
    79.7800       278
    79.8000       258
    79.8200       250
    79.8400       276
    79.8600       294
    79.8800       266
    79.9000       262
    79.9200       306
    79.9400       262
    79.9600       256
    79.9800       282
    80.0000       256
    80.0200       270
    80.0400       270
    80.0600       260
    80.0800       250
    80.1000       292
    80.1200       216
    80.1400       246
    80.1600       272
    80.1800       258
    80.2000       244
    80.2200       240
    80.2400       240
    80.2600       258
    80.2800       234
    80.3000       260
    80.3200       262
    80.3400       230
    80.3600       258
    80.3800       222
    80.4000       272
    80.4200       270
    80.4400       256
    80.4600       254
    80.4800       296
    80.5000       282
    80.5200       232
    80.5400       264
    80.5600       234
    80.5800       234
    80.6000       242
    80.6200       278
    80.6400       274
    80.6600       246
    80.6800       276
    80.7000       230
    80.7200       212
    80.7400       246
    80.7600       230
    80.7800       242
    80.8000       232
    80.8200       246
    80.8400       246
    80.8600       264
    80.8800       266
    80.9000       230
    80.9200       212
    80.9400       220
    80.9600       218
    80.9800       246
    81.0000       220
    81.0200       210
    81.0400       252
    81.0600       250
    81.0800       240
    81.1000       218
    81.1200       214
    81.1400       256
    81.1600       260
    81.1800       270
    81.2000       250
    81.2200       248
    81.2400       246
    81.2600       256
    81.2800       282
    81.3000       284
    81.3200       258
    81.3400       270
    81.3600       296
    81.3800       294
    81.4000       276
    81.4200       270
    81.4400       262
    81.4600       238
    81.4800       280
    81.5000       282
    81.5200       268
    81.5400       260
    81.5600       298
    81.5800       290
    81.6000       260
    81.6200       298
    81.6400       294
    81.6600       286
    81.6800       274
    81.7000       284
    81.7200       280
    81.7400       252
    81.7600       274
    81.7800       288
    81.8000       256
    81.8200       254
    81.8400       256
    81.8600       250
    81.8800       288
    81.9000       298
    81.9200       286
    81.9400       292
    81.9600       298
    81.9800       272
    82.0000       272
    82.0200       270
    82.0400       276
    82.0600       286
    82.0800       338
    82.1000       306
    82.1200       330
    82.1400       332
    82.1600       316
    82.1800       310
    82.2000       340
    82.2200       306
    82.2400       346
    82.2600       348
    82.2800       360
    82.3000       338
    82.3200       358
    82.3400       356
    82.3600       398
    82.3800       364
    82.4000       374
    82.4200       368
    82.4400       360
    82.4600       354
    82.4800       384
    82.5000       362
    82.5200       362
    82.5400       362
    82.5600       354
    82.5800       352
    82.6000       362
    82.6200       344
    82.6400       358
    82.6600       390
    82.6800       424
    82.7000       412
    82.7200       428
    82.7400       404
    82.7600       396
    82.7800       426
    82.8000       466
    82.8200       426
    82.8400       450
    82.8600       414
    82.8800       422
    82.9000       396
    82.9200       410
    82.9400       438
    82.9600       458
    82.9800       422
    83.0000       408
    83.0200       444
    83.0400       446
    83.0600       428
    83.0800       384
    83.1000       418
    83.1200       418
    83.1400       412
    83.1600       382
    83.1800       390
    83.2000       394
    83.2200       402
    83.2400       392
    83.2600       408
    83.2800       402
    83.3000       382
    83.3200       444
    83.3400       388
    83.3600       366
    83.3800       402
    83.4000       412
    83.4200       348
    83.4400       382
    83.4600       394
    83.4800       392
    83.5000       356
    83.5200       342
    83.5400       354
    83.5600       318
    83.5800       306
    83.6000       344
    83.6200       366
    83.6400       304
    83.6600       334
    83.6800       316
    83.7000       294
    83.7200       306
    83.7400       310
    83.7600       296
    83.7800       296
    83.8000       300
    83.8200       288
    83.8400       296
    83.8600       280
    83.8800       262
    83.9000       300
    83.9200       314
    83.9400       280
    83.9600       288
    83.9800       278
    84.0000       266
    84.0200       278
    84.0400       324
    84.0600       314
    84.0800       302
    84.1000       292
    84.1200       330
    84.1400       288
    84.1600       298
    84.1800       296
    84.2000       280
    84.2200       296
    84.2400       278
    84.2600       274
    84.2800       308
    84.3000       330
    84.3200       290
    84.3400       282
    84.3600       286
    84.3800       282
    84.4000       296
    84.4200       298
    84.4400       318
    84.4600       258
    84.4800       298
    84.5000       254
    84.5200       314
    84.5400       270
    84.5600       286
    84.5800       268
    84.6000       284
    84.6200       252
    84.6400       278
    84.6600       258
    84.6800       268
    84.7000       264
    84.7200       270
    84.7400       246
    84.7600       282
    84.7800       280
    84.8000       272
    84.8200       238
    84.8400       248
    84.8600       262
    84.8800       266
    84.9000       258
    84.9200       252
    84.9400       242
    84.9600       242
    84.9800       236
    85.0000       214
    85.0200       256
    85.0400       234
    85.0600       240
    85.0800       254
    85.1000       250
    85.1200       250
    85.1400       228
    85.1600       236
    85.1800       234
    85.2000       218
    85.2200       246
    85.2400       248
    85.2600       242
    85.2800       240
    85.3000       228
    85.3200       252
    85.3400       260
    85.3600       238
    85.3800       254
    85.4000       244
    85.4200       278
    85.4400       262
    85.4600       282
    85.4800       276
    85.5000       288
    85.5200       296
    85.5400       292
    85.5600       340
    85.5800       278
    85.6000       268
    85.6200       282
    85.6400       310
    85.6600       290
    85.6800       290
    85.7000       270
    85.7200       262
    85.7400       294
    85.7600       256
    85.7800       248
    85.8000       280
    85.8200       266
    85.8400       278
    85.8600       272
    85.8800       264
    85.9000       252
    85.9200       230
    85.9400       238
    85.9600       270
    85.9800       250
    86.0000       240
    86.0200       204
    86.0400       208
    86.0600       238
    86.0800       222
    86.1000       228
    86.1200       248
    86.1400       200
    86.1600       242
    86.1800       240
    86.2000       224
    86.2200       214
    86.2400       230
    86.2600       202
    86.2800       224
    86.3000       194
    86.3200       212
    86.3400       216
    86.3600       210
    86.3800       218
    86.4000       210
    86.4200       214
    86.4400       222
    86.4600       232
    86.4800       258
    86.5000       230
    86.5200       204
    86.5400       216
    86.5600       214
    86.5800       228
    86.6000       244
    86.6200       256
    86.6400       232
    86.6600       244
    86.6800       228
    86.7000       268
    86.7200       250
    86.7400       290
    86.7600       274
    86.7800       278
    86.8000       294
    86.8200       294
    86.8400       290
    86.8600       290
    86.8800       310
    86.9000       296
    86.9200       328
    86.9400       366
    86.9600       322
    86.9800       320
    87.0000       310
    87.0200       306
    87.0400       372
    87.0600       296
    87.0800       336
    87.1000       348
    87.1200       328
    87.1400       310
    87.1600       274
    87.1800       302
    87.2000       290
    87.2200       286
    87.2400       266
    87.2600       262
    87.2800       302
    87.3000       302
    87.3200       288
    87.3400       270
    87.3600       254
    87.3800       290
    87.4000       278
    87.4200       268
    87.4400       244
    87.4600       236
    87.4800       288
    87.5000       246
    87.5200       324
    87.5400       288
    87.5600       314
    87.5800       258
    87.6000       266
    87.6200       286
    87.6400       328
    87.6600       282
    87.6800       254
    87.7000       312
    87.7200       326
    87.7400       316
    87.7600       338
    87.7800       332
    87.8000       322
    87.8200       330
    87.8400       372
    87.8600       330
    87.8800       336
    87.9000       348
    87.9200       354
    87.9400       370
    87.9600       354
    87.9800       364
    88.0000       336
    88.0200       348
    88.0400       338
    88.0600       406
    88.0800       344
    88.1000       348
    88.1200       378
    88.1400       336
    88.1600       340
    88.1800       364
    88.2000       348
    88.2200       338
    88.2400       356
    88.2600       340
    88.2800       304
    88.3000       382
    88.3200       334
    88.3400       330
    88.3600       342
    88.3800       330
    88.4000       334
    88.4200       310
    88.4400       346
    88.4600       310
    88.4800       362
    88.5000       352
    88.5200       352
    88.5400       316
    88.5600       306
    88.5800       338
    88.6000       332
    88.6200       326
    88.6400       338
    88.6600       316
    88.6800       322
    88.7000       344
    88.7200       312
    88.7400       312
    88.7600       312
    88.7800       324
    88.8000       292
    88.8200       330
    88.8400       322
    88.8600       308
    88.8800       292
    88.9000       332
    88.9200       276
    88.9400       294
    88.9600       274
    88.9800       300
    89.0000       310
    89.0200       286
    89.0400       240
    89.0600       268
    89.0800       272
    89.1000       256
    89.1200       266
    89.1400       260
    89.1600       278
    89.1800       226
    89.2000       296
    89.2200       280
    89.2400       220
    89.2600       262
    89.2800       272
    89.3000       226
    89.3200       280
    89.3400       286
    89.3600       262
    89.3800       292
    89.4000       252
    89.4200       252
    89.4400       250
    89.4600       284
    89.4800       288
    89.5000       284
    89.5200       262
    89.5400       282
    89.5600       250
    89.5800       284
    89.6000       260
    89.6200       280
    89.6400       294
    89.6600       274
    89.6800       294
    89.7000       274
    89.7200       270
    89.7400       296
    89.7600       300
    89.7800       296
    89.8000       274
    89.8200       276
    89.8400       300
    89.8600       280
    89.8800       282
    89.9000       274
    89.9200       288
    89.9400       310
    89.9600       288
    89.9800       316
    90.0000       290
