    10.0000       336
    10.0200       348
    10.0400       370
    10.0600       370
    10.0800       354
    10.1000       350
    10.1200       370
    10.1400       380
    10.1600       356
    10.1800       348
    10.2000       376
    10.2200       370
    10.2400       362
    10.2600       340
    10.2800       336
    10.3000       342
    10.3200       352
    10.3400       346
    10.3600       326
    10.3800       324
    10.4000       378
    10.4200       348
    10.4400       346
    10.4600       334
    10.4800       328
    10.5000       310
    10.5200       362
    10.5400       330
    10.5600       348
    10.5800       334
    10.6000       366
    10.6200       320
    10.6400       312
    10.6600       336
    10.6800       374
    10.7000       322
    10.7200       348
    10.7400       354
    10.7600       312
    10.7800       318
    10.8000       344
    10.8200       354
    10.8400       358
    10.8600       332
    10.8800       310
    10.9000       322
    10.9200       306
    10.9400       320
    10.9600       338
    10.9800       330
    11.0000       318
    11.0200       352
    11.0400       342
    11.0600       318
    11.0800       358
    11.1000       330
    11.1200       306
    11.1400       314
    11.1600       300
    11.1800       348
    11.2000       298
    11.2200       350
    11.2400       340
    11.2600       332
    11.2800       346
    11.3000       336
    11.3200       288
    11.3400       314
    11.3600       336
    11.3800       312
    11.4000       326
    11.4200       374
    11.4400       316
    11.4600       322
    11.4800       336
    11.5000       288
    11.5200       314
    11.5400       282
    11.5600       338
    11.5800       320
    11.6000       302
    11.6200       312
    11.6400       320
    11.6600       332
    11.6800       292
    11.7000       362
    11.7200       330
    11.7400       320
    11.7600       326
    11.7800       344
    11.8000       372
    11.8200       372
    11.8400       356
    11.8600       324
    11.8800       382
    11.9000       386
    11.9200       400
    11.9400       420
    11.9600       462
    11.9800       450
    12.0000       484
    12.0200       448
    12.0400       516
    12.0600       540
    12.0800       560
    12.1000       620
    12.1200       700
    12.1400       732
    12.1600       678
    12.1800       750
    12.2000       782
    12.2200       756
    12.2400       688
    12.2600       662
    12.2800       554
    12.3000       458
    12.3200       414
    12.3400       386
    12.3600       334
    12.3800       356
    12.4000       310
    12.4200       304
    12.4400       288
    12.4600       316
    12.4800       294
    12.5000       306
    12.5200       310
    12.5400       296
    12.5600       280
    12.5800       314
    12.6000       282
    12.6200       272
    12.6400       298
    12.6600       280
    12.6800       316
    12.7000       338
    12.7200       284
    12.7400       268
    12.7600       286
    12.7800       298
    12.8000       304
    12.8200       296
    12.8400       278
    12.8600       322
    12.8800       288
    12.9000       282
    12.9200       284
    12.9400       304
    12.9600       288
    12.9800       274
    13.0000       278
    13.0200       284
    13.0400       308
    13.0600       276
    13.0800       258
    13.1000       266
    13.1200       258
    13.1400       242
    13.1600       274
    13.1800       288
    13.2000       264
    13.2200       256
    13.2400       272
    13.2600       284
    13.2800       286
    13.3000       292
    13.3200       252
    13.3400       272
    13.3600       222
    13.3800       324
    13.4000       286
    13.4200       280
    13.4400       240
    13.4600       282
    13.4800       248
    13.5000       258
    13.5200       226
    13.5400       264
    13.5600       232
    13.5800       288
    13.6000       246
    13.6200       260
    13.6400       278
    13.6600       280
    13.6800       260
    13.7000       256
    13.7200       286
    13.7400       278
    13.7600       236
    13.7800       278
    13.8000       238
    13.8200       254
    13.8400       270
    13.8600       254
    13.8800       256
    13.9000       256
    13.9200       252
    13.9400       266
    13.9600       242
    13.9800       266
    14.0000       268
    14.0200       250
    14.0400       256
    14.0600       280
    14.0800       270
    14.1000       246
    14.1200       238
    14.1400       248
    14.1600       242
    14.1800       254
    14.2000       268
    14.2200       274
    14.2400       256
    14.2600       260
    14.2800       264
    14.3000       250
    14.3200       242
    14.3400       264
    14.3600       248
    14.3800       232
    14.4000       252
    14.4200       276
    14.4400       274
    14.4600       250
    14.4800       250
    14.5000       270
    14.5200       270
    14.5400       292
    14.5600       290
    14.5800       280
    14.6000       286
    14.6200       288
    14.6400       282
    14.6600       296
    14.6800       296
    14.7000       296
    14.7200       306
    14.7400       312
    14.7600       318
    14.7800       340
    14.8000       330
    14.8200       348
    14.8400       368
    14.8600       396
    14.8800       424
    14.9000       432
    14.9200       512
    14.9400       512
    14.9600       572
    14.9800       610
    15.0000       642
    15.0200       644
    15.0400       764
    15.0600       884
    15.0800       936
    15.1000      1046
    15.1200      1134
    15.1400      1200
    15.1600      1366
    15.1800      1398
    15.2000      1420
    15.2200      1366
    15.2400      1224
    15.2600      1090
    15.2800       926
    15.3000       706
    15.3200       586
    15.3400       514
    15.3600       440
    15.3800       358
    15.4000       312
    15.4200       336
    15.4400       312
    15.4600       328
    15.4800       294
    15.5000       270
    15.5200       272
    15.5400       256
    15.5600       274
    15.5800       260
    15.6000       240
    15.6200       250
    15.6400       264
    15.6600       254
    15.6800       238
    15.7000       250
    15.7200       258
    15.7400       254
    15.7600       264
    15.7800       244
    15.8000       242
    15.8200       208
    15.8400       242
    15.8600       224
    15.8800       252
    15.9000       248
    15.9200       260
    15.9400       278
    15.9600       250
    15.9800       238
    16.0000       222
    16.0200       240
    16.0400       292
    16.0600       228
    16.0800       274
    16.1000       258
    16.1200       274
    16.1400       258
    16.1600       302
    16.1800       276
    16.2000       270
    16.2200       276
    16.2400       280
    16.2600       322
    16.2800       308
    16.3000       298
    16.3200       288
    16.3400       304
    16.3600       292
    16.3800       302
    16.4000       276
    16.4200       320
    16.4400       270
    16.4600       280
    16.4800       266
    16.5000       272
    16.5200       248
    16.5400       304
    16.5600       288
    16.5800       308
    16.6000       302
    16.6200       306
    16.6400       332
    16.6600       368
    16.6800       374
    16.7000       442
    16.7200       442
    16.7400       486
    16.7600       514
    16.7800       518
    16.8000       598
    16.8200       656
    16.8400       718
    16.8600       826
    16.8800       862
    16.9000       962
    16.9200      1100
    16.9400      1290
    16.9600      1512
    16.9800      1674
    17.0000      1910
    17.0200      2118
    17.0400      2286
    17.0600      2192
    17.0800      2044
    17.1000      1792
    17.1200      1596
    17.1400      1378
    17.1600      1152
    17.1800      1062
    17.2000      1010
    17.2200       952
    17.2400       880
    17.2600       918
    17.2800       868
    17.3000       772
    17.3200       744
    17.3400       712
    17.3600       622
    17.3800       538
    17.4000       522
    17.4200       468
    17.4400       480
    17.4600       456
    17.4800       454
    17.5000       422
    17.5200       412
    17.5400       420
    17.5600       406
    17.5800       404
    17.6000       422
    17.6200       414
    17.6400       466
    17.6600       516
    17.6800       468
    17.7000       530
    17.7200       554
    17.7400       600
    17.7600       692
    17.7800       712
    17.8000       722
    17.8200       746
    17.8400       786
    17.8600       692
    17.8800       648
    17.9000       544
    17.9200       496
    17.9400       416
    17.9600       376
    17.9800       302
    18.0000       286
    18.0200       258
    18.0400       276
    18.0600       270
    18.0800       254
    18.1000       246
    18.1200       280
    18.1400       194
    18.1600       234
    18.1800       242
    18.2000       232
    18.2200       220
    18.2400       224
    18.2600       236
    18.2800       236
    18.3000       220
    18.3200       210
    18.3400       194
    18.3600       218
    18.3800       214
    18.4000       194
    18.4200       212
    18.4400       206
    18.4600       196
    18.4800       226
    18.5000       210
    18.5200       234
    18.5400       206
    18.5600       232
    18.5800       234
    18.6000       208
    18.6200       232
    18.6400       230
    18.6600       222
    18.6800       210
    18.7000       188
    18.7200       232
    18.7400       186
    18.7600       188
    18.7800       230
    18.8000       228
    18.8200       200
    18.8400       216
    18.8600       250
    18.8800       234
    18.9000       244
    18.9200       254
    18.9400       216
    18.9600       250
    18.9800       248
    19.0000       264
    19.0200       292
    19.0400       282
    19.0600       282
    19.0800       256
    19.1000       288
    19.1200       340
    19.1400       348
    19.1600       332
    19.1800       366
    19.2000       406
    19.2200       442
    19.2400       478
    19.2600       512
    19.2800       594
    19.3000       630
    19.3200       698
    19.3400       770
    19.3600       880
    19.3800       988
    19.4000      1058
    19.4200      1432
    19.4400      1534
    19.4600      1784
    19.4800      1956
    19.5000      2316
    19.5200      2532
    19.5400      2702
    19.5600      2714
    19.5800      2542
    19.6000      2204
    19.6200      1762
    19.6400      1464
    19.6600      1154
    19.6800       976
    19.7000       910
    19.7200       796
    19.7400       732
    19.7600       768
    19.7800       800
    19.8000       894
    19.8200       976
    19.8400      1062
    19.8600      1182
    19.8800      1340
    19.9000      1500
    19.9200      1652
    19.9400      1846
    19.9600      1930
    19.9800      2052
    20.0000      2134
    20.0200      1964
    20.0400      1746
    20.0600      1462
    20.0800      1166
    20.1000       904
    20.1200       698
    20.1400       556
    20.1600       492
    20.1800       414
    20.2000       388
    20.2200       328
    20.2400       344
    20.2600       310
    20.2800       292
    20.3000       298
    20.3200       314
    20.3400       282
    20.3600       272
    20.3800       250
    20.4000       286
    20.4200       246
    20.4400       264
    20.4600       240
    20.4800       242
    20.5000       250
    20.5200       188
    20.5400       266
    20.5600       248
    20.5800       264
    20.6000       246
    20.6200       232
    20.6400       248
    20.6600       248
    20.6800       270
    20.7000       242
    20.7200       304
    20.7400       270
    20.7600       282
    20.7800       294
    20.8000       298
    20.8200       346
    20.8400       340
    20.8600       372
    20.8800       370
    20.9000       436
    20.9200       476
    20.9400       540
    20.9600       600
    20.9800       656
    21.0000       714
    21.0200       850
    21.0400      1020
    21.0600      1088
    21.0800      1234
    21.1000      1458
    21.1200      1656
    21.1400      1854
    21.1600      2082
    21.1800      2292
    21.2000      2328
    21.2200      2384
    21.2400      2370
    21.2600      2086
    21.2800      1828
    21.3000      1572
    21.3200      1304
    21.3400      1066
    21.3600       842
    21.3800       702
    21.4000       618
    21.4200       548
    21.4400       454
    21.4600       392
    21.4800       348
    21.5000       324
    21.5200       302
    21.5400       280
    21.5600       272
    21.5800       272
    21.6000       224
    21.6200       234
    21.6400       240
    21.6600       242
    21.6800       232
    21.7000       234
    21.7200       246
    21.7400       226
    21.7600       196
    21.7800       174
    21.8000       236
    21.8200       206
    21.8400       178
    21.8600       202
    21.8800       222
    21.9000       192
    21.9200       206
    21.9400       226
    21.9600       222
    21.9800       214
    22.0000       204
    22.0200       200
    22.0400       228
    22.0600       228
    22.0800       214
    22.1000       222
    22.1200       220
    22.1400       202
    22.1600       212
    22.1800       224
    22.2000       234
    22.2200       236
    22.2400       226
    22.2600       216
    22.2800       216
    22.3000       224
    22.3200       208
    22.3400       264
    22.3600       254
    22.3800       304
    22.4000       268
    22.4200       312
    22.4400       336
    22.4600       332
    22.4800       356
    22.5000       400
    22.5200       452
    22.5400       512
    22.5600       518
    22.5800       530
    22.6000       640
    22.6200       748
    22.6400       806
    22.6600       920
    22.6800      1052
    22.7000      1308
    22.7200      1536
    22.7400      1776
    22.7600      2104
    22.7800      2402
    22.8000      2880
    22.8200      3172
    22.8400      3484
    22.8600      3742
    22.8800      3708
    22.9000      3440
    22.9200      2958
    22.9400      2460
    22.9600      1856
    22.9800      1500
    23.0000      1124
    23.0200       968
    23.0400       748
    23.0600       618
    23.0800       580
    23.1000       530
    23.1200       506
    23.1400       466
    23.1600       414
    23.1800       382
    23.2000       388
    23.2200       384
    23.2400       348
    23.2600       330
    23.2800       284
    23.3000       284
    23.3200       258
    23.3400       272
    23.3600       260
    23.3800       240
    23.4000       262
    23.4200       220
    23.4400       224
    23.4600       238
    23.4800       238
    23.5000       234
    23.5200       226
    23.5400       210
    23.5600       218
    23.5800       228
    23.6000       234
    23.6200       212
    23.6400       242
    23.6600       240
    23.6800       244
    23.7000       238
    23.7200       212
    23.7400       238
    23.7600       236
    23.7800       222
    23.8000       226
    23.8200       196
    23.8400       220
    23.8600       216
    23.8800       232
    23.9000       248
    23.9200       214
    23.9400       238
    23.9600       244
    23.9800       252
    24.0000       238
    24.0200       238
    24.0400       238
    24.0600       258
    24.0800       254
    24.1000       288
    24.1200       258
    24.1400       274
    24.1600       342
    24.1800       332
    24.2000       308
    24.2200       344
    24.2400       366
    24.2600       388
    24.2800       444
    24.3000       494
    24.3200       482
    24.3400       546
    24.3600       626
    24.3800       696
    24.4000       802
    24.4200       932
    24.4400      1070
    24.4600      1216
    24.4800      1258
    24.5000      1312
    24.5200      1410
    24.5400      1476
    24.5600      1450
    24.5800      1460
    24.6000      1378
    24.6200      1266
    24.6400      1168
    24.6600      1060
    24.6800       922
    24.7000       894
    24.7200       806
    24.7400       790
    24.7600       720
    24.7800       662
    24.8000       668
    24.8200       608
    24.8400       608
    24.8600       524
    24.8800       500
    24.9000       454
    24.9200       480
    24.9400       438
    24.9600       476
    24.9800       456
    25.0000       466
    25.0200       532
    25.0400       474
    25.0600       514
    25.0800       550
    25.1000       558
    25.1200       602
    25.1400       594
    25.1600       624
    25.1800       722
    25.2000       764
    25.2200       846
    25.2400       856
    25.2600       990
    25.2800      1066
    25.3000      1130
    25.3200      1168
    25.3400      1180
    25.3600      1140
    25.3800      1090
    25.4000       994
    25.4200       906
    25.4400       896
    25.4600       832
    25.4800       838
    25.5000       856
    25.5200       872
    25.5400       998
    25.5600      1044
    25.5800      1050
    25.6000      1084
    25.6200      1056
    25.6400       916
    25.6600       898
    25.6800       770
    25.7000       694
    25.7200       564
    25.7400       480
    25.7600       448
    25.7800       412
    25.8000       414
    25.8200       336
    25.8400       386
    25.8600       338
    25.8800       280
    25.9000       300
    25.9200       318
    25.9400       260
    25.9600       272
    25.9800       272
    26.0000       256
    26.0200       290
    26.0400       262
    26.0600       248
    26.0800       252
    26.1000       246
    26.1200       258
    26.1400       260
    26.1600       274
    26.1800       250
    26.2000       244
    26.2200       278
    26.2400       208
    26.2600       282
    26.2800       276
    26.3000       278
    26.3200       288
    26.3400       262
    26.3600       264
    26.3800       286
    26.4000       282
    26.4200       274
    26.4400       260
    26.4600       270
    26.4800       270
    26.5000       270
    26.5200       272
    26.5400       248
    26.5600       266
    26.5800       264
    26.6000       292
    26.6200       286
    26.6400       262
    26.6600       262
    26.6800       260
    26.7000       266
    26.7200       298
    26.7400       274
    26.7600       230
    26.7800       258
    26.8000       258
    26.8200       246
    26.8400       258
    26.8600       242
    26.8800       252
    26.9000       248
    26.9200       252
    26.9400       270
    26.9600       264
    26.9800       236
    27.0000       228
    27.0200       234
    27.0400       278
    27.0600       284
    27.0800       296
    27.1000       310
    27.1200       334
    27.1400       348
    27.1600       354
    27.1800       398
    27.2000       406
    27.2200       412
    27.2400       492
    27.2600       534
    27.2800       558
    27.3000       644
    27.3200       750
    27.3400       818
    27.3600       878
    27.3800      1108
    27.4000      1152
    27.4200      1308
    27.4400      1352
    27.4600      1486
    27.4800      1494
    27.5000      1458
    27.5200      1420
    27.5400      1366
    27.5600      1266
    27.5800      1128
    27.6000      1082
    27.6200       938
    27.6400       768
    27.6600       724
    27.6800       642
    27.7000       578
    27.7200       498
    27.7400       450
    27.7600       446
    27.7800       388
    27.8000       330
    27.8200       332
    27.8400       368
    27.8600       304
    27.8800       310
    27.9000       278
    27.9200       294
    27.9400       310
    27.9600       276
    27.9800       244
    28.0000       292
    28.0200       248
    28.0400       234
    28.0600       272
    28.0800       266
    28.1000       228
    28.1200       256
    28.1400       254
    28.1600       248
    28.1800       290
    28.2000       226
    28.2200       250
    28.2400       250
    28.2600       252
    28.2800       280
    28.3000       250
    28.3200       258
    28.3400       254
    28.3600       292
    28.3800       300
    28.4000       270
    28.4200       270
    28.4400       262
    28.4600       262
    28.4800       274
    28.5000       276
    28.5200       262
    28.5400       282
    28.5600       318
    28.5800       330
    28.6000       328
    28.6200       324
    28.6400       350
    28.6600       432
    28.6800       402
    28.7000       420
    28.7200       416
    28.7400       422
    28.7600       410
    28.7800       404
    28.8000       348
    28.8200       360
    28.8400       324
    28.8600       324
    28.8800       312
    28.9000       302
    28.9200       276
    28.9400       282
    28.9600       268
    28.9800       272
    29.0000       302
    29.0200       260
    29.0400       282
    29.0600       280
    29.0800       268
    29.1000       258
    29.1200       282
    29.1400       234
    29.1600       280
    29.1800       320
    29.2000       318
    29.2200       298
    29.2400       294
    29.2600       314
    29.2800       378
    29.3000       340
    29.3200       356
    29.3400       362
    29.3600       380
    29.3800       438
    29.4000       480
    29.4200       488
    29.4400       546
    29.4600       568
    29.4800       610
    29.5000       642
    29.5200       682
    29.5400       756
    29.5600       762
    29.5800       874
    29.6000       900
    29.6200       996
    29.6400      1074
    29.6600      1190
    29.6800      1164
    29.7000      1196
    29.7200      1132
    29.7400      1050
    29.7600       944
    29.7800       904
    29.8000       758
    29.8200       702
    29.8400       632
    29.8600       654
    29.8800       600
    29.9000       672
    29.9200       706
    29.9400       740
    29.9600       780
    29.9800       900
    30.0000       946
    30.0200      1124
    30.0400      1304
    30.0600      1426
    30.0800      1614
    30.1000      1772
    30.1200      2032
    30.1400      2180
    30.1600      2440
    30.1800      2576
    30.2000      2582
    30.2200      2458
    30.2400      2426
    30.2600      2414
    30.2800      2200
    30.3000      2104
    30.3200      1914
    30.3400      1916
    30.3600      1848
    30.3800      1822
    30.4000      1776
    30.4200      1986
    30.4400      1946
    30.4600      2108
    30.4800      2266
    30.5000      2398
    30.5200      2768
    30.5400      2950
    30.5600      3352
    30.5800      3914
    30.6000      4352
    30.6200      4864
    30.6400      5324
    30.6600      5904
    30.6800      6092
    30.7000      6196
    30.7200      5994
    30.7400      5516
    30.7600      4852
    30.7800      4236
    30.8000      3760
    30.8200      3052
    30.8400      2398
    30.8600      2066
    30.8800      1608
    30.9000      1336
    30.9200      1270
    30.9400      1104
    30.9600       948
    30.9800       948
    31.0000       852
    31.0200       772
    31.0400       726
    31.0600       662
    31.0800       578
    31.1000       538
    31.1200       522
    31.1400       464
    31.1600       436
    31.1800       454
    31.2000       404
    31.2200       406
    31.2400       366
    31.2600       362
    31.2800       318
    31.3000       360
    31.3200       324
    31.3400       334
    31.3600       330
    31.3800       344
    31.4000       342
    31.4200       308
    31.4400       308
    31.4600       324
    31.4800       338
    31.5000       314
    31.5200       348
    31.5400       318
    31.5600       310
    31.5800       374
    31.6000       354
    31.6200       378
    31.6400       372
    31.6600       416
    31.6800       404
    31.7000       428
    31.7200       474
    31.7400       504
    31.7600       556
    31.7800       598
    31.8000       620
    31.8200       710
    31.8400       822
    31.8600       910
    31.8800      1058
    31.9000      1184
    31.9200      1440
    31.9400      1612
    31.9600      1704
    31.9800      1840
    32.0000      1936
    32.0200      1934
    32.0400      1850
    32.0600      1704
    32.0800      1566
    32.1000      1488
    32.1200      1304
    32.1400      1124
    32.1600       984
    32.1800       964
    32.2000       962
    32.2200       948
    32.2400      1012
    32.2600      1064
    32.2800      1112
    32.3000      1192
    32.3200      1466
    32.3400      1616
    32.3600      1800
    32.3800      2188
    32.4000      2406
    32.4200      2868
    32.4400      3384
    32.4600      4030
    32.4800      4886
    32.5000      5436
    32.5200      6088
    32.5400      6466
    32.5600      6704
    32.5800      6718
    32.6000      6452
    32.6200      5926
    32.6400      5552
    32.6600      4662
    32.6800      4058
    32.7000      3482
    32.7200      2864
    32.7400      2404
    32.7600      2012
    32.7800      1750
    32.8000      1492
    32.8200      1344
    32.8400      1270
    32.8600      1042
    32.8800       974
    32.9000       944
    32.9200       944
    32.9400       936
    32.9600      1000
    32.9800      1110
    33.0000      1136
    33.0200      1168
    33.0400      1262
    33.0600      1350
    33.0800      1460
    33.1000      1430
    33.1200      1314
    33.1400      1292
    33.1600      1182
    33.1800      1046
    33.2000       904
    33.2200       768
    33.2400       718
    33.2600       608
    33.2800       546
    33.3000       486
    33.3200       382
    33.3400       398
    33.3600       386
    33.3800       334
    33.4000       352
    33.4200       282
    33.4400       348
    33.4600       280
    33.4800       272
    33.5000       302
    33.5200       260
    33.5400       266
    33.5600       256
    33.5800       240
    33.6000       280
    33.6200       248
    33.6400       278
    33.6600       234
    33.6800       220
    33.7000       200
    33.7200       256
    33.7400       226
    33.7600       222
    33.7800       218
    33.8000       228
    33.8200       200
    33.8400       232
    33.8600       224
    33.8800       242
    33.9000       260
    33.9200       250
    33.9400       204
    33.9600       234
    33.9800       230
    34.0000       216
    34.0200       232
    34.0400       240
    34.0600       252
    34.0800       250
    34.1000       250
    34.1200       246
    34.1400       250
    34.1600       278
    34.1800       236
    34.2000       242
    34.2200       288
    34.2400       288
    34.2600       290
    34.2800       316
    34.3000       326
    34.3200       324
    34.3400       360
    34.3600       384
    34.3800       400
    34.4000       468
    34.4200       504
    34.4400       536
    34.4600       572
    34.4800       604
    34.5000       602
    34.5200       602
    34.5400       550
    34.5600       576
    34.5800       504
    34.6000       518
    34.6200       456
    34.6400       452
    34.6600       388
    34.6800       394
    34.7000       358
    34.7200       338
    34.7400       328
    34.7600       324
    34.7800       310
    34.8000       320
    34.8200       346
    34.8400       308
    34.8600       310
    34.8800       342
    34.9000       330
    34.9200       298
    34.9400       284
    34.9600       292
    34.9800       290
    35.0000       298
    35.0200       316
    35.0400       334
    35.0600       336
    35.0800       360
    35.1000       376
    35.1200       412
    35.1400       368
    35.1600       360
    35.1800       334
    35.2000       340
    35.2200       292
    35.2400       306
    35.2600       296
    35.2800       278
    35.3000       282
    35.3200       246
    35.3400       262
    35.3600       266
    35.3800       284
    35.4000       226
    35.4200       248
    35.4400       254
    35.4600       238
    35.4800       240
    35.5000       238
    35.5200       254
    35.5400       264
    35.5600       254
    35.5800       278
    35.6000       220
    35.6200       272
    35.6400       264
    35.6600       284
    35.6800       290
    35.7000       320
    35.7200       300
    35.7400       286
    35.7600       320
    35.7800       310
    35.8000       342
    35.8200       344
    35.8400       344
    35.8600       366
    35.8800       368
    35.9000       428
    35.9200       454
    35.9400       490
    35.9600       516
    35.9800       532
    36.0000       574
    36.0200       598
    36.0400       736
    36.0600       742
    36.0800       834
    36.1000       884
    36.1200       922
    36.1400       922
    36.1600       950
    36.1800       952
    36.2000       902
    36.2200       804
    36.2400       772
    36.2600       678
    36.2800       590
    36.3000       542
    36.3200       520
    36.3400       478
    36.3600       406
    36.3800       412
    36.4000       440
    36.4200       406
    36.4400       386
    36.4600       394
    36.4800       378
    36.5000       342
    36.5200       406
    36.5400       384
    36.5600       404
    36.5800       428
    36.6000       488
    36.6200       460
    36.6400       498
    36.6600       500
    36.6800       538
    36.7000       602
    36.7200       724
    36.7400       788
    36.7600       828
    36.7800      1034
    36.8000      1202
    36.8200      1312
    36.8400      1424
    36.8600      1646
    36.8800      1712
    36.9000      1760
    36.9200      1714
    36.9400      1680
    36.9600      1674
    36.9800      1410
    37.0000      1414
    37.0200      1326
    37.0400      1178
    37.0600      1118
    37.0800      1034
    37.1000      1040
    37.1200       982
    37.1400       978
    37.1600       994
    37.1800       910
    37.2000       970
    37.2200       952
    37.2400       934
    37.2600       834
    37.2800       788
    37.3000       782
    37.3200       732
    37.3400       700
    37.3600       620
    37.3800       638
    37.4000       538
    37.4200       540
    37.4400       514
    37.4600       506
    37.4800       478
    37.5000       482
    37.5200       472
    37.5400       450
    37.5600       454
    37.5800       462
    37.6000       436
    37.6200       476
    37.6400       468
    37.6600       476
    37.6800       470
    37.7000       472
    37.7200       558
    37.7400       568
    37.7600       602
    37.7800       612
    37.8000       672
    37.8200       712
    37.8400       764
    37.8600       814
    37.8800       964
    37.9000      1052
    37.9200      1142
    37.9400      1318
    37.9600      1428
    37.9800      1630
    38.0000      1716
    38.0200      1816
    38.0400      1892
    38.0600      1854
    38.0800      1644
    38.1000      1640
    38.1200      1520
    38.1400      1458
    38.1600      1360
    38.1800      1362
    38.2000      1192
    38.2200      1326
    38.2400      1284
    38.2600      1320
    38.2800      1392
    38.3000      1502
    38.3200      1668
    38.3400      1846
    38.3600      2188
    38.3800      2294
    38.4000      2812
    38.4200      3008
    38.4400      3494
    38.4600      3784
    38.4800      4152
    38.5000      4352
    38.5200      4518
    38.5400      4792
    38.5600      4978
    38.5800      5078
    38.6000      5212
    38.6200      5462
    38.6400      5390
    38.6600      5570
    38.6800      5420
    38.7000      5282
    38.7200      5146
    38.7400      4906
    38.7600      4714
    38.7800      4226
    38.8000      3844
    38.8200      3454
    38.8400      2994
    38.8600      2624
    38.8800      2338
    38.9000      2132
    38.9200      1848
    38.9400      1576
    38.9600      1484
    38.9800      1336
    39.0000      1246
    39.0200      1072
    39.0400      1182
    39.0600      1092
    39.0800      1124
    39.1000      1208
    39.1200      1182
    39.1400      1148
    39.1600      1198
    39.1800      1202
    39.2000      1166
    39.2200      1258
    39.2400      1190
    39.2600      1218
    39.2800      1202
    39.3000      1218
    39.3200      1218
    39.3400      1220
    39.3600      1220
    39.3800      1178
    39.4000      1250
    39.4200      1246
    39.4400      1188
    39.4600      1162
    39.4800      1152
    39.5000      1120
    39.5200      1134
    39.5400      1170
    39.5600      1334
    39.5800      1320
    39.6000      1484
    39.6200      1622
    39.6400      1730
    39.6600      1932
    39.6800      2010
    39.7000      2194
    39.7200      1998
    39.7400      1996
    39.7600      1830
    39.7800      1694
    39.8000      1510
    39.8200      1424
    39.8400      1346
    39.8600      1134
    39.8800      1016
    39.9000       942
    39.9200       830
    39.9400       752
    39.9600       736
    39.9800       658
    40.0000       646
    40.0200       658
    40.0400       636
    40.0600       668
    40.0800       652
    40.1000       694
    40.1200       714
    40.1400       796
    40.1600       824
    40.1800       884
    40.2000       886
    40.2200       874
    40.2400       884
    40.2600       914
    40.2800       902
    40.3000       880
    40.3200       908
    40.3400       888
    40.3600       854
    40.3800       912
    40.4000       980
    40.4200      1014
    40.4400      1102
    40.4600      1136
    40.4800      1336
    40.5000      1352
    40.5200      1454
    40.5400      1592
    40.5600      1750
    40.5800      1706
    40.6000      1694
    40.6200      1738
    40.6400      1640
    40.6600      1504
    40.6800      1510
    40.7000      1366
    40.7200      1268
    40.7400      1166
    40.7600      1038
    40.7800       934
    40.8000       882
    40.8200       776
    40.8400       738
    40.8600       672
    40.8800       694
    40.9000       662
    40.9200       616
    40.9400       658
    40.9600       654
    40.9800       668
    41.0000       712
    41.0200       702
    41.0400       762
    41.0600       844
    41.0800       870
    41.1000       984
    41.1200      1024
    41.1400      1070
    41.1600      1210
    41.1800      1412
    41.2000      1476
    41.2200      1638
    41.2400      1768
    41.2600      1904
    41.2800      1990
    41.3000      1876
    41.3200      1882
    41.3400      2048
    41.3600      2074
    41.3800      1938
    41.4000      1860
    41.4200      1804
    41.4400      1878
    41.4600      1818
    41.4800      1882
    41.5000      1822
    41.5200      1830
    41.5400      1806
    41.5600      1814
    41.5800      1706
    41.6000      1488
    41.6200      1474
    41.6400      1368
    41.6600      1300
    41.6800      1204
    41.7000      1228
    41.7200      1202
    41.7400      1082
    41.7600      1132
    41.7800      1250
    41.8000      1310
    41.8200      1320
    41.8400      1490
    41.8600      1550
    41.8800      1564
    41.9000      1562
    41.9200      1568
    41.9400      1576
    41.9600      1418
    41.9800      1430
    42.0000      1280
    42.0200      1166
    42.0400      1056
    42.0600      1072
    42.0800       892
    42.1000       822
    42.1200       750
    42.1400       652
    42.1600       574
    42.1800       544
    42.2000       516
    42.2200       542
    42.2400       452
    42.2600       470
    42.2800       442
    42.3000       438
    42.3200       392
    42.3400       404
    42.3600       424
    42.3800       372
    42.4000       402
    42.4200       380
    42.4400       422
    42.4600       368
    42.4800       370
    42.5000       332
    42.5200       384
    42.5400       366
    42.5600       380
    42.5800       356
    42.6000       370
    42.6200       378
    42.6400       360
    42.6600       354
    42.6800       366
    42.7000       382
    42.7200       354
    42.7400       362
    42.7600       380
    42.7800       382
    42.8000       404
    42.8200       428
    42.8400       416
    42.8600       408
    42.8800       416
    42.9000       462
    42.9200       508
    42.9400       518
    42.9600       520
    42.9800       578
    43.0000       630
    43.0200       648
    43.0400       722
    43.0600       844
    43.0800       944
    43.1000      1042
    43.1200      1152
    43.1400      1302
    43.1600      1448
    43.1800      1540
    43.2000      1700
    43.2200      1634
    43.2400      1704
    43.2600      1534
    43.2800      1530
    43.3000      1454
    43.3200      1406
    43.3400      1238
    43.3600      1164
    43.3800       982
    43.4000       916
    43.4200       784
    43.4400       764
    43.4600       702
    43.4800       590
    43.5000       592
    43.5200       554
    43.5400       534
    43.5600       456
    43.5800       486
    43.6000       444
    43.6200       480
    43.6400       432
    43.6600       510
    43.6800       478
    43.7000       498
    43.7200       544
    43.7400       530
    43.7600       590
    43.7800       618
    43.8000       618
    43.8200       646
    43.8400       652
    43.8600       666
    43.8800       610
    43.9000       612
    43.9200       594
    43.9400       596
    43.9600       546
    43.9800       570
    44.0000       472
    44.0200       452
    44.0400       460
    44.0600       426
    44.0800       436
    44.1000       388
    44.1200       426
    44.1400       414
    44.1600       430
    44.1800       412
    44.2000       422
    44.2200       414
    44.2400       446
    44.2600       422
    44.2800       464
    44.3000       450
    44.3200       458
    44.3400       474
    44.3600       434
    44.3800       448
    44.4000       448
    44.4200       422
    44.4400       428
    44.4600       432
    44.4800       388
    44.5000       418
    44.5200       458
    44.5400       416
    44.5600       446
    44.5800       452
    44.6000       414
    44.6200       436
    44.6400       490
    44.6600       528
    44.6800       526
    44.7000       528
    44.7200       558
    44.7400       586
    44.7600       676
    44.7800       662
    44.8000       740
    44.8200       762
    44.8400       816
    44.8600       968
    44.8800       960
    44.9000      1170
    44.9200      1238
    44.9400      1500
    44.9600      1522
    44.9800      1670
    45.0000      1848
    45.0200      1962
    45.0400      2062
    45.0600      2224
    45.0800      2102
    45.1000      2286
    45.1200      2352
    45.1400      2382
    45.1600      2288
    45.1800      2412
    45.2000      2532
    45.2200      2476
    45.2400      2384
    45.2600      2366
    45.2800      2300
    45.3000      2208
    45.3200      2090
    45.3400      1844
    45.3600      1848
    45.3800      1812
    45.4000      1730
    45.4200      1662
    45.4400      1576
    45.4600      1554
    45.4800      1410
    45.5000      1296
    45.5200      1230
    45.5400      1194
    45.5600      1098
    45.5800      1100
    45.6000       920
    45.6200       912
    45.6400       844
    45.6600       806
    45.6800       762
    45.7000       718
    45.7200       720
    45.7400       642
    45.7600       660
    45.7800       642
    45.8000       616
    45.8200       608
    45.8400       600
    45.8600       624
    45.8800       562
    45.9000       588
    45.9200       562
    45.9400       592
    45.9600       582
    45.9800       618
    46.0000       570
    46.0200       598
    46.0400       556
    46.0600       580
    46.0800       610
    46.1000       592
    46.1200       610
    46.1400       640
    46.1600       618
    46.1800       668
    46.2000       676
    46.2200       706
    46.2400       720
    46.2600       778
    46.2800       774
    46.3000       924
    46.3200       870
    46.3400       972
    46.3600      1036
    46.3800      1114
    46.4000      1216
    46.4200      1362
    46.4400      1454
    46.4600      1622
    46.4800      1858
    46.5000      2090
    46.5200      2376
    46.5400      2656
    46.5600      3034
    46.5800      3408
    46.6000      4032
    46.6200      4668
    46.6400      5216
    46.6600      5730
    46.6800      6280
    46.7000      6628
    46.7200      6858
    46.7400      6784
    46.7600      6406
    46.7800      6036
    46.8000      5550
    46.8200      5290
    46.8400      4764
    46.8600      4178
    46.8800      3948
    46.9000      3438
    46.9200      2856
    46.9400      2500
    46.9600      2042
    46.9800      1824
    47.0000      1574
    47.0200      1392
    47.0400      1228
    47.0600      1126
    47.0800      1058
    47.1000       926
    47.1200       832
    47.1400       788
    47.1600       732
    47.1800       690
    47.2000       654
    47.2200       620
    47.2400       634
    47.2600       562
    47.2800       558
    47.3000       576
    47.3200       514
    47.3400       468
    47.3600       480
    47.3800       470
    47.4000       474
    47.4200       448
    47.4400       438
    47.4600       454
    47.4800       476
    47.5000       432
    47.5200       430
    47.5400       414
    47.5600       394
    47.5800       478
    47.6000       450
    47.6200       442
    47.6400       430
    47.6600       466
    47.6800       482
    47.7000       492
    47.7200       498
    47.7400       550
    47.7600       574
    47.7800       680
    47.8000       670
    47.8200       710
    47.8400       728
    47.8600       720
    47.8800       702
    47.9000       716
    47.9200       670
    47.9400       638
    47.9600       632
    47.9800       700
    48.0000       660
    48.0200       614
    48.0400       586
    48.0600       604
    48.0800       628
    48.1000       694
    48.1200       644
    48.1400       656
    48.1600       782
    48.1800       738
    48.2000       768
    48.2200       892
    48.2400       844
    48.2600       864
    48.2800       868
    48.3000       844
    48.3200       838
    48.3400       902
    48.3600       858
    48.3800       840
    48.4000       922
    48.4200       952
    48.4400       960
    48.4600      1018
    48.4800      1058
    48.5000      1144
    48.5200      1146
    48.5400      1176
    48.5600      1246
    48.5800      1306
    48.6000      1332
    48.6200      1278
    48.6400      1268
    48.6600      1240
    48.6800      1272
    48.7000      1238
    48.7200      1140
    48.7400      1140
    48.7600      1048
    48.7800      1022
    48.8000       946
    48.8200       824
    48.8400       820
    48.8600       826
    48.8800       702
    48.9000       680
    48.9200       662
    48.9400       586
    48.9600       558
    48.9800       508
    49.0000       460
    49.0200       482
    49.0400       444
    49.0600       422
    49.0800       388
    49.1000       404
    49.1200       408
    49.1400       394
    49.1600       334
    49.1800       338
    49.2000       348
    49.2200       360
    49.2400       336
    49.2600       360
    49.2800       358
    49.3000       324
    49.3200       302
    49.3400       320
    49.3600       302
    49.3800       340
    49.4000       310
    49.4200       318
    49.4400       322
    49.4600       312
    49.4800       334
    49.5000       334
    49.5200       312
    49.5400       324
    49.5600       360
    49.5800       338
    49.6000       324
    49.6200       350
    49.6400       368
    49.6600       354
    49.6800       354
    49.7000       378
    49.7200       358
    49.7400       338
    49.7600       346
    49.7800       356
    49.8000       374
    49.8200       404
    49.8400       396
    49.8600       380
    49.8800       434
    49.9000       422
    49.9200       416
    49.9400       468
    49.9600       430
    49.9800       492
    50.0000       518
    50.0200       554
    50.0400       608
    50.0600       594
    50.0800       710
    50.1000       742
    50.1200       824
    50.1400       884
    50.1600       928
    50.1800       944
    50.2000      1058
    50.2200      1202
    50.2400      1296
    50.2600      1406
    50.2800      1436
    50.3000      1432
    50.3200      1526
    50.3400      1508
    50.3600      1540
    50.3800      1458
    50.4000      1496
    50.4200      1522
    50.4400      1536
    50.4600      1398
    50.4800      1386
    50.5000      1348
    50.5200      1304
    50.5400      1224
    50.5600      1200
    50.5800      1318
    50.6000      1252
    50.6200      1248
    50.6400      1318
    50.6600      1358
    50.6800      1402
    50.7000      1482
    50.7200      1542
    50.7400      1638
    50.7600      1734
    50.7800      1908
    50.8000      1966
    50.8200      2064
    50.8400      2042
    50.8600      2006
    50.8800      1970
    50.9000      1912
    50.9200      1814
    50.9400      1820
    50.9600      1704
    50.9800      1606
    51.0000      1506
    51.0200      1392
    51.0400      1340
    51.0600      1178
    51.0800      1082
    51.1000       984
    51.1200       994
    51.1400       926
    51.1600       874
    51.1800       822
    51.2000       836
    51.2200       798
    51.2400       810
    51.2600       772
    51.2800       752
    51.3000       748
    51.3200       754
    51.3400       822
    51.3600       846
    51.3800       830
    51.4000       822
    51.4200       882
    51.4400       812
    51.4600       802
    51.4800       822
    51.5000       844
    51.5200       762
    51.5400       812
    51.5600       842
    51.5800       854
    51.6000       814
    51.6200       808
    51.6400       830
    51.6600       848
    51.6800       840
    51.7000       874
    51.7200       944
    51.7400      1022
    51.7600      1068
    51.7800      1062
    51.8000      1206
    51.8200      1278
    51.8400      1370
    51.8600      1424
    51.8800      1560
    51.9000      1632
    51.9200      1624
    51.9400      1716
    51.9600      1754
    51.9800      1842
    52.0000      1902
    52.0200      2032
    52.0400      1918
    52.0600      1888
    52.0800      1804
    52.1000      1738
    52.1200      1600
    52.1400      1466
    52.1600      1432
    52.1800      1304
    52.2000      1256
    52.2200      1158
    52.2400      1042
    52.2600       912
    52.2800       914
    52.3000       798
    52.3200       808
    52.3400       736
    52.3600       784
    52.3800       768
    52.4000       780
    52.4200       844
    52.4400       794
    52.4600       874
    52.4800       964
    52.5000      1030
    52.5200      1108
    52.5400      1174
    52.5600      1206
    52.5800      1322
    52.6000      1332
    52.6200      1314
    52.6400      1372
    52.6600      1344
    52.6800      1342
    52.7000      1384
    52.7200      1278
    52.7400      1222
    52.7600      1254
    52.7800      1180
    52.8000      1168
    52.8200      1046
    52.8400      1006
    52.8600       968
    52.8800       900
    52.9000       902
    52.9200       872
    52.9400       810
    52.9600       736
    52.9800       734
    53.0000       738
    53.0200       712
    53.0400       756
    53.0600       776
    53.0800       772
    53.1000       810
    53.1200       880
    53.1400       916
    53.1600      1026
    53.1800      1116
    53.2000      1142
    53.2200      1356
    53.2400      1388
    53.2600      1426
    53.2800      1518
    53.3000      1446
    53.3200      1386
    53.3400      1404
    53.3600      1324
    53.3800      1308
    53.4000      1218
    53.4200      1176
    53.4400      1044
    53.4600      1070
    53.4800       980
    53.5000       888
    53.5200       828
    53.5400       714
    53.5600       700
    53.5800       682
    53.6000       668
    53.6200       610
    53.6400       618
    53.6600       572
    53.6800       562
    53.7000       584
    53.7200       582
    53.7400       542
    53.7600       560
    53.7800       474
    53.8000       522
    53.8200       508
    53.8400       496
    53.8600       532
    53.8800       492
    53.9000       462
    53.9200       484
    53.9400       496
    53.9600       484
    53.9800       434
    54.0000       494
    54.0200       460
    54.0400       452
    54.0600       450
    54.0800       448
    54.1000       450
    54.1200       490
    54.1400       472
    54.1600       498
    54.1800       518
    54.2000       528
    54.2200       532
    54.2400       538
    54.2600       600
    54.2800       636
    54.3000       608
    54.3200       602
    54.3400       636
    54.3600       664
    54.3800       626
    54.4000       676
    54.4200       632
    54.4400       708
    54.4600       732
    54.4800       776
    54.5000       806
    54.5200       754
    54.5400       804
    54.5600       844
    54.5800       884
    54.6000       832
    54.6200       822
    54.6400       830
    54.6600       836
    54.6800       846
    54.7000       910
    54.7200       980
    54.7400       960
    54.7600       986
    54.7800       980
    54.8000       936
    54.8200       894
    54.8400       874
    54.8600       826
    54.8800       858
    54.9000       786
    54.9200       868
    54.9400       866
    54.9600       848
    54.9800       870
    55.0000       804
    55.0200       868
    55.0400       914
    55.0600       966
    55.0800       970
    55.1000       996
    55.1200       988
    55.1400      1064
    55.1600      1098
    55.1800      1116
    55.2000      1106
    55.2200      1030
    55.2400      1070
    55.2600       988
    55.2800      1028
    55.3000       996
    55.3200       960
    55.3400       910
    55.3600       896
    55.3800       888
    55.4000       816
    55.4200       864
    55.4400       842
    55.4600       726
    55.4800       642
    55.5000       640
    55.5200       598
    55.5400       582
    55.5600       584
    55.5800       534
    55.6000       488
    55.6200       464
    55.6400       478
    55.6600       454
    55.6800       466
    55.7000       456
    55.7200       360
    55.7400       402
    55.7600       380
    55.7800       338
    55.8000       330
    55.8200       336
    55.8400       348
    55.8600       322
    55.8800       318
    55.9000       314
    55.9200       330
    55.9400       312
    55.9600       316
    55.9800       324
    56.0000       292
    56.0200       308
    56.0400       286
    56.0600       312
    56.0800       310
    56.1000       326
    56.1200       308
    56.1400       296
    56.1600       300
    56.1800       296
    56.2000       338
    56.2200       344
    56.2400       314
    56.2600       346
    56.2800       314
    56.3000       332
    56.3200       342
    56.3400       332
    56.3600       336
    56.3800       298
    56.4000       334
    56.4200       366
    56.4400       360
    56.4600       334
    56.4800       356
    56.5000       370
    56.5200       334
    56.5400       376
    56.5600       380
    56.5800       396
    56.6000       396
    56.6200       414
    56.6400       440
    56.6600       496
    56.6800       468
    56.7000       478
    56.7200       506
    56.7400       564
    56.7600       560
    56.7800       570
    56.8000       608
    56.8200       614
    56.8400       666
    56.8600       612
    56.8800       606
    56.9000       590
    56.9200       572
    56.9400       592
    56.9600       572
    56.9800       614
    57.0000       598
    57.0200       570
    57.0400       542
    57.0600       550
    57.0800       586
    57.1000       564
    57.1200       554
    57.1400       562
    57.1600       586
    57.1800       646
    57.2000       644
    57.2200       750
    57.2400       812
    57.2600       904
    57.2800       926
    57.3000      1124
    57.3200      1190
    57.3400      1212
    57.3600      1374
    57.3800      1282
    57.4000      1366
    57.4200      1402
    57.4400      1386
    57.4600      1394
    57.4800      1296
    57.5000      1330
    57.5200      1266
    57.5400      1246
    57.5600      1226
    57.5800      1228
    57.6000      1178
    57.6200      1192
    57.6400      1232
    57.6600      1218
    57.6800      1238
    57.7000      1326
    57.7200      1342
    57.7400      1468
    57.7600      1374
    57.7800      1396
    57.8000      1278
    57.8200      1262
    57.8400      1182
    57.8600      1172
    57.8800      1122
    57.9000       996
    57.9200      1012
    57.9400      1006
    57.9600       934
    57.9800       914
    58.0000       810
    58.0200       762
    58.0400       726
    58.0600       708
    58.0800       706
    58.1000       704
    58.1200       680
    58.1400       722
    58.1600       668
    58.1800       748
    58.2000       768
    58.2200       804
    58.2400       816
    58.2600       820
    58.2800       860
    58.3000       896
    58.3200       944
    58.3400       946
    58.3600      1038
    58.3800      1134
    58.4000      1210
    58.4200      1268
    58.4400      1340
    58.4600      1436
    58.4800      1534
    58.5000      1572
    58.5200      1768
    58.5400      1744
    58.5600      1840
    58.5800      1932
    58.6000      2046
    58.6200      2036
    58.6400      2224
    58.6600      2386
    58.6800      2406
    58.7000      2522
    58.7200      2514
    58.7400      2562
    58.7600      2542
    58.7800      2462
    58.8000      2546
    58.8200      2400
    58.8400      2348
    58.8600      2204
    58.8800      2130
    58.9000      2024
    58.9200      1952
    58.9400      1792
    58.9600      1644
    58.9800      1562
    59.0000      1430
    59.0200      1310
    59.0400      1202
    59.0600      1132
    59.0800      1092
    59.1000      1020
    59.1200       952
    59.1400       922
    59.1600       882
    59.1800       894
    59.2000       918
    59.2200       918
    59.2400       964
    59.2600      1006
    59.2800      1086
    59.3000      1050
    59.3200      1208
    59.3400      1258
    59.3600      1300
    59.3800      1434
    59.4000      1572
    59.4200      1552
    59.4400      1640
    59.4600      1646
    59.4800      1620
    59.5000      1544
    59.5200      1530
    59.5400      1528
    59.5600      1482
    59.5800      1486
    59.6000      1430
    59.6200      1346
    59.6400      1414
    59.6600      1366
    59.6800      1262
    59.7000      1264
    59.7200      1202
    59.7400      1190
    59.7600      1116
    59.7800      1098
    59.8000      1094
    59.8200      1046
    59.8400       992
    59.8600      1032
    59.8800       964
    59.9000       970
    59.9200       904
    59.9400       882
    59.9600       828
    59.9800       750
    60.0000       730
    60.0200       674
    60.0400       660
    60.0600       650
    60.0800       704
    60.1000       636
    60.1200       576
    60.1400       558
    60.1600       570
    60.1800       518
    60.2000       480
    60.2200       500
    60.2400       456
    60.2600       496
    60.2800       446
    60.3000       466
    60.3200       428
    60.3400       458
    60.3600       424
    60.3800       428
    60.4000       456
    60.4200       378
    60.4400       376
    60.4600       406
    60.4800       424
    60.5000       392
    60.5200       380
    60.5400       370
    60.5600       392
    60.5800       364
    60.6000       392
    60.6200       388
    60.6400       376
    60.6600       402
    60.6800       376
    60.7000       364
    60.7200       356
    60.7400       382
    60.7600       396
    60.7800       358
    60.8000       422
    60.8200       396
    60.8400       436
    60.8600       436
    60.8800       476
    60.9000       440
    60.9200       488
    60.9400       442
    60.9600       502
    60.9800       530
    61.0000       544
    61.0200       544
    61.0400       584
    61.0600       590
    61.0800       640
    61.1000       668
    61.1200       682
    61.1400       758
    61.1600       694
    61.1800       776
    61.2000       728
    61.2200       802
    61.2400       806
    61.2600       784
    61.2800       766
    61.3000       826
    61.3200       840
    61.3400       866
    61.3600       846
    61.3800       898
    61.4000       932
    61.4200       900
    61.4400       928
    61.4600      1062
    61.4800      1080
    61.5000      1108
    61.5200      1120
    61.5400      1266
    61.5600      1226
    61.5800      1284
    61.6000      1328
    61.6200      1396
    61.6400      1352
    61.6600      1378
    61.6800      1268
    61.7000      1280
    61.7200      1156
    61.7400      1156
    61.7600      1020
    61.7800      1052
    61.8000       964
    61.8200       942
    61.8400       894
    61.8600       912
    61.8800       864
    61.9000       748
    61.9200       774
    61.9400       682
    61.9600       660
    61.9800       704
    62.0000       644
    62.0200       638
    62.0400       626
    62.0600       596
    62.0800       622
    62.1000       568
    62.1200       558
    62.1400       558
    62.1600       572
    62.1800       546
    62.2000       556
    62.2200       522
    62.2400       520
    62.2600       466
    62.2800       534
    62.3000       494
    62.3200       478
    62.3400       490
    62.3600       468
    62.3800       484
    62.4000       430
    62.4200       458
    62.4400       430
    62.4600       436
    62.4800       444
    62.5000       384
    62.5200       410
    62.5400       406
    62.5600       404
    62.5800       422
    62.6000       382
    62.6200       404
    62.6400       374
    62.6600       362
    62.6800       396
    62.7000       384
    62.7200       400
    62.7400       388
    62.7600       412
    62.7800       410
    62.8000       368
    62.8200       374
    62.8400       382
    62.8600       382
    62.8800       356
    62.9000       348
    62.9200       342
    62.9400       360
    62.9600       342
    62.9800       328
    63.0000       326
    63.0200       360
    63.0400       300
    63.0600       300
    63.0800       288
    63.1000       298
    63.1200       300
    63.1400       278
    63.1600       270
    63.1800       280
    63.2000       274
    63.2200       266
    63.2400       244
    63.2600       280
    63.2800       268
    63.3000       274
    63.3200       302
    63.3400       268
    63.3600       250
    63.3800       290
    63.4000       264
    63.4200       292
    63.4400       298
    63.4600       304
    63.4800       304
    63.5000       318
    63.5200       338
    63.5400       324
    63.5600       324
    63.5800       334
    63.6000       368
    63.6200       352
    63.6400       420
    63.6600       410
    63.6800       422
    63.7000       462
    63.7200       476
    63.7400       498
    63.7600       530
    63.7800       568
    63.8000       612
    63.8200       696
    63.8400       652
    63.8600       720
    63.8800       724
    63.9000       728
    63.9200       752
    63.9400       812
    63.9600       734
    63.9800       720
    64.0000       742
    64.0200       702
    64.0400       688
    64.0600       632
    64.0800       646
    64.1000       586
    64.1200       582
    64.1400       570
    64.1600       524
    64.1800       522
    64.2000       448
    64.2200       462
    64.2400       446
    64.2600       366
    64.2800       380
    64.3000       384
    64.3200       372
    64.3400       374
    64.3600       362
    64.3800       314
    64.4000       298
    64.4200       286
    64.4400       318
    64.4600       284
    64.4800       300
    64.5000       290
    64.5200       274
    64.5400       288
    64.5600       282
    64.5800       254
    64.6000       298
    64.6200       238
    64.6400       230
    64.6600       242
    64.6800       262
    64.7000       272
    64.7200       258
    64.7400       240
    64.7600       244
    64.7800       240
    64.8000       270
    64.8200       256
    64.8400       242
    64.8600       238
    64.8800       256
    64.9000       230
    64.9200       268
    64.9400       256
    64.9600       276
    64.9800       270
    65.0000       276
    65.0200       276
    65.0400       276
    65.0600       286
    65.0800       298
    65.1000       330
    65.1200       302
    65.1400       364
    65.1600       370
    65.1800       360
    65.2000       374
    65.2200       390
    65.2400       384
    65.2600       438
    65.2800       464
    65.3000       438
    65.3200       456
    65.3400       460
    65.3600       458
    65.3800       452
    65.4000       444
    65.4200       416
    65.4400       454
    65.4600       414
    65.4800       436
    65.5000       430
    65.5200       412
    65.5400       410
    65.5600       388
    65.5800       426
    65.6000       404
    65.6200       382
    65.6400       412
    65.6600       344
    65.6800       386
    65.7000       380
    65.7200       362
    65.7400       386
    65.7600       382
    65.7800       344
    65.8000       330
    65.8200       344
    65.8400       290
    65.8600       342
    65.8800       288
    65.9000       312
    65.9200       290
    65.9400       286
    65.9600       282
    65.9800       292
    66.0000       284
    66.0200       262
    66.0400       282
    66.0600       258
    66.0800       256
    66.1000       250
    66.1200       230
    66.1400       260
    66.1600       254
    66.1800       244
    66.2000       270
    66.2200       262
    66.2400       252
    66.2600       284
    66.2800       278
    66.3000       238
    66.3200       272
    66.3400       296
    66.3600       294
    66.3800       314
    66.4000       302
    66.4200       324
    66.4400       326
    66.4600       322
    66.4800       388
    66.5000       362
    66.5200       332
    66.5400       382
    66.5600       370
    66.5800       382
    66.6000       408
    66.6200       400
    66.6400       392
    66.6600       420
    66.6800       454
    66.7000       456
    66.7200       438
    66.7400       480
    66.7600       446
    66.7800       532
    66.8000       602
    66.8200       602
    66.8400       580
    66.8600       640
    66.8800       662
    66.9000       684
    66.9200       762
    66.9400       680
    66.9600       742
    66.9800       758
    67.0000       742
    67.0200       730
    67.0400       680
    67.0600       686
    67.0800       636
    67.1000       664
    67.1200       642
    67.1400       606
    67.1600       620
    67.1800       606
    67.2000       542
    67.2200       490
    67.2400       506
    67.2600       446
    67.2800       478
    67.3000       430
    67.3200       396
    67.3400       426
    67.3600       412
    67.3800       386
    67.4000       374
    67.4200       354
    67.4400       380
    67.4600       348
    67.4800       306
    67.5000       322
    67.5200       344
    67.5400       332
    67.5600       334
    67.5800       340
    67.6000       312
    67.6200       314
    67.6400       302
    67.6600       322
    67.6800       338
    67.7000       306
    67.7200       336
    67.7400       320
    67.7600       340
    67.7800       320
    67.8000       392
    67.8200       360
    67.8400       388
    67.8600       406
    67.8800       390
    67.9000       444
    67.9200       460
    67.9400       474
    67.9600       576
    67.9800       548
    68.0000       616
    68.0200       628
    68.0400       714
    68.0600       766
    68.0800       860
    68.1000       828
    68.1200       912
    68.1400       996
    68.1600      1022
    68.1800      1038
    68.2000      1058
    68.2200      1022
    68.2400      1038
    68.2600      1076
    68.2800      1058
    68.3000       990
    68.3200      1040
    68.3400       958
    68.3600      1020
    68.3800       864
    68.4000       956
    68.4200       828
    68.4400       824
    68.4600       690
    68.4800       730
    68.5000       698
    68.5200       688
    68.5400       606
    68.5600       556
    68.5800       574
    68.6000       546
    68.6200       512
    68.6400       482
    68.6600       490
    68.6800       438
    68.7000       462
    68.7200       446
    68.7400       434
    68.7600       410
    68.7800       400
    68.8000       392
    68.8200       384
    68.8400       372
    68.8600       362
    68.8800       324
    68.9000       324
    68.9200       298
    68.9400       368
    68.9600       334
    68.9800       320
    69.0000       314
    69.0200       350
    69.0400       350
    69.0600       322
    69.0800       318
    69.1000       360
    69.1200       356
    69.1400       354
    69.1600       338
    69.1800       392
    69.2000       406
    69.2200       384
    69.2400       390
    69.2600       432
    69.2800       438
    69.3000       450
    69.3200       486
    69.3400       460
    69.3600       434
    69.3800       518
    69.4000       516
    69.4200       554
    69.4400       528
    69.4600       530
    69.4800       540
    69.5000       528
    69.5200       494
    69.5400       450
    69.5600       474
    69.5800       474
    69.6000       488
    69.6200       442
    69.6400       436
    69.6600       422
    69.6800       440
    69.7000       422
    69.7200       402
    69.7400       404
    69.7600       380
    69.7800       418
    69.8000       368
    69.8200       374
    69.8400       372
    69.8600       382
    69.8800       368
    69.9000       390
    69.9200       402
    69.9400       372
    69.9600       392
    69.9800       380
    70.0000       382
    70.0200       356
    70.0400       368
    70.0600       322
    70.0800       340
    70.1000       316
    70.1200       306
    70.1400       316
    70.1600       324
    70.1800       318
    70.2000       300
    70.2200       298
    70.2400       270
    70.2600       264
    70.2800       252
    70.3000       272
    70.3200       260
    70.3400       236
    70.3600       230
    70.3800       268
    70.4000       218
    70.4200       228
    70.4400       250
    70.4600       234
    70.4800       264
    70.5000       248
    70.5200       216
    70.5400       282
    70.5600       256
    70.5800       286
    70.6000       282
    70.6200       266
    70.6400       258
    70.6600       234
    70.6800       214
    70.7000       268
    70.7200       232
    70.7400       248
    70.7600       210
    70.7800       266
    70.8000       228
    70.8200       226
    70.8400       256
    70.8600       234
    70.8800       216
    70.9000       214
    70.9200       212
    70.9400       222
    70.9600       260
    70.9800       224
    71.0000       230
    71.0200       208
    71.0400       226
    71.0600       242
    71.0800       224
    71.1000       228
    71.1200       230
    71.1400       232
    71.1600       220
    71.1800       254
    71.2000       228
    71.2200       294
    71.2400       330
    71.2600       270
    71.2800       280
    71.3000       342
    71.3200       332
    71.3400       334
    71.3600       376
    71.3800       392
    71.4000       454
    71.4200       454
    71.4400       448
    71.4600       470
    71.4800       478
    71.5000       530
    71.5200       564
    71.5400       546
    71.5600       532
    71.5800       516
    71.6000       536
    71.6200       498
    71.6400       542
    71.6600       528
    71.6800       522
    71.7000       504
    71.7200       524
    71.7400       544
    71.7600       528
    71.7800       530
    71.8000       470
    71.8200       476
    71.8400       438
    71.8600       502
    71.8800       456
    71.9000       464
    71.9200       406
    71.9400       504
    71.9600       388
    71.9800       428
    72.0000       446
    72.0200       438
    72.0400       414
    72.0600       388
    72.0800       408
    72.1000       400
    72.1200       394
    72.1400       342
    72.1600       464
    72.1800       416
    72.2000       476
    72.2200       454
    72.2400       464
    72.2600       462
    72.2800       480
    72.3000       520
    72.3200       490
    72.3400       500
    72.3600       528
    72.3800       542
    72.4000       528
    72.4200       554
    72.4400       512
    72.4600       582
    72.4800       510
    72.5000       534
    72.5200       532
    72.5400       498
    72.5600       572
    72.5800       550
    72.6000       576
    72.6200       558
    72.6400       506
    72.6600       580
    72.6800       604
    72.7000       604
    72.7200       554
    72.7400       566
    72.7600       562
    72.7800       578
    72.8000       578
    72.8200       544
    72.8400       522
    72.8600       502
    72.8800       556
    72.9000       552
    72.9200       522
    72.9400       482
    72.9600       500
    72.9800       476
    73.0000       498
    73.0200       462
    73.0400       460
    73.0600       462
    73.0800       392
    73.1000       372
    73.1200       406
    73.1400       372
    73.1600       340
    73.1800       364
    73.2000       352
    73.2200       336
    73.2400       332
    73.2600       316
    73.2800       334
    73.3000       282
    73.3200       262
    73.3400       298
    73.3600       290
    73.3800       282
    73.4000       274
    73.4200       242
    73.4400       240
    73.4600       276
    73.4800       232
    73.5000       258
    73.5200       282
    73.5400       262
    73.5600       232
    73.5800       258
    73.6000       268
    73.6200       256
    73.6400       264
    73.6600       272
    73.6800       232
    73.7000       264
    73.7200       270
    73.7400       252
    73.7600       262
    73.7800       262
    73.8000       246
    73.8200       252
    73.8400       272
    73.8600       274
    73.8800       268
    73.9000       290
    73.9200       258
    73.9400       268
    73.9600       294
    73.9800       248
    74.0000       282
    74.0200       260
    74.0400       248
    74.0600       264
    74.0800       320
    74.1000       280
    74.1200       292
    74.1400       286
    74.1600       298
    74.1800       322
    74.2000       302
    74.2200       256
    74.2400       290
    74.2600       300
    74.2800       290
    74.3000       276
    74.3200       278
    74.3400       256
    74.3600       238
    74.3800       232
    74.4000       240
    74.4200       220
    74.4400       226
    74.4600       230
    74.4800       218
    74.5000       208
    74.5200       234
    74.5400       220
    74.5600       226
    74.5800       206
    74.6000       190
    74.6200       186
    74.6400       170
    74.6600       218
    74.6800       222
    74.7000       204
    74.7200       194
    74.7400       232
    74.7600       172
    74.7800       222
    74.8000       208
    74.8200       204
    74.8400       208
    74.8600       194
    74.8800       232
    74.9000       192
    74.9200       198
    74.9400       214
    74.9600       216
    74.9800       222
    75.0000       210
    75.0200       208
    75.0400       200
    75.0600       198
    75.0800       196
    75.1000       224
    75.1200       240
    75.1400       242
    75.1600       254
    75.1800       256
    75.2000       276
    75.2200       290
    75.2400       234
    75.2600       250
    75.2800       248
    75.3000       240
    75.3200       224
    75.3400       290
    75.3600       270
    75.3800       264
    75.4000       240
    75.4200       242
    75.4400       252
    75.4600       272
    75.4800       246
    75.5000       264
    75.5200       260
    75.5400       284
    75.5600       250
    75.5800       266
    75.6000       250
    75.6200       278
    75.6400       276
    75.6600       278
    75.6800       262
    75.7000       280
    75.7200       250
    75.7400       272
    75.7600       246
    75.7800       264
    75.8000       274
    75.8200       252
    75.8400       284
    75.8600       242
    75.8800       276
    75.9000       252
    75.9200       232
    75.9400       258
    75.9600       256
    75.9800       280
    76.0000       260
    76.0200       246
    76.0400       264
    76.0600       252
    76.0800       246
    76.1000       282
    76.1200       268
    76.1400       246
    76.1600       264
    76.1800       266
    76.2000       294
    76.2200       300
    76.2400       264
    76.2600       290
    76.2800       256
    76.3000       292
    76.3200       350
    76.3400       318
    76.3600       332
    76.3800       348
    76.4000       316
    76.4200       358
    76.4400       318
    76.4600       324
    76.4800       372
    76.5000       368
    76.5200       360
    76.5400       396
    76.5600       398
    76.5800       372
    76.6000       406
    76.6200       382
    76.6400       390
    76.6600       446
    76.6800       494
    76.7000       454
    76.7200       400
    76.7400       410
    76.7600       396
    76.7800       400
    76.8000       420
    76.8200       434
    76.8400       432
    76.8600       404
    76.8800       388
    76.9000       352
    76.9200       378
    76.9400       364
    76.9600       354
    76.9800       354
    77.0000       330
    77.0200       362
    77.0400       336
    77.0600       346
    77.0800       310
    77.1000       326
    77.1200       312
    77.1400       330
    77.1600       348
    77.1800       320
    77.2000       342
    77.2200       380
    77.2400       362
    77.2600       374
    77.2800       382
    77.3000       350
    77.3200       388
    77.3400       402
    77.3600       366
    77.3800       404
    77.4000       430
    77.4200       446
    77.4400       496
    77.4600       526
    77.4800       532
    77.5000       546
    77.5200       534
    77.5400       532
    77.5600       634
    77.5800       630
    77.6000       680
    77.6200       702
    77.6400       696
    77.6600       714
    77.6800       710
    77.7000       734
    77.7200       700
    77.7400       702
    77.7600       694
    77.7800       690
    77.8000       680
    77.8200       694
    77.8400       638
    77.8600       632
    77.8800       594
    77.9000       628
    77.9200       622
    77.9400       570
    77.9600       542
    77.9800       528
    78.0000       526
    78.0200       474
    78.0400       502
    78.0600       392
    78.0800       426
    78.1000       430
    78.1200       412
    78.1400       384
    78.1600       402
    78.1800       368
    78.2000       350
    78.2200       344
    78.2400       340
    78.2600       384
    78.2800       318
    78.3000       330
    78.3200       354
    78.3400       360
    78.3600       330
    78.3800       320
    78.4000       332
    78.4200       348
    78.4400       344
    78.4600       366
    78.4800       364
    78.5000       368
    78.5200       362
    78.5400       360
    78.5600       356
    78.5800       400
    78.6000       398
    78.6200       394
    78.6400       394
    78.6600       360
    78.6800       380
    78.7000       432
    78.7200       404
    78.7400       426
    78.7600       428
    78.7800       406
    78.8000       398
    78.8200       430
    78.8400       382
    78.8600       360
    78.8800       418
    78.9000       342
    78.9200       372
    78.9400       330
    78.9600       354
    78.9800       360
    79.0000       352
    79.0200       338
    79.0400       340
    79.0600       320
    79.0800       328
    79.1000       312
    79.1200       282
    79.1400       276
    79.1600       274
    79.1800       306
    79.2000       258
    79.2200       290
    79.2400       248
    79.2600       278
    79.2800       252
    79.3000       280
    79.3200       262
    79.3400       238
    79.3600       236
    79.3800       246
    79.4000       254
    79.4200       262
    79.4400       248
    79.4600       272
    79.4800       266
    79.5000       234
    79.5200       240
    79.5400       252
    79.5600       262
    79.5800       250
    79.6000       270
    79.6200       246
    79.6400       226
    79.6600       244
    79.6800       250
    79.7000       264
    79.7200       266
    79.7400       258
    79.7600       246
    79.7800       256
    79.8000       264
    79.8200       262
    79.8400       260
    79.8600       236
    79.8800       236
    79.9000       244
    79.9200       264
    79.9400       262
    79.9600       266
    79.9800       258
    80.0000       246
    80.0200       250
    80.0400       254
    80.0600       232
    80.0800       262
    80.1000       238
    80.1200       276
    80.1400       248
    80.1600       258
    80.1800       286
    80.2000       254
    80.2200       270
    80.2400       250
    80.2600       270
    80.2800       272
    80.3000       256
    80.3200       264
    80.3400       280
    80.3600       268
    80.3800       282
    80.4000       280
    80.4200       296
    80.4400       262
    80.4600       280
    80.4800       326
    80.5000       314
    80.5200       298
    80.5400       290
    80.5600       310
    80.5800       276
    80.6000       284
    80.6200       274
    80.6400       278
    80.6600       262
    80.6800       298
    80.7000       268
    80.7200       298
    80.7400       278
    80.7600       292
    80.7800       246
    80.8000       264
    80.8200       254
    80.8400       244
    80.8600       278
    80.8800       262
    80.9000       244
    80.9200       254
    80.9400       234
    80.9600       222
    80.9800       232
    81.0000       238
    81.0200       250
    81.0400       244
    81.0600       230
    81.0800       220
    81.1000       230
    81.1200       236
    81.1400       230
    81.1600       234
    81.1800       244
    81.2000       236
    81.2200       274
    81.2400       232
    81.2600       236
    81.2800       246
    81.3000       266
    81.3200       270
    81.3400       290
    81.3600       258
    81.3800       244
    81.4000       254
    81.4200       256
    81.4400       260
    81.4600       260
    81.4800       260
    81.5000       250
    81.5200       262
    81.5400       246
    81.5600       262
    81.5800       268
    81.6000       286
    81.6200       292
    81.6400       254
    81.6600       280
    81.6800       262
    81.7000       274
    81.7200       258
    81.7400       286
    81.7600       296
    81.7800       290
    81.8000       276
    81.8200       286
    81.8400       264
    81.8600       288
    81.8800       282
    81.9000       292
    81.9200       304
    81.9400       296
    81.9600       304
    81.9800       306
    82.0000       344
    82.0200       356
    82.0400       318
    82.0600       348
    82.0800       352
    82.1000       340
    82.1200       360
    82.1400       304
    82.1600       356
    82.1800       352
    82.2000       352
    82.2200       376
    82.2400       346
    82.2600       370
    82.2800       366
    82.3000       368
    82.3200       380
    82.3400       402
    82.3600       366
    82.3800       360
    82.4000       382
    82.4200       384
    82.4400       378
    82.4600       416
    82.4800       450
    82.5000       396
    82.5200       424
    82.5400       424
    82.5600       450
    82.5800       412
    82.6000       444
    82.6200       514
    82.6400       452
    82.6600       526
    82.6800       528
    82.7000       500
    82.7200       572
    82.7400       610
    82.7600       562
    82.7800       592
    82.8000       648
    82.8200       660
    82.8400       690
    82.8600       700
    82.8800       678
    82.9000       736
    82.9200       672
    82.9400       682
    82.9600       690
    82.9800       684
    83.0000       686
    83.0200       650
    83.0400       680
    83.0600       650
    83.0800       680
    83.1000       586
    83.1200       622
    83.1400       588
    83.1600       610
    83.1800       642
    83.2000       576
    83.2200       534
    83.2400       526
    83.2600       524
    83.2800       488
    83.3000       532
    83.3200       506
    83.3400       464
    83.3600       470
    83.3800       438
    83.4000       456
    83.4200       410
    83.4400       400
    83.4600       440
    83.4800       430
    83.5000       420
    83.5200       426
    83.5400       372
    83.5600       370
    83.5800       330
    83.6000       336
    83.6200       348
    83.6400       346
    83.6600       356
    83.6800       332
    83.7000       346
    83.7200       322
    83.7400       302
    83.7600       370
    83.7800       324
    83.8000       336
    83.8200       314
    83.8400       314
    83.8600       320
    83.8800       316
    83.9000       278
    83.9200       308
    83.9400       314
    83.9600       302
    83.9800       334
    84.0000       306
    84.0200       314
    84.0400       324
    84.0600       280
    84.0800       326
    84.1000       308
    84.1200       314
    84.1400       352
    84.1600       318
    84.1800       326
    84.2000       290
    84.2200       328
    84.2400       296
    84.2600       346
    84.2800       322
    84.3000       314
    84.3200       306
    84.3400       334
    84.3600       302
    84.3800       332
    84.4000       336
    84.4200       310
    84.4400       316
    84.4600       318
    84.4800       292
    84.5000       334
    84.5200       326
    84.5400       302
    84.5600       322
    84.5800       284
    84.6000       310
    84.6200       272
    84.6400       276
    84.6600       318
    84.6800       280
    84.7000       272
    84.7200       302
    84.7400       294
    84.7600       268
    84.7800       300
    84.8000       296
    84.8200       276
    84.8400       290
    84.8600       292
    84.8800       294
    84.9000       264
    84.9200       284
    84.9400       296
    84.9600       278
    84.9800       252
    85.0000       268
    85.0200       260
    85.0400       270
    85.0600       258
    85.0800       250
    85.1000       246
    85.1200       252
    85.1400       264
    85.1600       282
    85.1800       246
    85.2000       266
    85.2200       242
    85.2400       248
    85.2600       226
    85.2800       268
    85.3000       256
    85.3200       296
    85.3400       276
    85.3600       266
    85.3800       272
    85.4000       276
    85.4200       286
    85.4400       260
    85.4600       318
    85.4800       288
    85.5000       304
    85.5200       300
    85.5400       324
    85.5600       278
    85.5800       236
    85.6000       298
    85.6200       302
    85.6400       300
    85.6600       288
    85.6800       286
    85.7000       330
    85.7200       254
    85.7400       272
    85.7600       286
    85.7800       282
    85.8000       296
    85.8200       290
    85.8400       252
    85.8600       278
    85.8800       268
    85.9000       248
    85.9200       256
    85.9400       236
    85.9600       262
    85.9800       242
    86.0000       252
    86.0200       246
    86.0400       236
    86.0600       270
    86.0800       242
    86.1000       270
    86.1200       260
    86.1400       252
    86.1600       238
    86.1800       262
    86.2000       238
    86.2200       252
    86.2400       238
    86.2600       228
    86.2800       240
    86.3000       228
    86.3200       260
    86.3400       254
    86.3600       232
    86.3800       230
    86.4000       232
    86.4200       228
    86.4400       262
    86.4600       264
    86.4800       268
    86.5000       242
    86.5200       266
    86.5400       242
    86.5600       254
    86.5800       264
    86.6000       250
    86.6200       268
    86.6400       248
    86.6600       264
    86.6800       302
    86.7000       284
    86.7200       288
    86.7400       328
    86.7600       298
    86.7800       310
    86.8000       306
    86.8200       336
    86.8400       356
    86.8600       348
    86.8800       380
    86.9000       362
    86.9200       370
    86.9400       378
    86.9600       408
    86.9800       372
    87.0000       406
    87.0200       364
    87.0400       368
    87.0600       390
    87.0800       374
    87.1000       398
    87.1200       342
    87.1400       366
    87.1600       344
    87.1800       354
    87.2000       354
    87.2200       374
    87.2400       350
    87.2600       320
    87.2800       348
    87.3000       362
    87.3200       322
    87.3400       324
    87.3600       332
    87.3800       302
    87.4000       302
    87.4200       286
    87.4400       296
    87.4600       298
    87.4800       340
    87.5000       324
    87.5200       286
    87.5400       312
    87.5600       298
    87.5800       306
    87.6000       302
    87.6200       320
    87.6400       316
    87.6600       306
    87.6800       338
    87.7000       366
    87.7200       364
    87.7400       366
    87.7600       404
    87.7800       388
    87.8000       418
    87.8200       372
    87.8400       370
    87.8600       452
    87.8800       392
    87.9000       406
    87.9200       418
    87.9400       398
    87.9600       388
    87.9800       420
    88.0000       406
    88.0200       408
    88.0400       464
    88.0600       460
    88.0800       458
    88.1000       426
    88.1200       430
    88.1400       424
    88.1600       428
    88.1800       402
    88.2000       438
    88.2200       392
    88.2400       404
    88.2600       426
    88.2800       426
    88.3000       414
    88.3200       394
    88.3400       430
    88.3600       440
    88.3800       434
    88.4000       420
    88.4200       422
    88.4400       398
    88.4600       400
    88.4800       400
    88.5000       370
    88.5200       390
    88.5400       410
    88.5600       376
    88.5800       386
    88.6000       390
    88.6200       402
    88.6400       392
    88.6600       380
    88.6800       366
    88.7000       344
    88.7200       356
    88.7400       366
    88.7600       350
    88.7800       356
    88.8000       356
    88.8200       290
    88.8400       302
    88.8600       300
    88.8800       302
    88.9000       304
    88.9200       276
    88.9400       312
    88.9600       306
    88.9800       304
    89.0000       266
    89.0200       290
    89.0400       278
    89.0600       264
    89.0800       270
    89.1000       256
    89.1200       254
    89.1400       270
    89.1600       254
    89.1800       242
    89.2000       256
    89.2200       256
    89.2400       228
    89.2600       240
    89.2800       264
    89.3000       228
    89.3200       282
    89.3400       262
    89.3600       250
    89.3800       272
    89.4000       266
    89.4200       258
    89.4400       282
    89.4600       252
    89.4800       236
    89.5000       280
    89.5200       248
    89.5400       274
    89.5600       258
    89.5800       250
    89.6000       284
    89.6200       266
    89.6400       252
    89.6600       268
    89.6800       302
    89.7000       236
    89.7200       272
    89.7400       284
    89.7600       284
    89.7800       270
    89.8000       276
    89.8200       288
    89.8400       298
    89.8600       280
    89.8800       292
    89.9000       284
    89.9200       280
    89.9400       302
    89.9600       302
    89.9800       282
    90.0000       298
