    10.0000       370
    10.0200       348
    10.0400       400
    10.0600       404
    10.0800       390
    10.1000       388
    10.1200       348
    10.1400       330
    10.1600       360
    10.1800       372
    10.2000       344
    10.2200       362
    10.2400       382
    10.2600       350
    10.2800       382
    10.3000       334
    10.3200       388
    10.3400       374
    10.3600       334
    10.3800       346
    10.4000       342
    10.4200       338
    10.4400       358
    10.4600       334
    10.4800       342
    10.5000       336
    10.5200       332
    10.5400       350
    10.5600       368
    10.5800       334
    10.6000       380
    10.6200       330
    10.6400       340
    10.6600       362
    10.6800       342
    10.7000       350
    10.7200       342
    10.7400       360
    10.7600       362
    10.7800       338
    10.8000       368
    10.8200       320
    10.8400       344
    10.8600       340
    10.8800       342
    10.9000       304
    10.9200       338
    10.9400       320
    10.9600       346
    10.9800       352
    11.0000       308
    11.0200       328
    11.0400       348
    11.0600       318
    11.0800       346
    11.1000       314
    11.1200       316
    11.1400       314
    11.1600       342
    11.1800       342
    11.2000       298
    11.2200       314
    11.2400       310
    11.2600       318
    11.2800       356
    11.3000       302
    11.3200       362
    11.3400       336
    11.3600       314
    11.3800       326
    11.4000       302
    11.4200       300
    11.4400       318
    11.4600       374
    11.4800       340
    11.5000       304
    11.5200       300
    11.5400       292
    11.5600       350
    11.5800       308
    11.6000       348
    11.6200       316
    11.6400       298
    11.6600       314
    11.6800       314
    11.7000       318
    11.7200       358
    11.7400       362
    11.7600       356
    11.7800       354
    11.8000       366
    11.8200       362
    11.8400       342
    11.8600       368
    11.8800       414
    11.9000       370
    11.9200       378
    11.9400       438
    11.9600       450
    11.9800       390
    12.0000       478
    12.0200       534
    12.0400       500
    12.0600       562
    12.0800       542
    12.1000       620
    12.1200       656
    12.1400       728
    12.1600       772
    12.1800       834
    12.2000       914
    12.2200       832
    12.2400       762
    12.2600       650
    12.2800       578
    12.3000       520
    12.3200       390
    12.3400       354
    12.3600       348
    12.3800       330
    12.4000       346
    12.4200       308
    12.4400       292
    12.4600       324
    12.4800       346
    12.5000       308
    12.5200       312
    12.5400       304
    12.5600       276
    12.5800       282
    12.6000       276
    12.6200       296
    12.6400       292
    12.6600       280
    12.6800       316
    12.7000       280
    12.7200       298
    12.7400       302
    12.7600       296
    12.7800       282
    12.8000       294
    12.8200       266
    12.8400       264
    12.8600       284
    12.8800       290
    12.9000       258
    12.9200       314
    12.9400       264
    12.9600       266
    12.9800       250
    13.0000       224
    13.0200       268
    13.0400       280
    13.0600       252
    13.0800       286
    13.1000       252
    13.1200       278
    13.1400       310
    13.1600       250
    13.1800       272
    13.2000       274
    13.2200       272
    13.2400       246
    13.2600       274
    13.2800       242
    13.3000       280
    13.3200       274
    13.3400       260
    13.3600       258
    13.3800       250
    13.4000       286
    13.4200       254
    13.4400       254
    13.4600       290
    13.4800       272
    13.5000       260
    13.5200       250
    13.5400       298
    13.5600       268
    13.5800       242
    13.6000       284
    13.6200       232
    13.6400       244
    13.6600       254
    13.6800       282
    13.7000       270
    13.7200       246
    13.7400       250
    13.7600       276
    13.7800       238
    13.8000       232
    13.8200       260
    13.8400       276
    13.8600       246
    13.8800       256
    13.9000       250
    13.9200       244
    13.9400       252
    13.9600       246
    13.9800       280
    14.0000       238
    14.0200       242
    14.0400       220
    14.0600       266
    14.0800       234
    14.1000       248
    14.1200       232
    14.1400       234
    14.1600       248
    14.1800       248
    14.2000       228
    14.2200       252
    14.2400       264
    14.2600       262
    14.2800       258
    14.3000       220
    14.3200       254
    14.3400       254
    14.3600       258
    14.3800       210
    14.4000       248
    14.4200       220
    14.4400       268
    14.4600       284
    14.4800       262
    14.5000       268
    14.5200       234
    14.5400       268
    14.5600       288
    14.5800       292
    14.6000       258
    14.6200       294
    14.6400       276
    14.6600       276
    14.6800       288
    14.7000       336
    14.7200       270
    14.7400       332
    14.7600       322
    14.7800       298
    14.8000       318
    14.8200       382
    14.8400       368
    14.8600       392
    14.8800       406
    14.9000       440
    14.9200       454
    14.9400       506
    14.9600       512
    14.9800       602
    15.0000       604
    15.0200       712
    15.0400       704
    15.0600       748
    15.0800       870
    15.1000       944
    15.1200      1020
    15.1400      1150
    15.1600      1250
    15.1800      1392
    15.2000      1410
    15.2200      1360
    15.2400      1276
    15.2600      1066
    15.2800       846
    15.3000       674
    15.3200       570
    15.3400       472
    15.3600       402
    15.3800       368
    15.4000       340
    15.4200       294
    15.4400       300
    15.4600       334
    15.4800       302
    15.5000       288
    15.5200       296
    15.5400       278
    15.5600       254
    15.5800       236
    15.6000       244
    15.6200       236
    15.6400       244
    15.6600       254
    15.6800       258
    15.7000       262
    15.7200       246
    15.7400       256
    15.7600       250
    15.7800       260
    15.8000       254
    15.8200       242
    15.8400       248
    15.8600       260
    15.8800       256
    15.9000       230
    15.9200       250
    15.9400       228
    15.9600       246
    15.9800       228
    16.0000       258
    16.0200       260
    16.0400       246
    16.0600       252
    16.0800       266
    16.1000       254
    16.1200       274
    16.1400       266
    16.1600       242
    16.1800       292
    16.2000       284
    16.2200       274
    16.2400       270
    16.2600       280
    16.2800       314
    16.3000       294
    16.3200       306
    16.3400       272
    16.3600       288
    16.3800       276
    16.4000       290
    16.4200       272
    16.4400       298
    16.4600       284
    16.4800       280
    16.5000       240
    16.5200       302
    16.5400       284
    16.5600       284
    16.5800       308
    16.6000       310
    16.6200       310
    16.6400       330
    16.6600       322
    16.6800       356
    16.7000       386
    16.7200       394
    16.7400       436
    16.7600       446
    16.7800       444
    16.8000       500
    16.8200       584
    16.8400       622
    16.8600       692
    16.8800       766
    16.9000       858
    16.9200       952
    16.9400      1116
    16.9600      1304
    16.9800      1454
    17.0000      1696
    17.0200      1940
    17.0400      2148
    17.0600      2218
    17.0800      2184
    17.1000      1958
    17.1200      1670
    17.1400      1424
    17.1600      1196
    17.1800      1168
    17.2000      1036
    17.2200       994
    17.2400       948
    17.2600       922
    17.2800       832
    17.3000       790
    17.3200       728
    17.3400       674
    17.3600       626
    17.3800       590
    17.4000       558
    17.4200       506
    17.4400       490
    17.4600       470
    17.4800       452
    17.5000       432
    17.5200       448
    17.5400       428
    17.5600       378
    17.5800       420
    17.6000       442
    17.6200       432
    17.6400       450
    17.6600       518
    17.6800       478
    17.7000       482
    17.7200       540
    17.7400       560
    17.7600       622
    17.7800       632
    17.8000       700
    17.8200       734
    17.8400       698
    17.8600       720
    17.8800       696
    17.9000       576
    17.9200       468
    17.9400       406
    17.9600       382
    17.9800       322
    18.0000       286
    18.0200       280
    18.0400       264
    18.0600       250
    18.0800       272
    18.1000       236
    18.1200       238
    18.1400       234
    18.1600       212
    18.1800       240
    18.2000       212
    18.2200       214
    18.2400       214
    18.2600       210
    18.2800       224
    18.3000       238
    18.3200       198
    18.3400       208
    18.3600       230
    18.3800       190
    18.4000       182
    18.4200       222
    18.4400       208
    18.4600       232
    18.4800       198
    18.5000       218
    18.5200       208
    18.5400       222
    18.5600       242
    18.5800       228
    18.6000       202
    18.6200       222
    18.6400       212
    18.6600       232
    18.6800       242
    18.7000       250
    18.7200       224
    18.7400       230
    18.7600       244
    18.7800       232
    18.8000       236
    18.8200       212
    18.8400       218
    18.8600       238
    18.8800       250
    18.9000       234
    18.9200       204
    18.9400       250
    18.9600       242
    18.9800       260
    19.0000       266
    19.0200       282
    19.0400       296
    19.0600       278
    19.0800       282
    19.1000       304
    19.1200       276
    19.1400       332
    19.1600       372
    19.1800       350
    19.2000       382
    19.2200       456
    19.2400       452
    19.2600       492
    19.2800       514
    19.3000       524
    19.3200       630
    19.3400       750
    19.3600       746
    19.3800       984
    19.4000      1004
    19.4200      1146
    19.4400      1450
    19.4600      1634
    19.4800      1852
    19.5000      2020
    19.5200      2398
    19.5400      2714
    19.5600      2686
    19.5800      2588
    19.6000      2216
    19.6200      1874
    19.6400      1432
    19.6600      1200
    19.6800       998
    19.7000       866
    19.7200       798
    19.7400       740
    19.7600       762
    19.7800       734
    19.8000       880
    19.8200       886
    19.8400       920
    19.8600      1062
    19.8800      1108
    19.9000      1348
    19.9200      1562
    19.9400      1658
    19.9600      1848
    19.9800      2060
    20.0000      2016
    20.0200      1950
    20.0400      1726
    20.0600      1506
    20.0800      1250
    20.1000       950
    20.1200       794
    20.1400       628
    20.1600       536
    20.1800       438
    20.2000       402
    20.2200       360
    20.2400       344
    20.2600       342
    20.2800       330
    20.3000       312
    20.3200       270
    20.3400       296
    20.3600       310
    20.3800       282
    20.4000       258
    20.4200       236
    20.4400       254
    20.4600       280
    20.4800       246
    20.5000       238
    20.5200       264
    20.5400       246
    20.5600       222
    20.5800       234
    20.6000       240
    20.6200       266
    20.6400       256
    20.6600       264
    20.6800       234
    20.7000       274
    20.7200       270
    20.7400       244
    20.7600       296
    20.7800       292
    20.8000       268
    20.8200       340
    20.8400       358
    20.8600       386
    20.8800       366
    20.9000       468
    20.9200       482
    20.9400       470
    20.9600       602
    20.9800       656
    21.0000       660
    21.0200       844
    21.0400       924
    21.0600      1060
    21.0800      1156
    21.1000      1374
    21.1200      1568
    21.1400      1858
    21.1600      2126
    21.1800      2284
    21.2000      2402
    21.2200      2518
    21.2400      2468
    21.2600      2254
    21.2800      2162
    21.3000      1744
    21.3200      1404
    21.3400      1140
    21.3600       970
    21.3800       742
    21.4000       616
    21.4200       584
    21.4400       512
    21.4600       376
    21.4800       404
    21.5000       312
    21.5200       304
    21.5400       316
    21.5600       270
    21.5800       282
    21.6000       288
    21.6200       244
    21.6400       258
    21.6600       236
    21.6800       240
    21.7000       208
    21.7200       226
    21.7400       224
    21.7600       232
    21.7800       238
    21.8000       222
    21.8200       216
    21.8400       232
    21.8600       226
    21.8800       196
    21.9000       234
    21.9200       216
    21.9400       246
    21.9600       230
    21.9800       210
    22.0000       202
    22.0200       210
    22.0400       218
    22.0600       188
    22.0800       196
    22.1000       222
    22.1200       196
    22.1400       196
    22.1600       226
    22.1800       178
    22.2000       242
    22.2200       226
    22.2400       220
    22.2600       220
    22.2800       242
    22.3000       210
    22.3200       238
    22.3400       236
    22.3600       232
    22.3800       264
    22.4000       314
    22.4200       286
    22.4400       314
    22.4600       294
    22.4800       344
    22.5000       390
    22.5200       402
    22.5400       434
    22.5600       472
    22.5800       554
    22.6000       594
    22.6200       706
    22.6400       804
    22.6600       866
    22.6800      1010
    22.7000      1082
    22.7200      1310
    22.7400      1474
    22.7600      1856
    22.7800      2150
    22.8000      2548
    22.8200      2976
    22.8400      3210
    22.8600      3454
    22.8800      3584
    22.9000      3242
    22.9200      2988
    22.9400      2526
    22.9600      2068
    22.9800      1634
    23.0000      1252
    23.0200       938
    23.0400       798
    23.0600       672
    23.0800       594
    23.1000       512
    23.1200       494
    23.1400       434
    23.1600       400
    23.1800       410
    23.2000       364
    23.2200       348
    23.2400       336
    23.2600       324
    23.2800       306
    23.3000       302
    23.3200       280
    23.3400       284
    23.3600       256
    23.3800       270
    23.4000       242
    23.4200       260
    23.4400       248
    23.4600       242
    23.4800       246
    23.5000       232
    23.5200       218
    23.5400       254
    23.5600       242
    23.5800       240
    23.6000       220
    23.6200       232
    23.6400       228
    23.6600       218
    23.6800       224
    23.7000       218
    23.7200       226
    23.7400       230
    23.7600       236
    23.7800       200
    23.8000       212
    23.8200       232
    23.8400       218
    23.8600       242
    23.8800       236
    23.9000       206
    23.9200       236
    23.9400       212
    23.9600       260
    23.9800       252
    24.0000       234
    24.0200       258
    24.0400       210
    24.0600       218
    24.0800       244
    24.1000       264
    24.1200       248
    24.1400       266
    24.1600       270
    24.1800       318
    24.2000       300
    24.2200       308
    24.2400       314
    24.2600       352
    24.2800       390
    24.3000       432
    24.3200       430
    24.3400       570
    24.3600       542
    24.3800       666
    24.4000       756
    24.4200       830
    24.4400       934
    24.4600      1092
    24.4800      1196
    24.5000      1262
    24.5200      1396
    24.5400      1548
    24.5600      1546
    24.5800      1508
    24.6000      1426
    24.6200      1374
    24.6400      1206
    24.6600      1086
    24.6800      1000
    24.7000       874
    24.7200       816
    24.7400       736
    24.7600       712
    24.7800       706
    24.8000       650
    24.8200       604
    24.8400       602
    24.8600       518
    24.8800       512
    24.9000       492
    24.9200       416
    24.9400       436
    24.9600       458
    24.9800       484
    25.0000       474
    25.0200       466
    25.0400       468
    25.0600       506
    25.0800       476
    25.1000       506
    25.1200       578
    25.1400       526
    25.1600       594
    25.1800       624
    25.2000       720
    25.2200       732
    25.2400       834
    25.2600       866
    25.2800       996
    25.3000      1084
    25.3200      1154
    25.3400      1114
    25.3600      1134
    25.3800      1126
    25.4000      1040
    25.4200       908
    25.4400       888
    25.4600       856
    25.4800       844
    25.5000       830
    25.5200       964
    25.5400       992
    25.5600      1074
    25.5800      1114
    25.6000      1220
    25.6200      1112
    25.6400      1066
    25.6600       896
    25.6800       864
    25.7000       750
    25.7200       620
    25.7400       546
    25.7600       490
    25.7800       420
    25.8000       458
    25.8200       326
    25.8400       378
    25.8600       340
    25.8800       328
    25.9000       314
    25.9200       292
    25.9400       312
    25.9600       306
    25.9800       294
    26.0000       300
    26.0200       264
    26.0400       248
    26.0600       256
    26.0800       268
    26.1000       268
    26.1200       234
    26.1400       244
    26.1600       222
    26.1800       246
    26.2000       254
    26.2200       258
    26.2400       248
    26.2600       220
    26.2800       250
    26.3000       258
    26.3200       276
    26.3400       258
    26.3600       252
    26.3800       238
    26.4000       254
    26.4200       258
    26.4400       274
    26.4600       242
    26.4800       248
    26.5000       260
    26.5200       240
    26.5400       276
    26.5600       254
    26.5800       248
    26.6000       250
    26.6200       284
    26.6400       260
    26.6600       244
    26.6800       252
    26.7000       244
    26.7200       268
    26.7400       294
    26.7600       252
    26.7800       246
    26.8000       238
    26.8200       256
    26.8400       248
    26.8600       254
    26.8800       250
    26.9000       230
    26.9200       236
    26.9400       226
    26.9600       256
    26.9800       254
    27.0000       244
    27.0200       272
    27.0400       268
    27.0600       274
    27.0800       272
    27.1000       278
    27.1200       330
    27.1400       334
    27.1600       316
    27.1800       374
    27.2000       394
    27.2200       434
    27.2400       450
    27.2600       512
    27.2800       574
    27.3000       614
    27.3200       696
    27.3400       716
    27.3600       906
    27.3800      1026
    27.4000      1098
    27.4200      1210
    27.4400      1390
    27.4600      1512
    27.4800      1440
    27.5000      1526
    27.5200      1468
    27.5400      1446
    27.5600      1348
    27.5800      1212
    27.6000      1090
    27.6200      1014
    27.6400       810
    27.6600       790
    27.6800       700
    27.7000       576
    27.7200       514
    27.7400       494
    27.7600       424
    27.7800       418
    27.8000       392
    27.8200       346
    27.8400       356
    27.8600       316
    27.8800       318
    27.9000       314
    27.9200       298
    27.9400       240
    27.9600       302
    27.9800       304
    28.0000       276
    28.0200       276
    28.0400       262
    28.0600       296
    28.0800       272
    28.1000       262
    28.1200       238
    28.1400       264
    28.1600       228
    28.1800       278
    28.2000       262
    28.2200       264
    28.2400       246
    28.2600       274
    28.2800       278
    28.3000       302
    28.3200       290
    28.3400       268
    28.3600       282
    28.3800       276
    28.4000       292
    28.4200       288
    28.4400       286
    28.4600       306
    28.4800       248
    28.5000       282
    28.5200       266
    28.5400       276
    28.5600       286
    28.5800       268
    28.6000       278
    28.6200       306
    28.6400       326
    28.6600       342
    28.6800       340
    28.7000       386
    28.7200       442
    28.7400       402
    28.7600       382
    28.7800       354
    28.8000       362
    28.8200       360
    28.8400       342
    28.8600       336
    28.8800       312
    28.9000       286
    28.9200       300
    28.9400       292
    28.9600       308
    28.9800       298
    29.0000       260
    29.0200       290
    29.0400       282
    29.0600       258
    29.0800       278
    29.1000       266
    29.1200       280
    29.1400       278
    29.1600       282
    29.1800       268
    29.2000       316
    29.2200       332
    29.2400       282
    29.2600       296
    29.2800       366
    29.3000       336
    29.3200       382
    29.3400       348
    29.3600       416
    29.3800       400
    29.4000       456
    29.4200       520
    29.4400       506
    29.4600       504
    29.4800       552
    29.5000       656
    29.5200       604
    29.5400       664
    29.5600       720
    29.5800       802
    29.6000       874
    29.6200       926
    29.6400      1014
    29.6600      1086
    29.6800      1184
    29.7000      1070
    29.7200      1040
    29.7400       990
    29.7600       898
    29.7800       774
    29.8000       772
    29.8200       690
    29.8400       644
    29.8600       614
    29.8800       626
    29.9000       596
    29.9200       686
    29.9400       652
    29.9600       694
    29.9800       792
    30.0000       882
    30.0200      1024
    30.0400      1216
    30.0600      1384
    30.0800      1528
    30.1000      1670
    30.1200      1956
    30.1400      2140
    30.1600      2432
    30.1800      2568
    30.2000      2596
    30.2200      2618
    30.2400      2472
    30.2600      2402
    30.2800      2336
    30.3000      2088
    30.3200      1956
    30.3400      1838
    30.3600      1788
    30.3800      1686
    30.4000      1664
    30.4200      1684
    30.4400      1764
    30.4600      1932
    30.4800      2020
    30.5000      2196
    30.5200      2416
    30.5400      2640
    30.5600      3140
    30.5800      3318
    30.6000      3824
    30.6200      4362
    30.6400      4874
    30.6600      5188
    30.6800      5836
    30.7000      5860
    30.7200      6002
    30.7400      5388
    30.7600      5002
    30.7800      4340
    30.8000      3598
    30.8200      3056
    30.8400      2460
    30.8600      1964
    30.8800      1594
    30.9000      1350
    30.9200      1196
    30.9400      1076
    30.9600       992
    30.9800       896
    31.0000       848
    31.0200       840
    31.0400       750
    31.0600       698
    31.0800       618
    31.1000       604
    31.1200       524
    31.1400       502
    31.1600       512
    31.1800       460
    31.2000       422
    31.2200       366
    31.2400       370
    31.2600       376
    31.2800       364
    31.3000       346
    31.3200       348
    31.3400       330
    31.3600       336
    31.3800       324
    31.4000       346
    31.4200       312
    31.4400       314
    31.4600       324
    31.4800       344
    31.5000       354
    31.5200       314
    31.5400       330
    31.5600       364
    31.5800       360
    31.6000       398
    31.6200       370
    31.6400       378
    31.6600       392
    31.6800       416
    31.7000       420
    31.7200       458
    31.7400       486
    31.7600       542
    31.7800       574
    31.8000       570
    31.8200       684
    31.8400       832
    31.8600       850
    31.8800       942
    31.9000      1106
    31.9200      1288
    31.9400      1374
    31.9600      1522
    31.9800      1770
    32.0000      1848
    32.0200      1892
    32.0400      1754
    32.0600      1694
    32.0800      1602
    32.1000      1412
    32.1200      1300
    32.1400      1178
    32.1600      1078
    32.1800       982
    32.2000       968
    32.2200       954
    32.2400      1014
    32.2600      1056
    32.2800      1126
    32.3000      1140
    32.3200      1282
    32.3400      1404
    32.3600      1682
    32.3800      2004
    32.4000      2226
    32.4200      2544
    32.4400      3096
    32.4600      3486
    32.4800      4006
    32.5000      4714
    32.5200      5394
    32.5400      5914
    32.5600      6038
    32.5800      6054
    32.6000      6006
    32.6200      5612
    32.6400      5264
    32.6600      4760
    32.6800      3988
    32.7000      3424
    32.7200      2928
    32.7400      2486
    32.7600      2120
    32.7800      1786
    32.8000      1562
    32.8200      1296
    32.8400      1294
    32.8600      1102
    32.8800      1074
    32.9000       966
    32.9200       986
    32.9400       932
    32.9600       914
    32.9800       982
    33.0000      1024
    33.0200      1064
    33.0400      1122
    33.0600      1196
    33.0800      1220
    33.1000      1374
    33.1200      1250
    33.1400      1226
    33.1600      1140
    33.1800       982
    33.2000       914
    33.2200       816
    33.2400       738
    33.2600       610
    33.2800       550
    33.3000       480
    33.3200       458
    33.3400       434
    33.3600       394
    33.3800       402
    33.4000       310
    33.4200       302
    33.4400       316
    33.4600       298
    33.4800       290
    33.5000       292
    33.5200       278
    33.5400       286
    33.5600       286
    33.5800       290
    33.6000       250
    33.6200       282
    33.6400       246
    33.6600       254
    33.6800       232
    33.7000       258
    33.7200       238
    33.7400       242
    33.7600       256
    33.7800       238
    33.8000       214
    33.8200       224
    33.8400       244
    33.8600       240
    33.8800       242
    33.9000       188
    33.9200       284
    33.9400       234
    33.9600       250
    33.9800       244
    34.0000       256
    34.0200       216
    34.0400       242
    34.0600       246
    34.0800       264
    34.1000       244
    34.1200       232
    34.1400       250
    34.1600       266
    34.1800       250
    34.2000       248
    34.2200       276
    34.2400       266
    34.2600       268
    34.2800       270
    34.3000       284
    34.3200       312
    34.3400       326
    34.3600       360
    34.3800       406
    34.4000       400
    34.4200       466
    34.4400       512
    34.4600       570
    34.4800       562
    34.5000       638
    34.5200       638
    34.5400       588
    34.5600       586
    34.5800       514
    34.6000       512
    34.6200       494
    34.6400       438
    34.6600       452
    34.6800       400
    34.7000       362
    34.7200       396
    34.7400       354
    34.7600       348
    34.7800       306
    34.8000       342
    34.8200       358
    34.8400       350
    34.8600       366
    34.8800       372
    34.9000       386
    34.9200       382
    34.9400       372
    34.9600       402
    34.9800       440
    35.0000       484
    35.0200       464
    35.0400       496
    35.0600       578
    35.0800       572
    35.1000       630
    35.1200       606
    35.1400       644
    35.1600       630
    35.1800       580
    35.2000       550
    35.2200       510
    35.2400       422
    35.2600       426
    35.2800       380
    35.3000       360
    35.3200       304
    35.3400       298
    35.3600       302
    35.3800       292
    35.4000       268
    35.4200       270
    35.4400       288
    35.4600       288
    35.4800       296
    35.5000       272
    35.5200       278
    35.5400       250
    35.5600       272
    35.5800       274
    35.6000       280
    35.6200       284
    35.6400       304
    35.6600       296
    35.6800       324
    35.7000       322
    35.7200       306
    35.7400       320
    35.7600       326
    35.7800       340
    35.8000       346
    35.8200       338
    35.8400       372
    35.8600       376
    35.8800       372
    35.9000       424
    35.9200       420
    35.9400       478
    35.9600       512
    35.9800       486
    36.0000       568
    36.0200       568
    36.0400       688
    36.0600       668
    36.0800       792
    36.1000       870
    36.1200       928
    36.1400       936
    36.1600       918
    36.1800       894
    36.2000       874
    36.2200       836
    36.2400       774
    36.2600       656
    36.2800       636
    36.3000       562
    36.3200       528
    36.3400       448
    36.3600       450
    36.3800       424
    36.4000       390
    36.4200       390
    36.4400       382
    36.4600       398
    36.4800       354
    36.5000       378
    36.5200       372
    36.5400       392
    36.5600       398
    36.5800       422
    36.6000       468
    36.6200       492
    36.6400       446
    36.6600       492
    36.6800       524
    36.7000       596
    36.7200       640
    36.7400       778
    36.7600       786
    36.7800       900
    36.8000      1062
    36.8200      1112
    36.8400      1286
    36.8600      1476
    36.8800      1574
    36.9000      1730
    36.9200      1690
    36.9400      1640
    36.9600      1482
    36.9800      1454
    37.0000      1418
    37.0200      1324
    37.0400      1214
    37.0600      1194
    37.0800      1076
    37.1000      1086
    37.1200      1018
    37.1400      1016
    37.1600      1012
    37.1800       982
    37.2000       964
    37.2200       930
    37.2400       932
    37.2600       884
    37.2800       930
    37.3000       844
    37.3200       712
    37.3400       786
    37.3600       706
    37.3800       710
    37.4000       626
    37.4200       576
    37.4400       596
    37.4600       528
    37.4800       540
    37.5000       548
    37.5200       562
    37.5400       570
    37.5600       606
    37.5800       610
    37.6000       584
    37.6200       654
    37.6400       678
    37.6600       690
    37.6800       714
    37.7000       762
    37.7200       706
    37.7400       824
    37.7600       838
    37.7800       800
    37.8000       868
    37.8200       916
    37.8400       836
    37.8600       938
    37.8800      1004
    37.9000      1052
    37.9200      1114
    37.9400      1184
    37.9600      1378
    37.9800      1526
    38.0000      1624
    38.0200      1694
    38.0400      1782
    38.0600      1706
    38.0800      1634
    38.1000      1572
    38.1200      1556
    38.1400      1448
    38.1600      1372
    38.1800      1284
    38.2000      1262
    38.2200      1234
    38.2400      1284
    38.2600      1258
    38.2800      1340
    38.3000      1430
    38.3200      1542
    38.3400      1770
    38.3600      1862
    38.3800      2070
    38.4000      2332
    38.4200      2608
    38.4400      3004
    38.4600      3318
    38.4800      3614
    38.5000      3932
    38.5200      4082
    38.5400      4158
    38.5600      4478
    38.5800      4572
    38.6000      4768
    38.6200      4898
    38.6400      4990
    38.6600      5054
    38.6800      5000
    38.7000      5076
    38.7200      4914
    38.7400      4818
    38.7600      4424
    38.7800      4014
    38.8000      3774
    38.8200      3462
    38.8400      2982
    38.8600      2544
    38.8800      2334
    38.9000      2082
    38.9200      1852
    38.9400      1578
    38.9600      1444
    38.9800      1282
    39.0000      1294
    39.0200      1208
    39.0400      1134
    39.0600      1120
    39.0800      1114
    39.1000      1130
    39.1200      1094
    39.1400      1086
    39.1600      1092
    39.1800      1202
    39.2000      1222
    39.2200      1178
    39.2400      1160
    39.2600      1192
    39.2800      1114
    39.3000      1172
    39.3200      1202
    39.3400      1218
    39.3600      1222
    39.3800      1292
    39.4000      1298
    39.4200      1220
    39.4400      1198
    39.4600      1182
    39.4800      1194
    39.5000      1216
    39.5200      1130
    39.5400      1136
    39.5600      1204
    39.5800      1226
    39.6000      1382
    39.6200      1490
    39.6400      1570
    39.6600      1714
    39.6800      1902
    39.7000      2018
    39.7200      1976
    39.7400      1906
    39.7600      1820
    39.7800      1624
    39.8000      1560
    39.8200      1370
    39.8400      1236
    39.8600      1114
    39.8800       978
    39.9000       916
    39.9200       834
    39.9400       700
    39.9600       748
    39.9800       652
    40.0000       630
    40.0200       692
    40.0400       664
    40.0600       662
    40.0800       680
    40.1000       682
    40.1200       646
    40.1400       714
    40.1600       716
    40.1800       772
    40.2000       788
    40.2200       824
    40.2400       848
    40.2600       802
    40.2800       838
    40.3000       800
    40.3200       754
    40.3400       828
    40.3600       880
    40.3800       882
    40.4000       894
    40.4200       918
    40.4400       988
    40.4600      1078
    40.4800      1144
    40.5000      1172
    40.5200      1280
    40.5400      1494
    40.5600      1508
    40.5800      1560
    40.6000      1594
    40.6200      1542
    40.6400      1550
    40.6600      1514
    40.6800      1398
    40.7000      1282
    40.7200      1244
    40.7400      1150
    40.7600      1008
    40.7800       908
    40.8000       820
    40.8200       726
    40.8400       764
    40.8600       656
    40.8800       666
    40.9000       644
    40.9200       600
    40.9400       606
    40.9600       660
    40.9800       652
    41.0000       670
    41.0200       714
    41.0400       708
    41.0600       826
    41.0800       794
    41.1000       900
    41.1200       966
    41.1400      1064
    41.1600      1264
    41.1800      1386
    41.2000      1420
    41.2200      1592
    41.2400      1696
    41.2600      1910
    41.2800      1906
    41.3000      2008
    41.3200      1984
    41.3400      1986
    41.3600      1976
    41.3800      1942
    41.4000      1976
    41.4200      1816
    41.4400      1900
    41.4600      1822
    41.4800      1794
    41.5000      1756
    41.5200      1700
    41.5400      1726
    41.5600      1632
    41.5800      1622
    41.6000      1500
    41.6200      1356
    41.6400      1328
    41.6600      1242
    41.6800      1162
    41.7000      1048
    41.7200      1058
    41.7400      1034
    41.7600      1078
    41.7800      1144
    41.8000      1156
    41.8200      1144
    41.8400      1306
    41.8600      1338
    41.8800      1458
    41.9000      1430
    41.9200      1446
    41.9400      1530
    41.9600      1442
    41.9800      1350
    42.0000      1250
    42.0200      1234
    42.0400      1014
    42.0600      1070
    42.0800       950
    42.1000       800
    42.1200       692
    42.1400       662
    42.1600       594
    42.1800       582
    42.2000       504
    42.2200       518
    42.2400       464
    42.2600       480
    42.2800       430
    42.3000       406
    42.3200       396
    42.3400       380
    42.3600       348
    42.3800       396
    42.4000       360
    42.4200       366
    42.4400       354
    42.4600       390
    42.4800       370
    42.5000       380
    42.5200       340
    42.5400       384
    42.5600       342
    42.5800       340
    42.6000       358
    42.6200       350
    42.6400       326
    42.6600       334
    42.6800       386
    42.7000       344
    42.7200       372
    42.7400       336
    42.7600       386
    42.7800       356
    42.8000       418
    42.8200       384
    42.8400       392
    42.8600       388
    42.8800       430
    42.9000       476
    42.9200       458
    42.9400       488
    42.9600       498
    42.9800       566
    43.0000       596
    43.0200       624
    43.0400       672
    43.0600       832
    43.0800       860
    43.1000      1032
    43.1200      1112
    43.1400      1210
    43.1600      1412
    43.1800      1500
    43.2000      1604
    43.2200      1594
    43.2400      1696
    43.2600      1674
    43.2800      1686
    43.3000      1598
    43.3200      1614
    43.3400      1482
    43.3600      1396
    43.3800      1344
    43.4000      1206
    43.4200       982
    43.4400       950
    43.4600       800
    43.4800       822
    43.5000       708
    43.5200       630
    43.5400       602
    43.5600       534
    43.5800       518
    43.6000       490
    43.6200       486
    43.6400       446
    43.6600       442
    43.6800       488
    43.7000       478
    43.7200       508
    43.7400       516
    43.7600       590
    43.7800       572
    43.8000       504
    43.8200       570
    43.8400       602
    43.8600       594
    43.8800       598
    43.9000       514
    43.9200       568
    43.9400       572
    43.9600       558
    43.9800       498
    44.0000       500
    44.0200       446
    44.0400       472
    44.0600       446
    44.0800       400
    44.1000       380
    44.1200       362
    44.1400       394
    44.1600       382
    44.1800       394
    44.2000       372
    44.2200       422
    44.2400       430
    44.2600       394
    44.2800       476
    44.3000       448
    44.3200       428
    44.3400       414
    44.3600       474
    44.3800       464
    44.4000       422
    44.4200       394
    44.4400       424
    44.4600       428
    44.4800       432
    44.5000       418
    44.5200       424
    44.5400       410
    44.5600       394
    44.5800       402
    44.6000       446
    44.6200       476
    44.6400       428
    44.6600       480
    44.6800       480
    44.7000       484
    44.7200       520
    44.7400       534
    44.7600       568
    44.7800       648
    44.8000       724
    44.8200       694
    44.8400       786
    44.8600       848
    44.8800       952
    44.9000      1062
    44.9200      1216
    44.9400      1376
    44.9600      1468
    44.9800      1650
    45.0000      1720
    45.0200      1908
    45.0400      1944
    45.0600      2092
    45.0800      2188
    45.1000      2236
    45.1200      2314
    45.1400      2328
    45.1600      2398
    45.1800      2364
    45.2000      2324
    45.2200      2250
    45.2400      2258
    45.2600      2270
    45.2800      2220
    45.3000      2148
    45.3200      1944
    45.3400      1886
    45.3600      1872
    45.3800      1710
    45.4000      1630
    45.4200      1616
    45.4400      1592
    45.4600      1506
    45.4800      1492
    45.5000      1380
    45.5200      1262
    45.5400      1204
    45.5600      1132
    45.5800      1068
    45.6000      1036
    45.6200       952
    45.6400      1004
    45.6600       942
    45.6800       802
    45.7000       822
    45.7200       832
    45.7400       806
    45.7600       794
    45.7800       802
    45.8000       828
    45.8200       842
    45.8400       822
    45.8600       864
    45.8800       820
    45.9000       770
    45.9200       838
    45.9400       796
    45.9600       738
    45.9800       736
    46.0000       746
    46.0200       710
    46.0400       716
    46.0600       648
    46.0800       690
    46.1000       668
    46.1200       696
    46.1400       694
    46.1600       764
    46.1800       720
    46.2000       708
    46.2200       742
    46.2400       772
    46.2600       792
    46.2800       776
    46.3000       840
    46.3200       926
    46.3400       918
    46.3600      1008
    46.3800      1028
    46.4000      1188
    46.4200      1286
    46.4400      1434
    46.4600      1542
    46.4800      1702
    46.5000      1888
    46.5200      2158
    46.5400      2356
    46.5600      2696
    46.5800      3118
    46.6000      3448
    46.6200      4006
    46.6400      4604
    46.6600      4926
    46.6800      5492
    46.7000      5874
    46.7200      6202
    46.7400      6264
    46.7600      5998
    46.7800      5814
    46.8000      5390
    46.8200      4974
    46.8400      4562
    46.8600      4196
    46.8800      3708
    46.9000      3396
    46.9200      2768
    46.9400      2484
    46.9600      2032
    46.9800      1806
    47.0000      1554
    47.0200      1402
    47.0400      1206
    47.0600      1094
    47.0800       990
    47.1000       930
    47.1200       860
    47.1400       786
    47.1600       728
    47.1800       674
    47.2000       678
    47.2200       660
    47.2400       580
    47.2600       582
    47.2800       564
    47.3000       542
    47.3200       522
    47.3400       464
    47.3600       508
    47.3800       428
    47.4000       452
    47.4200       468
    47.4400       458
    47.4600       398
    47.4800       428
    47.5000       406
    47.5200       418
    47.5400       404
    47.5600       394
    47.5800       428
    47.6000       418
    47.6200       412
    47.6400       418
    47.6600       452
    47.6800       442
    47.7000       444
    47.7200       518
    47.7400       514
    47.7600       512
    47.7800       532
    47.8000       564
    47.8200       612
    47.8400       652
    47.8600       652
    47.8800       624
    47.9000       640
    47.9200       634
    47.9400       648
    47.9600       580
    47.9800       576
    48.0000       586
    48.0200       584
    48.0400       634
    48.0600       616
    48.0800       614
    48.1000       596
    48.1200       622
    48.1400       648
    48.1600       698
    48.1800       738
    48.2000       750
    48.2200       780
    48.2400       824
    48.2600       828
    48.2800       794
    48.3000       802
    48.3200       846
    48.3400       788
    48.3600       844
    48.3800       804
    48.4000       908
    48.4200       922
    48.4400       888
    48.4600       982
    48.4800      1030
    48.5000      1162
    48.5200      1128
    48.5400      1246
    48.5600      1248
    48.5800      1280
    48.6000      1356
    48.6200      1308
    48.6400      1326
    48.6600      1294
    48.6800      1202
    48.7000      1202
    48.7200      1214
    48.7400      1148
    48.7600      1082
    48.7800      1036
    48.8000       980
    48.8200       884
    48.8400       830
    48.8600       762
    48.8800       758
    48.9000       734
    48.9200       624
    48.9400       648
    48.9600       538
    48.9800       508
    49.0000       524
    49.0200       510
    49.0400       468
    49.0600       434
    49.0800       410
    49.1000       398
    49.1200       394
    49.1400       354
    49.1600       364
    49.1800       342
    49.2000       316
    49.2200       350
    49.2400       328
    49.2600       288
    49.2800       328
    49.3000       302
    49.3200       306
    49.3400       298
    49.3600       312
    49.3800       310
    49.4000       332
    49.4200       304
    49.4400       306
    49.4600       304
    49.4800       324
    49.5000       284
    49.5200       304
    49.5400       324
    49.5600       326
    49.5800       316
    49.6000       300
    49.6200       300
    49.6400       348
    49.6600       312
    49.6800       338
    49.7000       328
    49.7200       346
    49.7400       318
    49.7600       338
    49.7800       330
    49.8000       338
    49.8200       348
    49.8400       352
    49.8600       364
    49.8800       404
    49.9000       440
    49.9200       414
    49.9400       438
    49.9600       468
    49.9800       458
    50.0000       476
    50.0200       544
    50.0400       570
    50.0600       560
    50.0800       642
    50.1000       680
    50.1200       772
    50.1400       830
    50.1600       868
    50.1800      1016
    50.2000      1020
    50.2200      1106
    50.2400      1206
    50.2600      1264
    50.2800      1418
    50.3000      1398
    50.3200      1484
    50.3400      1496
    50.3600      1634
    50.3800      1514
    50.4000      1498
    50.4200      1474
    50.4400      1382
    50.4600      1348
    50.4800      1332
    50.5000      1380
    50.5200      1312
    50.5400      1280
    50.5600      1242
    50.5800      1224
    50.6000      1176
    50.6200      1220
    50.6400      1242
    50.6600      1254
    50.6800      1246
    50.7000      1346
    50.7200      1458
    50.7400      1514
    50.7600      1644
    50.7800      1792
    50.8000      1776
    50.8200      1924
    50.8400      1894
    50.8600      1916
    50.8800      1898
    50.9000      1754
    50.9200      1700
    50.9400      1684
    50.9600      1668
    50.9800      1572
    51.0000      1418
    51.0200      1312
    51.0400      1174
    51.0600      1182
    51.0800      1082
    51.1000       966
    51.1200       912
    51.1400       870
    51.1600       820
    51.1800       800
    51.2000       744
    51.2200       740
    51.2400       758
    51.2600       798
    51.2800       806
    51.3000       788
    51.3200       754
    51.3400       770
    51.3600       830
    51.3800       728
    51.4000       766
    51.4200       796
    51.4400       822
    51.4600       826
    51.4800       824
    51.5000       778
    51.5200       782
    51.5400       786
    51.5600       850
    51.5800       780
    51.6000       760
    51.6200       772
    51.6400       772
    51.6600       794
    51.6800       792
    51.7000       850
    51.7200       864
    51.7400       900
    51.7600       928
    51.7800      1084
    51.8000      1094
    51.8200      1174
    51.8400      1204
    51.8600      1238
    51.8800      1466
    51.9000      1468
    51.9200      1514
    51.9400      1654
    51.9600      1676
    51.9800      1760
    52.0000      1812
    52.0200      1906
    52.0400      1868
    52.0600      1722
    52.0800      1694
    52.1000      1602
    52.1200      1502
    52.1400      1384
    52.1600      1390
    52.1800      1190
    52.2000      1132
    52.2200      1084
    52.2400      1038
    52.2600      1002
    52.2800       870
    52.3000       826
    52.3200       786
    52.3400       736
    52.3600       752
    52.3800       780
    52.4000       776
    52.4200       846
    52.4400       828
    52.4600       932
    52.4800       990
    52.5000      1072
    52.5200      1078
    52.5400      1152
    52.5600      1224
    52.5800      1250
    52.6000      1262
    52.6200      1330
    52.6400      1290
    52.6600      1280
    52.6800      1228
    52.7000      1230
    52.7200      1334
    52.7400      1270
    52.7600      1106
    52.7800      1144
    52.8000      1166
    52.8200      1030
    52.8400      1018
    52.8600       932
    52.8800       894
    52.9000       812
    52.9200       758
    52.9400       814
    52.9600       730
    52.9800       742
    53.0000       702
    53.0200       756
    53.0400       732
    53.0600       710
    53.0800       750
    53.1000       728
    53.1200       854
    53.1400       844
    53.1600       900
    53.1800      1022
    53.2000      1084
    53.2200      1162
    53.2400      1278
    53.2600      1356
    53.2800      1342
    53.3000      1344
    53.3200      1320
    53.3400      1264
    53.3600      1234
    53.3800      1194
    53.4000      1176
    53.4200      1082
    53.4400      1014
    53.4600       996
    53.4800       910
    53.5000       812
    53.5200       740
    53.5400       762
    53.5600       664
    53.5800       670
    53.6000       648
    53.6200       648
    53.6400       592
    53.6600       590
    53.6800       582
    53.7000       586
    53.7200       560
    53.7400       606
    53.7600       504
    53.7800       544
    53.8000       528
    53.8200       498
    53.8400       540
    53.8600       484
    53.8800       472
    53.9000       470
    53.9200       472
    53.9400       460
    53.9600       462
    53.9800       428
    54.0000       482
    54.0200       422
    54.0400       478
    54.0600       436
    54.0800       462
    54.1000       456
    54.1200       500
    54.1400       492
    54.1600       460
    54.1800       482
    54.2000       510
    54.2200       518
    54.2400       516
    54.2600       590
    54.2800       548
    54.3000       602
    54.3200       602
    54.3400       624
    54.3600       580
    54.3800       644
    54.4000       612
    54.4200       618
    54.4400       702
    54.4600       670
    54.4800       724
    54.5000       732
    54.5200       752
    54.5400       780
    54.5600       810
    54.5800       752
    54.6000       824
    54.6200       804
    54.6400       804
    54.6600       778
    54.6800       788
    54.7000       808
    54.7200       808
    54.7400       864
    54.7600       898
    54.7800       878
    54.8000       778
    54.8200       802
    54.8400       808
    54.8600       862
    54.8800       796
    54.9000       808
    54.9200       798
    54.9400       778
    54.9600       786
    54.9800       788
    55.0000       856
    55.0200       810
    55.0400       848
    55.0600       876
    55.0800      1020
    55.1000      1010
    55.1200       980
    55.1400       954
    55.1600      1074
    55.1800      1082
    55.2000      1174
    55.2200      1114
    55.2400      1086
    55.2600      1084
    55.2800      1066
    55.3000      1052
    55.3200       960
    55.3400       946
    55.3600       930
    55.3800       940
    55.4000       874
    55.4200       818
    55.4400       798
    55.4600       740
    55.4800       676
    55.5000       634
    55.5200       606
    55.5400       588
    55.5600       564
    55.5800       560
    55.6000       494
    55.6200       464
    55.6400       456
    55.6600       428
    55.6800       396
    55.7000       390
    55.7200       372
    55.7400       346
    55.7600       358
    55.7800       338
    55.8000       352
    55.8200       336
    55.8400       358
    55.8600       342
    55.8800       332
    55.9000       324
    55.9200       306
    55.9400       292
    55.9600       334
    55.9800       276
    56.0000       288
    56.0200       308
    56.0400       262
    56.0600       296
    56.0800       298
    56.1000       306
    56.1200       298
    56.1400       312
    56.1600       302
    56.1800       298
    56.2000       286
    56.2200       302
    56.2400       282
    56.2600       328
    56.2800       308
    56.3000       306
    56.3200       308
    56.3400       322
    56.3600       304
    56.3800       284
    56.4000       350
    56.4200       344
    56.4400       316
    56.4600       316
    56.4800       370
    56.5000       398
    56.5200       394
    56.5400       388
    56.5600       354
    56.5800       402
    56.6000       426
    56.6200       410
    56.6400       446
    56.6600       444
    56.6800       486
    56.7000       496
    56.7200       508
    56.7400       556
    56.7600       602
    56.7800       572
    56.8000       602
    56.8200       614
    56.8400       598
    56.8600       568
    56.8800       606
    56.9000       640
    56.9200       570
    56.9400       638
    56.9600       586
    56.9800       554
    57.0000       550
    57.0200       588
    57.0400       548
    57.0600       556
    57.0800       550
    57.1000       590
    57.1200       592
    57.1400       616
    57.1600       618
    57.1800       658
    57.2000       718
    57.2200       778
    57.2400       784
    57.2600       918
    57.2800       980
    57.3000      1058
    57.3200      1162
    57.3400      1264
    57.3600      1414
    57.3800      1452
    57.4000      1462
    57.4200      1514
    57.4400      1498
    57.4600      1578
    57.4800      1556
    57.5000      1440
    57.5200      1466
    57.5400      1308
    57.5600      1306
    57.5800      1348
    57.6000      1284
    57.6200      1268
    57.6400      1212
    57.6600      1182
    57.6800      1284
    57.7000      1230
    57.7200      1286
    57.7400      1230
    57.7600      1330
    57.7800      1334
    57.8000      1212
    57.8200      1274
    57.8400      1152
    57.8600      1090
    57.8800      1070
    57.9000      1052
    57.9200      1026
    57.9400       952
    57.9600       964
    57.9800       866
    58.0000       776
    58.0200       794
    58.0400       768
    58.0600       652
    58.0800       652
    58.1000       680
    58.1200       648
    58.1400       670
    58.1600       690
    58.1800       744
    58.2000       734
    58.2200       718
    58.2400       780
    58.2600       806
    58.2800       830
    58.3000       888
    58.3200       902
    58.3400       976
    58.3600      1028
    58.3800      1084
    58.4000      1066
    58.4200      1216
    58.4400      1276
    58.4600      1290
    58.4800      1382
    58.5000      1456
    58.5200      1448
    58.5400      1692
    58.5600      1702
    58.5800      1800
    58.6000      1852
    58.6200      1960
    58.6400      1998
    58.6600      2062
    58.6800      2234
    58.7000      2286
    58.7200      2432
    58.7400      2426
    58.7600      2410
    58.7800      2410
    58.8000      2312
    58.8200      2232
    58.8400      2248
    58.8600      2086
    58.8800      2012
    58.9000      1968
    58.9200      1814
    58.9400      1692
    58.9600      1610
    58.9800      1552
    59.0000      1420
    59.0200      1280
    59.0400      1226
    59.0600      1098
    59.0800      1076
    59.1000       998
    59.1200       956
    59.1400       904
    59.1600       920
    59.1800       870
    59.2000       840
    59.2200       886
    59.2400       830
    59.2600       924
    59.2800       906
    59.3000       988
    59.3200      1044
    59.3400      1114
    59.3600      1162
    59.3800      1216
    59.4000      1304
    59.4200      1350
    59.4400      1492
    59.4600      1442
    59.4800      1568
    59.5000      1542
    59.5200      1482
    59.5400      1396
    59.5600      1424
    59.5800      1398
    59.6000      1384
    59.6200      1388
    59.6400      1294
    59.6600      1280
    59.6800      1284
    59.7000      1264
    59.7200      1170
    59.7400      1118
    59.7600      1056
    59.7800      1058
    59.8000      1022
    59.8200      1042
    59.8400       974
    59.8600       978
    59.8800       954
    59.9000       896
    59.9200       908
    59.9400       858
    59.9600       830
    59.9800       772
    60.0000       736
    60.0200       742
    60.0400       734
    60.0600       672
    60.0800       622
    60.1000       598
    60.1200       620
    60.1400       532
    60.1600       522
    60.1800       512
    60.2000       456
    60.2200       456
    60.2400       492
    60.2600       464
    60.2800       438
    60.3000       444
    60.3200       416
    60.3400       464
    60.3600       418
    60.3800       424
    60.4000       404
    60.4200       408
    60.4400       380
    60.4600       392
    60.4800       426
    60.5000       404
    60.5200       396
    60.5400       410
    60.5600       362
    60.5800       384
    60.6000       392
    60.6200       410
    60.6400       368
    60.6600       394
    60.6800       414
    60.7000       370
    60.7200       398
    60.7400       414
    60.7600       400
    60.7800       440
    60.8000       456
    60.8200       406
    60.8400       462
    60.8600       434
    60.8800       480
    60.9000       426
    60.9200       490
    60.9400       474
    60.9600       526
    60.9800       504
    61.0000       600
    61.0200       594
    61.0400       620
    61.0600       654
    61.0800       616
    61.1000       668
    61.1200       730
    61.1400       736
    61.1600       740
    61.1800       784
    61.2000       766
    61.2200       810
    61.2400       826
    61.2600       848
    61.2800       826
    61.3000       840
    61.3200       860
    61.3400       872
    61.3600       854
    61.3800       910
    61.4000       874
    61.4200       890
    61.4400       942
    61.4600       962
    61.4800      1040
    61.5000      1020
    61.5200      1072
    61.5400      1140
    61.5600      1214
    61.5800      1276
    61.6000      1274
    61.6200      1238
    61.6400      1304
    61.6600      1270
    61.6800      1190
    61.7000      1178
    61.7200      1202
    61.7400      1078
    61.7600      1022
    61.7800       992
    61.8000       960
    61.8200       960
    61.8400       890
    61.8600       844
    61.8800       744
    61.9000       708
    61.9200       676
    61.9400       660
    61.9600       594
    61.9800       630
    62.0000       596
    62.0200       586
    62.0400       552
    62.0600       578
    62.0800       572
    62.1000       578
    62.1200       524
    62.1400       548
    62.1600       536
    62.1800       532
    62.2000       554
    62.2200       504
    62.2400       494
    62.2600       486
    62.2800       432
    62.3000       450
    62.3200       466
    62.3400       472
    62.3600       464
    62.3800       478
    62.4000       472
    62.4200       432
    62.4400       398
    62.4600       424
    62.4800       400
    62.5000       392
    62.5200       386
    62.5400       404
    62.5600       388
    62.5800       390
    62.6000       422
    62.6200       432
    62.6400       388
    62.6600       358
    62.6800       390
    62.7000       392
    62.7200       390
    62.7400       398
    62.7600       356
    62.7800       412
    62.8000       400
    62.8200       380
    62.8400       402
    62.8600       360
    62.8800       362
    62.9000       360
    62.9200       372
    62.9400       368
    62.9600       350
    62.9800       318
    63.0000       328
    63.0200       354
    63.0400       330
    63.0600       310
    63.0800       278
    63.1000       298
    63.1200       280
    63.1400       274
    63.1600       284
    63.1800       274
    63.2000       262
    63.2200       252
    63.2400       260
    63.2600       296
    63.2800       256
    63.3000       250
    63.3200       268
    63.3400       290
    63.3600       240
    63.3800       266
    63.4000       248
    63.4200       268
    63.4400       282
    63.4600       292
    63.4800       256
    63.5000       284
    63.5200       318
    63.5400       300
    63.5600       322
    63.5800       342
    63.6000       340
    63.6200       364
    63.6400       356
    63.6600       344
    63.6800       384
    63.7000       450
    63.7200       432
    63.7400       474
    63.7600       512
    63.7800       542
    63.8000       536
    63.8200       652
    63.8400       642
    63.8600       666
    63.8800       694
    63.9000       670
    63.9200       748
    63.9400       712
    63.9600       724
    63.9800       702
    64.0000       698
    64.0200       670
    64.0400       700
    64.0600       644
    64.0800       646
    64.1000       584
    64.1200       550
    64.1400       540
    64.1600       518
    64.1800       450
    64.2000       484
    64.2200       450
    64.2400       442
    64.2600       418
    64.2800       380
    64.3000       334
    64.3200       354
    64.3400       348
    64.3600       354
    64.3800       326
    64.4000       320
    64.4200       282
    64.4400       320
    64.4600       290
    64.4800       300
    64.5000       276
    64.5200       284
    64.5400       294
    64.5600       278
    64.5800       296
    64.6000       284
    64.6200       246
    64.6400       250
    64.6600       262
    64.6800       264
    64.7000       256
    64.7200       212
    64.7400       268
    64.7600       230
    64.7800       256
    64.8000       232
    64.8200       252
    64.8400       224
    64.8600       246
    64.8800       232
    64.9000       228
    64.9200       256
    64.9400       244
    64.9600       262
    64.9800       302
    65.0000       284
    65.0200       256
    65.0400       294
    65.0600       304
    65.0800       304
    65.1000       320
    65.1200       318
    65.1400       328
    65.1600       336
    65.1800       396
    65.2000       352
    65.2200       388
    65.2400       402
    65.2600       438
    65.2800       386
    65.3000       450
    65.3200       404
    65.3400       396
    65.3600       396
    65.3800       444
    65.4000       446
    65.4200       404
    65.4400       386
    65.4600       386
    65.4800       382
    65.5000       408
    65.5200       440
    65.5400       408
    65.5600       450
    65.5800       384
    65.6000       386
    65.6200       380
    65.6400       374
    65.6600       388
    65.6800       386
    65.7000       372
    65.7200       358
    65.7400       340
    65.7600       346
    65.7800       324
    65.8000       362
    65.8200       350
    65.8400       304
    65.8600       374
    65.8800       342
    65.9000       318
    65.9200       304
    65.9400       270
    65.9600       272
    65.9800       300
    66.0000       278
    66.0200       254
    66.0400       284
    66.0600       276
    66.0800       262
    66.1000       320
    66.1200       284
    66.1400       278
    66.1600       288
    66.1800       268
    66.2000       306
    66.2200       248
    66.2400       296
    66.2600       304
    66.2800       294
    66.3000       304
    66.3200       290
    66.3400       378
    66.3600       356
    66.3800       356
    66.4000       354
    66.4200       412
    66.4400       372
    66.4600       444
    66.4800       464
    66.5000       480
    66.5200       462
    66.5400       450
    66.5600       496
    66.5800       470
    66.6000       504
    66.6200       532
    66.6400       492
    66.6600       548
    66.6800       576
    66.7000       566
    66.7200       570
    66.7400       620
    66.7600       668
    66.7800       732
    66.8000       820
    66.8200       822
    66.8400       820
    66.8600       878
    66.8800       900
    66.9000       866
    66.9200       992
    66.9400       914
    66.9600       948
    66.9800       968
    67.0000       940
    67.0200       860
    67.0400       862
    67.0600       872
    67.0800       786
    67.1000       794
    67.1200       756
    67.1400       774
    67.1600       666
    67.1800       632
    67.2000       646
    67.2200       594
    67.2400       590
    67.2600       560
    67.2800       528
    67.3000       470
    67.3200       508
    67.3400       424
    67.3600       426
    67.3800       422
    67.4000       386
    67.4200       398
    67.4400       378
    67.4600       330
    67.4800       358
    67.5000       330
    67.5200       344
    67.5400       336
    67.5600       316
    67.5800       344
    67.6000       332
    67.6200       304
    67.6400       328
    67.6600       328
    67.6800       306
    67.7000       378
    67.7200       332
    67.7400       316
    67.7600       312
    67.7800       306
    67.8000       356
    67.8200       370
    67.8400       336
    67.8600       386
    67.8800       382
    67.9000       436
    67.9200       456
    67.9400       450
    67.9600       512
    67.9800       548
    68.0000       616
    68.0200       668
    68.0400       718
    68.0600       708
    68.0800       856
    68.1000       850
    68.1200       934
    68.1400       916
    68.1600      1036
    68.1800      1050
    68.2000      1058
    68.2200      1036
    68.2400      1000
    68.2600       966
    68.2800      1044
    68.3000       992
    68.3200      1004
    68.3400       994
    68.3600       950
    68.3800       880
    68.4000       870
    68.4200       852
    68.4400       794
    68.4600       740
    68.4800       724
    68.5000       684
    68.5200       674
    68.5400       654
    68.5600       600
    68.5800       582
    68.6000       548
    68.6200       538
    68.6400       486
    68.6600       472
    68.6800       442
    68.7000       406
    68.7200       374
    68.7400       400
    68.7600       346
    68.7800       420
    68.8000       358
    68.8200       362
    68.8400       358
    68.8600       302
    68.8800       328
    68.9000       330
    68.9200       332
    68.9400       302
    68.9600       344
    68.9800       328
    69.0000       344
    69.0200       316
    69.0400       332
    69.0600       332
    69.0800       322
    69.1000       316
    69.1200       336
    69.1400       348
    69.1600       386
    69.1800       370
    69.2000       372
    69.2200       366
    69.2400       384
    69.2600       372
    69.2800       422
    69.3000       442
    69.3200       406
    69.3400       452
    69.3600       450
    69.3800       480
    69.4000       476
    69.4200       480
    69.4400       504
    69.4600       510
    69.4800       518
    69.5000       452
    69.5200       452
    69.5400       424
    69.5600       478
    69.5800       446
    69.6000       438
    69.6200       470
    69.6400       422
    69.6600       398
    69.6800       408
    69.7000       382
    69.7200       376
    69.7400       406
    69.7600       360
    69.7800       394
    69.8000       366
    69.8200       344
    69.8400       390
    69.8600       322
    69.8800       400
    69.9000       380
    69.9200       388
    69.9400       378
    69.9600       378
    69.9800       372
    70.0000       362
    70.0200       356
    70.0400       366
    70.0600       348
    70.0800       322
    70.1000       310
    70.1200       302
    70.1400       320
    70.1600       314
    70.1800       312
    70.2000       284
    70.2200       298
    70.2400       262
    70.2600       276
    70.2800       264
    70.3000       248
    70.3200       264
    70.3400       254
    70.3600       248
    70.3800       268
    70.4000       242
    70.4200       250
    70.4400       234
    70.4600       240
    70.4800       254
    70.5000       248
    70.5200       254
    70.5400       254
    70.5600       262
    70.5800       260
    70.6000       234
    70.6200       260
    70.6400       262
    70.6600       232
    70.6800       254
    70.7000       238
    70.7200       254
    70.7400       230
    70.7600       226
    70.7800       246
    70.8000       248
    70.8200       214
    70.8400       230
    70.8600       228
    70.8800       208
    70.9000       196
    70.9200       216
    70.9400       222
    70.9600       240
    70.9800       220
    71.0000       224
    71.0200       202
    71.0400       218
    71.0600       220
    71.0800       230
    71.1000       226
    71.1200       220
    71.1400       238
    71.1600       224
    71.1800       256
    71.2000       248
    71.2200       230
    71.2400       264
    71.2600       270
    71.2800       256
    71.3000       286
    71.3200       310
    71.3400       330
    71.3600       332
    71.3800       366
    71.4000       358
    71.4200       392
    71.4400       416
    71.4600       434
    71.4800       466
    71.5000       452
    71.5200       480
    71.5400       464
    71.5600       488
    71.5800       498
    71.6000       498
    71.6200       534
    71.6400       494
    71.6600       488
    71.6800       490
    71.7000       514
    71.7200       484
    71.7400       484
    71.7600       452
    71.7800       454
    71.8000       452
    71.8200       474
    71.8400       460
    71.8600       436
    71.8800       392
    71.9000       432
    71.9200       384
    71.9400       426
    71.9600       404
    71.9800       372
    72.0000       378
    72.0200       388
    72.0400       368
    72.0600       366
    72.0800       396
    72.1000       364
    72.1200       402
    72.1400       372
    72.1600       396
    72.1800       384
    72.2000       392
    72.2200       422
    72.2400       436
    72.2600       460
    72.2800       458
    72.3000       452
    72.3200       456
    72.3400       460
    72.3600       508
    72.3800       492
    72.4000       486
    72.4200       502
    72.4400       484
    72.4600       478
    72.4800       520
    72.5000       492
    72.5200       532
    72.5400       534
    72.5600       518
    72.5800       520
    72.6000       556
    72.6200       522
    72.6400       524
    72.6600       536
    72.6800       570
    72.7000       546
    72.7200       598
    72.7400       540
    72.7600       584
    72.7800       528
    72.8000       542
    72.8200       554
    72.8400       484
    72.8600       524
    72.8800       480
    72.9000       526
    72.9200       516
    72.9400       522
    72.9600       476
    72.9800       478
    73.0000       438
    73.0200       388
    73.0400       434
    73.0600       444
    73.0800       376
    73.1000       392
    73.1200       370
    73.1400       360
    73.1600       352
    73.1800       328
    73.2000       338
    73.2200       336
    73.2400       308
    73.2600       302
    73.2800       338
    73.3000       288
    73.3200       266
    73.3400       284
    73.3600       280
    73.3800       246
    73.4000       242
    73.4200       246
    73.4400       218
    73.4600       256
    73.4800       244
    73.5000       254
    73.5200       258
    73.5400       228
    73.5600       274
    73.5800       274
    73.6000       246
    73.6200       230
    73.6400       246
    73.6600       244
    73.6800       238
    73.7000       244
    73.7200       266
    73.7400       252
    73.7600       222
    73.7800       238
    73.8000       238
    73.8200       230
    73.8400       264
    73.8600       272
    73.8800       260
    73.9000       260
    73.9200       262
    73.9400       244
    73.9600       262
    73.9800       274
    74.0000       244
    74.0200       268
    74.0400       268
    74.0600       268
    74.0800       310
    74.1000       294
    74.1200       232
    74.1400       268
    74.1600       280
    74.1800       282
    74.2000       286
    74.2200       254
    74.2400       272
    74.2600       238
    74.2800       258
    74.3000       278
    74.3200       278
    74.3400       270
    74.3600       232
    74.3800       218
    74.4000       206
    74.4200       236
    74.4400       218
    74.4600       212
    74.4800       236
    74.5000       224
    74.5200       206
    74.5400       202
    74.5600       212
    74.5800       214
    74.6000       180
    74.6200       184
    74.6400       192
    74.6600       216
    74.6800       202
    74.7000       204
    74.7200       180
    74.7400       204
    74.7600       174
    74.7800       184
    74.8000       180
    74.8200       212
    74.8400       202
    74.8600       208
    74.8800       202
    74.9000       186
    74.9200       198
    74.9400       222
    74.9600       182
    74.9800       210
    75.0000       190
    75.0200       196
    75.0400       212
    75.0600       208
    75.0800       234
    75.1000       222
    75.1200       242
    75.1400       218
    75.1600       226
    75.1800       254
    75.2000       212
    75.2200       244
    75.2400       262
    75.2600       216
    75.2800       240
    75.3000       270
    75.3200       254
    75.3400       248
    75.3600       240
    75.3800       250
    75.4000       276
    75.4200       250
    75.4400       242
    75.4600       230
    75.4800       260
    75.5000       234
    75.5200       244
    75.5400       256
    75.5600       234
    75.5800       270
    75.6000       214
    75.6200       250
    75.6400       246
    75.6600       248
    75.6800       256
    75.7000       246
    75.7200       256
    75.7400       252
    75.7600       236
    75.7800       268
    75.8000       252
    75.8200       260
    75.8400       268
    75.8600       278
    75.8800       280
    75.9000       240
    75.9200       258
    75.9400       242
    75.9600       234
    75.9800       252
    76.0000       248
    76.0200       258
    76.0400       238
    76.0600       232
    76.0800       244
    76.1000       258
    76.1200       228
    76.1400       288
    76.1600       258
    76.1800       256
    76.2000       252
    76.2200       280
    76.2400       286
    76.2600       304
    76.2800       284
    76.3000       300
    76.3200       326
    76.3400       322
    76.3600       338
    76.3800       336
    76.4000       318
    76.4200       350
    76.4400       358
    76.4600       326
    76.4800       368
    76.5000       384
    76.5200       374
    76.5400       400
    76.5600       352
    76.5800       374
    76.6000       382
    76.6200       430
    76.6400       416
    76.6600       428
    76.6800       448
    76.7000       446
    76.7200       474
    76.7400       484
    76.7600       454
    76.7800       440
    76.8000       434
    76.8200       418
    76.8400       436
    76.8600       410
    76.8800       388
    76.9000       400
    76.9200       368
    76.9400       420
    76.9600       378
    76.9800       406
    77.0000       382
    77.0200       352
    77.0400       358
    77.0600       362
    77.0800       334
    77.1000       356
    77.1200       408
    77.1400       382
    77.1600       360
    77.1800       356
    77.2000       366
    77.2200       392
    77.2400       376
    77.2600       372
    77.2800       372
    77.3000       374
    77.3200       376
    77.3400       410
    77.3600       404
    77.3800       402
    77.4000       432
    77.4200       422
    77.4400       436
    77.4600       486
    77.4800       424
    77.5000       494
    77.5200       498
    77.5400       532
    77.5600       626
    77.5800       644
    77.6000       630
    77.6200       656
    77.6400       658
    77.6600       644
    77.6800       712
    77.7000       652
    77.7200       738
    77.7400       720
    77.7600       650
    77.7800       658
    77.8000       668
    77.8200       608
    77.8400       664
    77.8600       632
    77.8800       576
    77.9000       602
    77.9200       532
    77.9400       560
    77.9600       552
    77.9800       520
    78.0000       504
    78.0200       478
    78.0400       460
    78.0600       480
    78.0800       434
    78.1000       406
    78.1200       382
    78.1400       388
    78.1600       422
    78.1800       368
    78.2000       372
    78.2200       352
    78.2400       358
    78.2600       328
    78.2800       306
    78.3000       340
    78.3200       338
    78.3400       312
    78.3600       314
    78.3800       324
    78.4000       334
    78.4200       326
    78.4400       344
    78.4600       354
    78.4800       364
    78.5000       370
    78.5200       362
    78.5400       380
    78.5600       350
    78.5800       396
    78.6000       392
    78.6200       374
    78.6400       394
    78.6600       448
    78.6800       414
    78.7000       422
    78.7200       460
    78.7400       390
    78.7600       348
    78.7800       376
    78.8000       388
    78.8200       434
    78.8400       424
    78.8600       390
    78.8800       380
    78.9000       350
    78.9200       346
    78.9400       326
    78.9600       342
    78.9800       350
    79.0000       322
    79.0200       322
    79.0400       306
    79.0600       278
    79.0800       290
    79.1000       292
    79.1200       268
    79.1400       274
    79.1600       268
    79.1800       286
    79.2000       276
    79.2200       282
    79.2400       300
    79.2600       292
    79.2800       294
    79.3000       242
    79.3200       272
    79.3400       270
    79.3600       266
    79.3800       250
    79.4000       234
    79.4200       256
    79.4400       258
    79.4600       236
    79.4800       256
    79.5000       260
    79.5200       270
    79.5400       248
    79.5600       262
    79.5800       250
    79.6000       244
    79.6200       246
    79.6400       254
    79.6600       248
    79.6800       282
    79.7000       244
    79.7200       256
    79.7400       234
    79.7600       234
    79.7800       256
    79.8000       266
    79.8200       254
    79.8400       248
    79.8600       262
    79.8800       238
    79.9000       248
    79.9200       242
    79.9400       242
    79.9600       252
    79.9800       222
    80.0000       230
    80.0200       234
    80.0400       250
    80.0600       246
    80.0800       230
    80.1000       252
    80.1200       240
    80.1400       246
    80.1600       268
    80.1800       278
    80.2000       258
    80.2200       248
    80.2400       286
    80.2600       264
    80.2800       268
    80.3000       260
    80.3200       282
    80.3400       270
    80.3600       282
    80.3800       282
    80.4000       258
    80.4200       264
    80.4400       276
    80.4600       264
    80.4800       280
    80.5000       314
    80.5200       282
    80.5400       334
    80.5600       302
    80.5800       300
    80.6000       282
    80.6200       282
    80.6400       280
    80.6600       278
    80.6800       292
    80.7000       292
    80.7200       324
    80.7400       260
    80.7600       288
    80.7800       260
    80.8000       290
    80.8200       278
    80.8400       258
    80.8600       250
    80.8800       262
    80.9000       252
    80.9200       244
    80.9400       258
    80.9600       218
    80.9800       244
    81.0000       252
    81.0200       250
    81.0400       250
    81.0600       200
    81.0800       248
    81.1000       212
    81.1200       236
    81.1400       246
    81.1600       226
    81.1800       232
    81.2000       224
    81.2200       216
    81.2400       242
    81.2600       228
    81.2800       268
    81.3000       256
    81.3200       238
    81.3400       240
    81.3600       240
    81.3800       258
    81.4000       230
    81.4200       244
    81.4400       250
    81.4600       248
    81.4800       280
    81.5000       248
    81.5200       252
    81.5400       246
    81.5600       260
    81.5800       304
    81.6000       262
    81.6200       256
    81.6400       274
    81.6600       256
    81.6800       260
    81.7000       234
    81.7200       276
    81.7400       300
    81.7600       292
    81.7800       264
    81.8000       302
    81.8200       272
    81.8400       290
    81.8600       298
    81.8800       308
    81.9000       314
    81.9200       278
    81.9400       290
    81.9600       290
    81.9800       312
    82.0000       342
    82.0200       332
    82.0400       324
    82.0600       342
    82.0800       314
    82.1000       334
    82.1200       322
    82.1400       342
    82.1600       328
    82.1800       316
    82.2000       338
    82.2200       372
    82.2400       352
    82.2600       352
    82.2800       366
    82.3000       370
    82.3200       374
    82.3400       360
    82.3600       364
    82.3800       360
    82.4000       380
    82.4200       340
    82.4400       344
    82.4600       362
    82.4800       372
    82.5000       364
    82.5200       428
    82.5400       400
    82.5600       408
    82.5800       428
    82.6000       416
    82.6200       406
    82.6400       468
    82.6600       438
    82.6800       486
    82.7000       470
    82.7200       510
    82.7400       500
    82.7600       566
    82.7800       570
    82.8000       596
    82.8200       628
    82.8400       642
    82.8600       606
    82.8800       664
    82.9000       670
    82.9200       634
    82.9400       690
    82.9600       702
    82.9800       644
    83.0000       566
    83.0200       612
    83.0400       602
    83.0600       602
    83.0800       594
    83.1000       604
    83.1200       628
    83.1400       574
    83.1600       572
    83.1800       548
    83.2000       550
    83.2200       566
    83.2400       518
    83.2600       504
    83.2800       544
    83.3000       496
    83.3200       468
    83.3400       450
    83.3600       416
    83.3800       456
    83.4000       376
    83.4200       446
    83.4400       428
    83.4600       446
    83.4800       376
    83.5000       412
    83.5200       372
    83.5400       328
    83.5600       352
    83.5800       374
    83.6000       334
    83.6200       302
    83.6400       294
    83.6600       338
    83.6800       322
    83.7000       304
    83.7200       322
    83.7400       284
    83.7600       304
    83.7800       304
    83.8000       278
    83.8200       282
    83.8400       304
    83.8600       312
    83.8800       298
    83.9000       286
    83.9200       258
    83.9400       314
    83.9600       288
    83.9800       288
    84.0000       300
    84.0200       294
    84.0400       310
    84.0600       278
    84.0800       324
    84.1000       306
    84.1200       306
    84.1400       334
    84.1600       274
    84.1800       338
    84.2000       280
    84.2200       328
    84.2400       310
    84.2600       334
    84.2800       328
    84.3000       354
    84.3200       328
    84.3400       322
    84.3600       362
    84.3800       332
    84.4000       342
    84.4200       310
    84.4400       296
    84.4600       336
    84.4800       316
    84.5000       324
    84.5200       284
    84.5400       308
    84.5600       312
    84.5800       346
    84.6000       294
    84.6200       292
    84.6400       324
    84.6600       304
    84.6800       308
    84.7000       338
    84.7200       282
    84.7400       300
    84.7600       276
    84.7800       278
    84.8000       290
    84.8200       298
    84.8400       286
    84.8600       264
    84.8800       284
    84.9000       290
    84.9200       284
    84.9400       300
    84.9600       284
    84.9800       288
    85.0000       300
    85.0200       282
    85.0400       258
    85.0600       268
    85.0800       280
    85.1000       250
    85.1200       252
    85.1400       244
    85.1600       260
    85.1800       264
    85.2000       258
    85.2200       238
    85.2400       232
    85.2600       254
    85.2800       254
    85.3000       252
    85.3200       236
    85.3400       224
    85.3600       246
    85.3800       226
    85.4000       284
    85.4200       280
    85.4400       266
    85.4600       262
    85.4800       258
    85.5000       284
    85.5200       282
    85.5400       314
    85.5600       288
    85.5800       312
    85.6000       316
    85.6200       310
    85.6400       272
    85.6600       298
    85.6800       268
    85.7000       280
    85.7200       280
    85.7400       280
    85.7600       258
    85.7800       284
    85.8000       260
    85.8200       280
    85.8400       244
    85.8600       276
    85.8800       244
    85.9000       244
    85.9200       270
    85.9400       224
    85.9600       240
    85.9800       234
    86.0000       242
    86.0200       268
    86.0400       244
    86.0600       240
    86.0800       244
    86.1000       254
    86.1200       242
    86.1400       218
    86.1600       270
    86.1800       230
    86.2000       242
    86.2200       226
    86.2400       232
    86.2600       270
    86.2800       240
    86.3000       246
    86.3200       240
    86.3400       254
    86.3600       256
    86.3800       260
    86.4000       260
    86.4200       230
    86.4400       232
    86.4600       244
    86.4800       232
    86.5000       236
    86.5200       244
    86.5400       248
    86.5600       250
    86.5800       254
    86.6000       266
    86.6200       276
    86.6400       272
    86.6600       284
    86.6800       250
    86.7000       278
    86.7200       316
    86.7400       300
    86.7600       314
    86.7800       276
    86.8000       316
    86.8200       320
    86.8400       328
    86.8600       342
    86.8800       398
    86.9000       342
    86.9200       384
    86.9400       374
    86.9600       356
    86.9800       380
    87.0000       380
    87.0200       366
    87.0400       336
    87.0600       354
    87.0800       348
    87.1000       348
    87.1200       336
    87.1400       332
    87.1600       340
    87.1800       324
    87.2000       316
    87.2200       320
    87.2400       330
    87.2600       300
    87.2800       324
    87.3000       322
    87.3200       294
    87.3400       318
    87.3600       306
    87.3800       272
    87.4000       282
    87.4200       296
    87.4400       300
    87.4600       266
    87.4800       294
    87.5000       296
    87.5200       296
    87.5400       272
    87.5600       290
    87.5800       304
    87.6000       292
    87.6200       292
    87.6400       318
    87.6600       328
    87.6800       330
    87.7000       336
    87.7200       338
    87.7400       348
    87.7600       354
    87.7800       364
    87.8000       428
    87.8200       388
    87.8400       398
    87.8600       388
    87.8800       396
    87.9000       440
    87.9200       392
    87.9400       400
    87.9600       400
    87.9800       424
    88.0000       430
    88.0200       394
    88.0400       406
    88.0600       424
    88.0800       400
    88.1000       434
    88.1200       436
    88.1400       454
    88.1600       402
    88.1800       444
    88.2000       416
    88.2200       396
    88.2400       388
    88.2600       388
    88.2800       384
    88.3000       386
    88.3200       400
    88.3400       422
    88.3600       412
    88.3800       412
    88.4000       382
    88.4200       418
    88.4400       420
    88.4600       390
    88.4800       414
    88.5000       384
    88.5200       392
    88.5400       416
    88.5600       404
    88.5800       390
    88.6000       378
    88.6200       342
    88.6400       396
    88.6600       402
    88.6800       358
    88.7000       364
    88.7200       374
    88.7400       358
    88.7600       334
    88.7800       354
    88.8000       330
    88.8200       344
    88.8400       298
    88.8600       296
    88.8800       324
    88.9000       322
    88.9200       336
    88.9400       322
    88.9600       290
    88.9800       312
    89.0000       264
    89.0200       304
    89.0400       272
    89.0600       270
    89.0800       250
    89.1000       266
    89.1200       254
    89.1400       262
    89.1600       244
    89.1800       264
    89.2000       226
    89.2200       244
    89.2400       254
    89.2600       262
    89.2800       256
    89.3000       228
    89.3200       252
    89.3400       246
    89.3600       234
    89.3800       246
    89.4000       248
    89.4200       220
    89.4400       236
    89.4600       248
    89.4800       280
    89.5000       242
    89.5200       258
    89.5400       262
    89.5600       242
    89.5800       282
    89.6000       282
    89.6200       260
    89.6400       254
    89.6600       234
    89.6800       232
    89.7000       260
    89.7200       256
    89.7400       262
    89.7600       262
    89.7800       264
    89.8000       256
    89.8200       276
    89.8400       276
    89.8600       268
    89.8800       300
    89.9000       296
    89.9200       286
    89.9400       280
    89.9600       294
    89.9800       274
    90.0000       300
