    10.0000       334
    10.0200       350
    10.0400       344
    10.0600       388
    10.0800       328
    10.1000       350
    10.1200       328
    10.1400       360
    10.1600       352
    10.1800       342
    10.2000       338
    10.2200       326
    10.2400       374
    10.2600       334
    10.2800       328
    10.3000       334
    10.3200       318
    10.3400       348
    10.3600       326
    10.3800       346
    10.4000       338
    10.4200       354
    10.4400       336
    10.4600       294
    10.4800       328
    10.5000       354
    10.5200       334
    10.5400       344
    10.5600       332
    10.5800       338
    10.6000       354
    10.6200       322
    10.6400       330
    10.6600       348
    10.6800       342
    10.7000       326
    10.7200       316
    10.7400       316
    10.7600       322
    10.7800       310
    10.8000       324
    10.8200       334
    10.8400       306
    10.8600       342
    10.8800       300
    10.9000       308
    10.9200       328
    10.9400       332
    10.9600       326
    10.9800       352
    11.0000       326
    11.0200       324
    11.0400       330
    11.0600       324
    11.0800       304
    11.1000       314
    11.1200       316
    11.1400       290
    11.1600       290
    11.1800       314
    11.2000       308
    11.2200       322
    11.2400       288
    11.2600       314
    11.2800       300
    11.3000       330
    11.3200       292
    11.3400       314
    11.3600       314
    11.3800       308
    11.4000       304
    11.4200       330
    11.4400       298
    11.4600       334
    11.4800       296
    11.5000       336
    11.5200       322
    11.5400       300
    11.5600       316
    11.5800       306
    11.6000       304
    11.6200       330
    11.6400       312
    11.6600       340
    11.6800       304
    11.7000       346
    11.7200       306
    11.7400       318
    11.7600       330
    11.7800       350
    11.8000       332
    11.8200       326
    11.8400       360
    11.8600       392
    11.8800       414
    11.9000       386
    11.9200       380
    11.9400       394
    11.9600       414
    11.9800       438
    12.0000       456
    12.0200       488
    12.0400       516
    12.0600       528
    12.0800       596
    12.1000       610
    12.1200       646
    12.1400       720
    12.1600       728
    12.1800       832
    12.2000       852
    12.2200       822
    12.2400       770
    12.2600       648
    12.2800       540
    12.3000       458
    12.3200       384
    12.3400       372
    12.3600       354
    12.3800       342
    12.4000       346
    12.4200       314
    12.4400       290
    12.4600       324
    12.4800       288
    12.5000       294
    12.5200       268
    12.5400       306
    12.5600       298
    12.5800       268
    12.6000       266
    12.6200       288
    12.6400       282
    12.6600       302
    12.6800       294
    12.7000       278
    12.7200       252
    12.7400       274
    12.7600       262
    12.7800       278
    12.8000       246
    12.8200       264
    12.8400       296
    12.8600       276
    12.8800       274
    12.9000       272
    12.9200       258
    12.9400       276
    12.9600       278
    12.9800       276
    13.0000       242
    13.0200       286
    13.0400       254
    13.0600       288
    13.0800       240
    13.1000       278
    13.1200       250
    13.1400       264
    13.1600       274
    13.1800       254
    13.2000       268
    13.2200       252
    13.2400       238
    13.2600       258
    13.2800       240
    13.3000       270
    13.3200       266
    13.3400       258
    13.3600       270
    13.3800       272
    13.4000       256
    13.4200       254
    13.4400       262
    13.4600       274
    13.4800       262
    13.5000       244
    13.5200       260
    13.5400       206
    13.5600       254
    13.5800       262
    13.6000       260
    13.6200       248
    13.6400       272
    13.6600       252
    13.6800       246
    13.7000       238
    13.7200       252
    13.7400       230
    13.7600       236
    13.7800       252
    13.8000       264
    13.8200       268
    13.8400       248
    13.8600       242
    13.8800       262
    13.9000       250
    13.9200       238
    13.9400       240
    13.9600       252
    13.9800       236
    14.0000       204
    14.0200       216
    14.0400       256
    14.0600       228
    14.0800       266
    14.1000       254
    14.1200       262
    14.1400       240
    14.1600       234
    14.1800       228
    14.2000       218
    14.2200       242
    14.2400       216
    14.2600       238
    14.2800       250
    14.3000       276
    14.3200       222
    14.3400       224
    14.3600       242
    14.3800       238
    14.4000       242
    14.4200       246
    14.4400       214
    14.4600       256
    14.4800       244
    14.5000       216
    14.5200       256
    14.5400       226
    14.5600       272
    14.5800       222
    14.6000       248
    14.6200       220
    14.6400       234
    14.6600       262
    14.6800       244
    14.7000       240
    14.7200       254
    14.7400       254
    14.7600       254
    14.7800       252
    14.8000       274
    14.8200       270
    14.8400       320
    14.8600       310
    14.8800       308
    14.9000       336
    14.9200       372
    14.9400       332
    14.9600       414
    14.9800       400
    15.0000       464
    15.0200       484
    15.0400       536
    15.0600       538
    15.0800       578
    15.1000       622
    15.1200       664
    15.1400       734
    15.1600       728
    15.1800       812
    15.2000       768
    15.2200       714
    15.2400       666
    15.2600       622
    15.2800       522
    15.3000       410
    15.3200       330
    15.3400       308
    15.3600       282
    15.3800       274
    15.4000       250
    15.4200       236
    15.4400       238
    15.4600       236
    15.4800       234
    15.5000       230
    15.5200       266
    15.5400       238
    15.5600       214
    15.5800       208
    15.6000       224
    15.6200       240
    15.6400       238
    15.6600       188
    15.6800       226
    15.7000       202
    15.7200       210
    15.7400       222
    15.7600       220
    15.7800       200
    15.8000       190
    15.8200       192
    15.8400       254
    15.8600       222
    15.8800       228
    15.9000       198
    15.9200       218
    15.9400       224
    15.9600       196
    15.9800       202
    16.0000       226
    16.0200       204
    16.0400       212
    16.0600       200
    16.0800       228
    16.1000       220
    16.1200       222
    16.1400       196
    16.1600       232
    16.1800       226
    16.2000       250
    16.2200       198
    16.2400       220
    16.2600       246
    16.2800       248
    16.3000       228
    16.3200       218
    16.3400       220
    16.3600       232
    16.3800       206
    16.4000       216
    16.4200       248
    16.4400       230
    16.4600       192
    16.4800       224
    16.5000       240
    16.5200       226
    16.5400       192
    16.5600       264
    16.5800       238
    16.6000       228
    16.6200       240
    16.6400       250
    16.6600       244
    16.6800       280
    16.7000       238
    16.7200       292
    16.7400       302
    16.7600       300
    16.7800       336
    16.8000       346
    16.8200       360
    16.8400       406
    16.8600       444
    16.8800       486
    16.9000       512
    16.9200       594
    16.9400       662
    16.9600       742
    16.9800       836
    17.0000       960
    17.0200      1082
    17.0400      1202
    17.0600      1206
    17.0800      1192
    17.1000      1092
    17.1200      1104
    17.1400      1048
    17.1600       972
    17.1800       942
    17.2000       804
    17.2200       888
    17.2400       790
    17.2600       758
    17.2800       782
    17.3000       746
    17.3200       708
    17.3400       624
    17.3600       572
    17.3800       568
    17.4000       500
    17.4200       422
    17.4400       362
    17.4600       382
    17.4800       376
    17.5000       346
    17.5200       326
    17.5400       372
    17.5600       338
    17.5800       334
    17.6000       356
    17.6200       340
    17.6400       348
    17.6600       354
    17.6800       380
    17.7000       354
    17.7200       424
    17.7400       412
    17.7600       432
    17.7800       434
    17.8000       440
    17.8200       448
    17.8400       420
    17.8600       428
    17.8800       382
    17.9000       334
    17.9200       262
    17.9400       278
    17.9600       264
    17.9800       226
    18.0000       244
    18.0200       206
    18.0400       238
    18.0600       178
    18.0800       176
    18.1000       220
    18.1200       190
    18.1400       216
    18.1600       206
    18.1800       198
    18.2000       190
    18.2200       182
    18.2400       184
    18.2600       196
    18.2800       222
    18.3000       218
    18.3200       194
    18.3400       196
    18.3600       204
    18.3800       200
    18.4000       194
    18.4200       184
    18.4400       224
    18.4600       176
    18.4800       184
    18.5000       190
    18.5200       224
    18.5400       206
    18.5600       192
    18.5800       212
    18.6000       204
    18.6200       182
    18.6400       194
    18.6600       212
    18.6800       214
    18.7000       202
    18.7200       196
    18.7400       214
    18.7600       218
    18.7800       200
    18.8000       202
    18.8200       224
    18.8400       208
    18.8600       208
    18.8800       234
    18.9000       194
    18.9200       236
    18.9400       234
    18.9600       200
    18.9800       244
    19.0000       254
    19.0200       258
    19.0400       270
    19.0600       264
    19.0800       274
    19.1000       298
    19.1200       310
    19.1400       336
    19.1600       366
    19.1800       404
    19.2000       444
    19.2200       476
    19.2400       488
    19.2600       520
    19.2800       602
    19.3000       686
    19.3200       724
    19.3400       838
    19.3600       998
    19.3800      1138
    19.4000      1242
    19.4200      1432
    19.4400      1710
    19.4600      2088
    19.4800      2390
    19.5000      2824
    19.5200      3116
    19.5400      3458
    19.5600      3396
    19.5800      3316
    19.6000      2908
    19.6200      2222
    19.6400      1838
    19.6600      1378
    19.6800      1148
    19.7000      1010
    19.7200       918
    19.7400       876
    19.7600       928
    19.7800       866
    19.8000       968
    19.8200      1078
    19.8400      1160
    19.8600      1316
    19.8800      1442
    19.9000      1760
    19.9200      1980
    19.9400      2262
    19.9600      2498
    19.9800      2614
    20.0000      2706
    20.0200      2440
    20.0400      2190
    20.0600      1946
    20.0800      1546
    20.1000      1110
    20.1200       904
    20.1400       668
    20.1600       570
    20.1800       488
    20.2000       396
    20.2200       382
    20.2400       372
    20.2600       308
    20.2800       314
    20.3000       302
    20.3200       280
    20.3400       246
    20.3600       240
    20.3800       242
    20.4000       204
    20.4200       220
    20.4400       216
    20.4600       212
    20.4800       220
    20.5000       246
    20.5200       238
    20.5400       226
    20.5600       228
    20.5800       216
    20.6000       200
    20.6200       188
    20.6400       218
    20.6600       220
    20.6800       240
    20.7000       250
    20.7200       248
    20.7400       254
    20.7600       246
    20.7800       282
    20.8000       274
    20.8200       332
    20.8400       324
    20.8600       350
    20.8800       378
    20.9000       388
    20.9200       434
    20.9400       474
    20.9600       534
    20.9800       624
    21.0000       690
    21.0200       814
    21.0400       892
    21.0600      1054
    21.0800      1216
    21.1000      1380
    21.1200      1716
    21.1400      1982
    21.1600      2154
    21.1800      2366
    21.2000      2646
    21.2200      2692
    21.2400      2634
    21.2600      2376
    21.2800      2110
    21.3000      1760
    21.3200      1352
    21.3400      1088
    21.3600       888
    21.3800       676
    21.4000       612
    21.4200       460
    21.4400       414
    21.4600       378
    21.4800       316
    21.5000       362
    21.5200       288
    21.5400       272
    21.5600       266
    21.5800       256
    21.6000       230
    21.6200       210
    21.6400       236
    21.6600       244
    21.6800       240
    21.7000       210
    21.7200       204
    21.7400       202
    21.7600       178
    21.7800       196
    21.8000       194
    21.8200       184
    21.8400       194
    21.8600       218
    21.8800       196
    21.9000       174
    21.9200       202
    21.9400       228
    21.9600       172
    21.9800       178
    22.0000       190
    22.0200       216
    22.0400       214
    22.0600       166
    22.0800       204
    22.1000       198
    22.1200       202
    22.1400       186
    22.1600       220
    22.1800       198
    22.2000       226
    22.2200       218
    22.2400       220
    22.2600       236
    22.2800       202
    22.3000       218
    22.3200       238
    22.3400       254
    22.3600       264
    22.3800       292
    22.4000       262
    22.4200       282
    22.4400       322
    22.4600       322
    22.4800       388
    22.5000       374
    22.5200       468
    22.5400       476
    22.5600       604
    22.5800       628
    22.6000       680
    22.6200       758
    22.6400       894
    22.6600      1036
    22.6800      1244
    22.7000      1376
    22.7200      1648
    22.7400      1944
    22.7600      2298
    22.7800      2876
    22.8000      3376
    22.8200      3812
    22.8400      4416
    22.8600      4708
    22.8800      4810
    22.9000      4350
    22.9200      3830
    22.9400      3232
    22.9600      2396
    22.9800      1846
    23.0000      1406
    23.0200      1024
    23.0400       846
    23.0600       738
    23.0800       614
    23.1000       516
    23.1200       470
    23.1400       400
    23.1600       452
    23.1800       374
    23.2000       344
    23.2200       332
    23.2400       326
    23.2600       300
    23.2800       264
    23.3000       280
    23.3200       306
    23.3400       276
    23.3600       270
    23.3800       244
    23.4000       218
    23.4200       230
    23.4400       214
    23.4600       214
    23.4800       184
    23.5000       208
    23.5200       216
    23.5400       212
    23.5600       202
    23.5800       200
    23.6000       210
    23.6200       196
    23.6400       190
    23.6600       234
    23.6800       162
    23.7000       208
    23.7200       194
    23.7400       210
    23.7600       224
    23.7800       192
    23.8000       192
    23.8200       190
    23.8400       202
    23.8600       180
    23.8800       200
    23.9000       206
    23.9200       210
    23.9400       184
    23.9600       164
    23.9800       192
    24.0000       210
    24.0200       218
    24.0400       206
    24.0600       216
    24.0800       214
    24.1000       244
    24.1200       238
    24.1400       244
    24.1600       234
    24.1800       276
    24.2000       294
    24.2200       292
    24.2400       304
    24.2600       284
    24.2800       360
    24.3000       402
    24.3200       426
    24.3400       464
    24.3600       558
    24.3800       628
    24.4000       660
    24.4200       820
    24.4400       896
    24.4600      1062
    24.4800      1250
    24.5000      1362
    24.5200      1496
    24.5400      1496
    24.5600      1500
    24.5800      1482
    24.6000      1390
    24.6200      1276
    24.6400      1112
    24.6600       978
    24.6800       802
    24.7000       720
    24.7200       646
    24.7400       566
    24.7600       576
    24.7800       498
    24.8000       490
    24.8200       442
    24.8400       466
    24.8600       412
    24.8800       362
    24.9000       342
    24.9200       342
    24.9400       376
    24.9600       366
    24.9800       364
    25.0000       374
    25.0200       382
    25.0400       404
    25.0600       412
    25.0800       378
    25.1000       404
    25.1200       462
    25.1400       448
    25.1600       472
    25.1800       520
    25.2000       518
    25.2200       558
    25.2400       572
    25.2600       636
    25.2800       664
    25.3000       642
    25.3200       690
    25.3400       670
    25.3600       658
    25.3800       568
    25.4000       656
    25.4200       588
    25.4400       604
    25.4600       612
    25.4800       704
    25.5000       682
    25.5200       788
    25.5400       872
    25.5600      1018
    25.5800      1076
    25.6000      1140
    25.6200      1154
    25.6400      1076
    25.6600       930
    25.6800       798
    25.7000       750
    25.7200       626
    25.7400       540
    25.7600       422
    25.7800       358
    25.8000       354
    25.8200       330
    25.8400       332
    25.8600       276
    25.8800       284
    25.9000       268
    25.9200       240
    25.9400       228
    25.9600       216
    25.9800       216
    26.0000       214
    26.0200       218
    26.0400       206
    26.0600       200
    26.0800       210
    26.1000       222
    26.1200       190
    26.1400       184
    26.1600       190
    26.1800       162
    26.2000       186
    26.2200       194
    26.2400       180
    26.2600       196
    26.2800       196
    26.3000       170
    26.3200       220
    26.3400       218
    26.3600       196
    26.3800       202
    26.4000       206
    26.4200       224
    26.4400       210
    26.4600       210
    26.4800       202
    26.5000       200
    26.5200       224
    26.5400       228
    26.5600       222
    26.5800       198
    26.6000       216
    26.6200       232
    26.6400       222
    26.6600       182
    26.6800       230
    26.7000       210
    26.7200       182
    26.7400       220
    26.7600       212
    26.7800       188
    26.8000       204
    26.8200       224
    26.8400       224
    26.8600       208
    26.8800       216
    26.9000       210
    26.9200       222
    26.9400       206
    26.9600       208
    26.9800       218
    27.0000       240
    27.0200       212
    27.0400       260
    27.0600       216
    27.0800       234
    27.1000       270
    27.1200       282
    27.1400       288
    27.1600       324
    27.1800       332
    27.2000       340
    27.2200       406
    27.2400       398
    27.2600       494
    27.2800       534
    27.3000       568
    27.3200       636
    27.3400       748
    27.3600       866
    27.3800       962
    27.4000      1148
    27.4200      1308
    27.4400      1354
    27.4600      1406
    27.4800      1564
    27.5000      1656
    27.5200      1560
    27.5400      1542
    27.5600      1380
    27.5800      1332
    27.6000      1080
    27.6200       970
    27.6400       816
    27.6600       708
    27.6800       672
    27.7000       552
    27.7200       452
    27.7400       440
    27.7600       406
    27.7800       362
    27.8000       312
    27.8200       342
    27.8400       306
    27.8600       302
    27.8800       308
    27.9000       306
    27.9200       318
    27.9400       324
    27.9600       286
    27.9800       300
    28.0000       300
    28.0200       322
    28.0400       344
    28.0600       350
    28.0800       338
    28.1000       396
    28.1200       392
    28.1400       398
    28.1600       420
    28.1800       436
    28.2000       458
    28.2200       550
    28.2400       504
    28.2600       580
    28.2800       614
    28.3000       552
    28.3200       532
    28.3400       548
    28.3600       496
    28.3800       438
    28.4000       420
    28.4200       356
    28.4400       350
    28.4600       346
    28.4800       398
    28.5000       288
    28.5200       300
    28.5400       244
    28.5600       282
    28.5800       270
    28.6000       274
    28.6200       260
    28.6400       282
    28.6600       252
    28.6800       324
    28.7000       264
    28.7200       256
    28.7400       300
    28.7600       312
    28.7800       282
    28.8000       288
    28.8200       224
    28.8400       252
    28.8600       264
    28.8800       268
    28.9000       242
    28.9200       238
    28.9400       210
    28.9600       248
    28.9800       220
    29.0000       216
    29.0200       228
    29.0400       202
    29.0600       182
    29.0800       194
    29.1000       230
    29.1200       218
    29.1400       250
    29.1600       254
    29.1800       222
    29.2000       238
    29.2200       238
    29.2400       262
    29.2600       290
    29.2800       264
    29.3000       280
    29.3200       286
    29.3400       338
    29.3600       326
    29.3800       330
    29.4000       350
    29.4200       386
    29.4400       402
    29.4600       426
    29.4800       424
    29.5000       442
    29.5200       474
    29.5400       474
    29.5600       552
    29.5800       570
    29.6000       570
    29.6200       614
    29.6400       644
    29.6600       634
    29.6800       664
    29.7000       594
    29.7200       556
    29.7400       586
    29.7600       512
    29.7800       474
    29.8000       462
    29.8200       440
    29.8400       444
    29.8600       486
    29.8800       460
    29.9000       460
    29.9200       568
    29.9400       598
    29.9600       648
    29.9800       684
    30.0000       826
    30.0200       944
    30.0400      1114
    30.0600      1250
    30.0800      1452
    30.1000      1702
    30.1200      1894
    30.1400      2156
    30.1600      2320
    30.1800      2454
    30.2000      2622
    30.2200      2514
    30.2400      2494
    30.2600      2200
    30.2800      2084
    30.3000      1882
    30.3200      1676
    30.3400      1658
    30.3600      1414
    30.3800      1408
    30.4000      1364
    30.4200      1286
    30.4400      1410
    30.4600      1378
    30.4800      1452
    30.5000      1654
    30.5200      1708
    30.5400      1924
    30.5600      2222
    30.5800      2314
    30.6000      2516
    30.6200      2808
    30.6400      3032
    30.6600      3262
    30.6800      3246
    30.7000      3174
    30.7200      2954
    30.7400      2884
    30.7600      2420
    30.7800      2144
    30.8000      1850
    30.8200      1482
    30.8400      1294
    30.8600      1060
    30.8800       948
    30.9000       750
    30.9200       694
    30.9400       642
    30.9600       588
    30.9800       576
    31.0000       552
    31.0200       556
    31.0400       534
    31.0600       478
    31.0800       462
    31.1000       404
    31.1200       416
    31.1400       376
    31.1600       350
    31.1800       344
    31.2000       358
    31.2200       312
    31.2400       312
    31.2600       292
    31.2800       276
    31.3000       290
    31.3200       270
    31.3400       266
    31.3600       320
    31.3800       264
    31.4000       286
    31.4200       302
    31.4400       300
    31.4600       294
    31.4800       282
    31.5000       304
    31.5200       304
    31.5400       306
    31.5600       342
    31.5800       328
    31.6000       344
    31.6200       376
    31.6400       364
    31.6600       378
    31.6800       426
    31.7000       448
    31.7200       472
    31.7400       516
    31.7600       594
    31.7800       590
    31.8000       728
    31.8200       758
    31.8400       900
    31.8600       992
    31.8800      1206
    31.9000      1314
    31.9200      1606
    31.9400      1832
    31.9600      2186
    31.9800      2358
    32.0000      2522
    32.0200      2582
    32.0400      2414
    32.0600      2242
    32.0800      1962
    32.1000      1834
    32.1200      1572
    32.1400      1404
    32.1600      1292
    32.1800      1180
    32.2000      1138
    32.2200      1116
    32.2400      1090
    32.2600      1230
    32.2800      1322
    32.3000      1394
    32.3200      1652
    32.3400      1794
    32.3600      2032
    32.3800      2352
    32.4000      2824
    32.4200      3278
    32.4400      3938
    32.4600      4698
    32.4800      5468
    32.5000      6422
    32.5200      7338
    32.5400      7994
    32.5600      8432
    32.5800      8362
    32.6000      8060
    32.6200      7516
    32.6400      6914
    32.6600      6032
    32.6800      5114
    32.7000      4308
    32.7200      3716
    32.7400      2986
    32.7600      2464
    32.7800      2092
    32.8000      1768
    32.8200      1546
    32.8400      1400
    32.8600      1232
    32.8800      1186
    32.9000      1102
    32.9200      1112
    32.9400      1100
    32.9600      1162
    32.9800      1084
    33.0000      1250
    33.0200      1350
    33.0400      1434
    33.0600      1544
    33.0800      1670
    33.1000      1700
    33.1200      1680
    33.1400      1564
    33.1600      1468
    33.1800      1270
    33.2000      1078
    33.2200       956
    33.2400       764
    33.2600       654
    33.2800       594
    33.3000       484
    33.3200       458
    33.3400       416
    33.3600       370
    33.3800       366
    33.4000       322
    33.4200       298
    33.4400       332
    33.4600       332
    33.4800       272
    33.5000       292
    33.5200       280
    33.5400       290
    33.5600       254
    33.5800       254
    33.6000       244
    33.6200       236
    33.6400       246
    33.6600       242
    33.6800       244
    33.7000       240
    33.7200       224
    33.7400       222
    33.7600       218
    33.7800       220
    33.8000       244
    33.8200       202
    33.8400       226
    33.8600       212
    33.8800       204
    33.9000       208
    33.9200       228
    33.9400       256
    33.9600       246
    33.9800       206
    34.0000       238
    34.0200       214
    34.0400       200
    34.0600       252
    34.0800       222
    34.1000       226
    34.1200       196
    34.1400       226
    34.1600       226
    34.1800       238
    34.2000       242
    34.2200       244
    34.2400       236
    34.2600       234
    34.2800       268
    34.3000       260
    34.3200       286
    34.3400       248
    34.3600       278
    34.3800       252
    34.4000       302
    34.4200       308
    34.4400       316
    34.4600       354
    34.4800       342
    34.5000       362
    34.5200       352
    34.5400       398
    34.5600       342
    34.5800       336
    34.6000       354
    34.6200       332
    34.6400       332
    34.6600       326
    34.6800       326
    34.7000       312
    34.7200       306
    34.7400       290
    34.7600       314
    34.7800       274
    34.8000       278
    34.8200       278
    34.8400       276
    34.8600       274
    34.8800       258
    34.9000       276
    34.9200       256
    34.9400       280
    34.9600       274
    34.9800       288
    35.0000       280
    35.0200       258
    35.0400       284
    35.0600       302
    35.0800       288
    35.1000       340
    35.1200       346
    35.1400       344
    35.1600       322
    35.1800       324
    35.2000       260
    35.2200       278
    35.2400       264
    35.2600       284
    35.2800       244
    35.3000       230
    35.3200       240
    35.3400       230
    35.3600       242
    35.3800       274
    35.4000       250
    35.4200       218
    35.4400       248
    35.4600       222
    35.4800       226
    35.5000       220
    35.5200       264
    35.5400       250
    35.5600       248
    35.5800       264
    35.6000       234
    35.6200       252
    35.6400       290
    35.6600       272
    35.6800       276
    35.7000       280
    35.7200       274
    35.7400       318
    35.7600       292
    35.7800       328
    35.8000       334
    35.8200       368
    35.8400       308
    35.8600       360
    35.8800       402
    35.9000       394
    35.9200       358
    35.9400       404
    35.9600       452
    35.9800       484
    36.0000       490
    36.0200       576
    36.0400       578
    36.0600       624
    36.0800       676
    36.1000       772
    36.1200       816
    36.1400       858
    36.1600       836
    36.1800       832
    36.2000       772
    36.2200       780
    36.2400       682
    36.2600       634
    36.2800       560
    36.3000       544
    36.3200       470
    36.3400       430
    36.3600       384
    36.3800       384
    36.4000       340
    36.4200       336
    36.4400       362
    36.4600       328
    36.4800       366
    36.5000       374
    36.5200       346
    36.5400       382
    36.5600       420
    36.5800       426
    36.6000       470
    36.6200       476
    36.6400       540
    36.6600       612
    36.6800       606
    36.7000       706
    36.7200       734
    36.7400       834
    36.7600       986
    36.7800      1104
    36.8000      1302
    36.8200      1470
    36.8400      1636
    36.8600      1884
    36.8800      2066
    36.9000      2188
    36.9200      2200
    36.9400      2058
    36.9600      1916
    36.9800      1870
    37.0000      1652
    37.0200      1540
    37.0400      1356
    37.0600      1308
    37.0800      1226
    37.1000      1106
    37.1200      1140
    37.1400      1084
    37.1600      1062
    37.1800      1036
    37.2000      1054
    37.2200      1038
    37.2400       934
    37.2600       904
    37.2800       866
    37.3000       836
    37.3200       784
    37.3400       726
    37.3600       706
    37.3800       602
    37.4000       644
    37.4200       598
    37.4400       594
    37.4600       540
    37.4800       600
    37.5000       518
    37.5200       530
    37.5400       636
    37.5600       610
    37.5800       664
    37.6000       688
    37.6200       750
    37.6400       710
    37.6600       720
    37.6800       816
    37.7000       804
    37.7200       790
    37.7400       740
    37.7600       822
    37.7800       786
    37.8000       790
    37.8200       818
    37.8400       900
    37.8600       936
    37.8800       986
    37.9000      1060
    37.9200      1212
    37.9400      1426
    37.9600      1520
    37.9800      1732
    38.0000      1914
    38.0200      2068
    38.0400      2028
    38.0600      1998
    38.0800      2068
    38.1000      1922
    38.1200      1784
    38.1400      1674
    38.1600      1590
    38.1800      1468
    38.2000      1410
    38.2200      1314
    38.2400      1316
    38.2600      1340
    38.2800      1464
    38.3000      1614
    38.3200      1640
    38.3400      1840
    38.3600      2072
    38.3800      2384
    38.4000      2710
    38.4200      3140
    38.4400      3628
    38.4600      4024
    38.4800      4336
    38.5000      4504
    38.5200      4910
    38.5400      4970
    38.5600      4948
    38.5800      4914
    38.6000      4778
    38.6200      4874
    38.6400      4788
    38.6600      4764
    38.6800      4780
    38.7000      4786
    38.7200      4550
    38.7400      4470
    38.7600      4230
    38.7800      4048
    38.8000      3664
    38.8200      3320
    38.8400      2868
    38.8600      2602
    38.8800      2246
    38.9000      2006
    38.9200      1694
    38.9400      1496
    38.9600      1378
    38.9800      1152
    39.0000      1076
    39.0200      1096
    39.0400      1014
    39.0600       960
    39.0800       940
    39.1000       962
    39.1200       994
    39.1400       980
    39.1600      1002
    39.1800      1026
    39.2000      1066
    39.2200      1068
    39.2400      1170
    39.2600      1136
    39.2800      1144
    39.3000      1116
    39.3200      1084
    39.3400      1088
    39.3600      1090
    39.3800      1058
    39.4000      1162
    39.4200      1092
    39.4400      1060
    39.4600      1036
    39.4800      1012
    39.5000      1026
    39.5200      1084
    39.5400      1126
    39.5600      1254
    39.5800      1322
    39.6000      1436
    39.6200      1676
    39.6400      1902
    39.6600      2078
    39.6800      2364
    39.7000      2542
    39.7200      2488
    39.7400      2404
    39.7600      2290
    39.7800      2088
    39.8000      1880
    39.8200      1752
    39.8400      1572
    39.8600      1364
    39.8800      1150
    39.9000      1010
    39.9200       914
    39.9400       728
    39.9600       744
    39.9800       654
    40.0000       666
    40.0200       576
    40.0400       642
    40.0600       630
    40.0800       584
    40.1000       610
    40.1200       556
    40.1400       632
    40.1600       656
    40.1800       638
    40.2000       652
    40.2200       608
    40.2400       682
    40.2600       716
    40.2800       718
    40.3000       680
    40.3200       700
    40.3400       704
    40.3600       722
    40.3800       812
    40.4000       870
    40.4200       886
    40.4400       910
    40.4600      1044
    40.4800      1030
    40.5000      1236
    40.5200      1260
    40.5400      1414
    40.5600      1504
    40.5800      1546
    40.6000      1512
    40.6200      1584
    40.6400      1518
    40.6600      1480
    40.6800      1430
    40.7000      1308
    40.7200      1254
    40.7400      1070
    40.7600      1028
    40.7800       896
    40.8000       810
    40.8200       744
    40.8400       690
    40.8600       700
    40.8800       598
    40.9000       576
    40.9200       608
    40.9400       582
    40.9600       572
    40.9800       586
    41.0000       608
    41.0200       654
    41.0400       698
    41.0600       746
    41.0800       750
    41.1000       850
    41.1200       976
    41.1400      1028
    41.1600      1142
    41.1800      1332
    41.2000      1486
    41.2200      1582
    41.2400      1716
    41.2600      1906
    41.2800      1988
    41.3000      2024
    41.3200      2012
    41.3400      1984
    41.3600      1940
    41.3800      1834
    41.4000      1888
    41.4200      1708
    41.4400      1596
    41.4600      1510
    41.4800      1468
    41.5000      1358
    41.5200      1230
    41.5400      1158
    41.5600      1082
    41.5800      1070
    41.6000       996
    41.6200       940
    41.6400       928
    41.6600       848
    41.6800       906
    41.7000       886
    41.7200       938
    41.7400       986
    41.7600      1010
    41.7800      1124
    41.8000      1158
    41.8200      1422
    41.8400      1512
    41.8600      1634
    41.8800      1808
    41.9000      1850
    41.9200      1920
    41.9400      1902
    41.9600      1782
    41.9800      1728
    42.0000      1606
    42.0200      1414
    42.0400      1316
    42.0600      1196
    42.0800      1102
    42.1000       856
    42.1200       832
    42.1400       666
    42.1600       644
    42.1800       562
    42.2000       550
    42.2200       494
    42.2400       442
    42.2600       492
    42.2800       464
    42.3000       412
    42.3200       364
    42.3400       356
    42.3600       366
    42.3800       368
    42.4000       374
    42.4200       324
    42.4400       334
    42.4600       362
    42.4800       316
    42.5000       328
    42.5200       334
    42.5400       326
    42.5600       338
    42.5800       344
    42.6000       330
    42.6200       362
    42.6400       304
    42.6600       316
    42.6800       332
    42.7000       318
    42.7200       330
    42.7400       318
    42.7600       300
    42.7800       338
    42.8000       376
    42.8200       396
    42.8400       368
    42.8600       398
    42.8800       434
    42.9000       440
    42.9200       464
    42.9400       454
    42.9600       488
    42.9800       592
    43.0000       634
    43.0200       700
    43.0400       736
    43.0600       890
    43.0800       932
    43.1000      1136
    43.1200      1338
    43.1400      1470
    43.1600      1670
    43.1800      1808
    43.2000      1890
    43.2200      1916
    43.2400      1840
    43.2600      1844
    43.2800      1644
    43.3000      1582
    43.3200      1552
    43.3400      1434
    43.3600      1250
    43.3800      1122
    43.4000       952
    43.4200       864
    43.4400       766
    43.4600       698
    43.4800       626
    43.5000       634
    43.5200       568
    43.5400       454
    43.5600       488
    43.5800       468
    43.6000       504
    43.6200       492
    43.6400       468
    43.6600       448
    43.6800       492
    43.7000       530
    43.7200       528
    43.7400       602
    43.7600       588
    43.7800       646
    43.8000       694
    43.8200       692
    43.8400       694
    43.8600       630
    43.8800       694
    43.9000       652
    43.9200       650
    43.9400       682
    43.9600       608
    43.9800       540
    44.0000       532
    44.0200       506
    44.0400       478
    44.0600       460
    44.0800       436
    44.1000       422
    44.1200       392
    44.1400       370
    44.1600       376
    44.1800       390
    44.2000       384
    44.2200       354
    44.2400       374
    44.2600       352
    44.2800       348
    44.3000       340
    44.3200       386
    44.3400       398
    44.3600       338
    44.3800       346
    44.4000       330
    44.4200       358
    44.4400       370
    44.4600       354
    44.4800       372
    44.5000       336
    44.5200       382
    44.5400       346
    44.5600       382
    44.5800       380
    44.6000       392
    44.6200       426
    44.6400       416
    44.6600       432
    44.6800       464
    44.7000       460
    44.7200       476
    44.7400       472
    44.7600       502
    44.7800       552
    44.8000       642
    44.8200       720
    44.8400       764
    44.8600       814
    44.8800       882
    44.9000      1014
    44.9200      1188
    44.9400      1330
    44.9600      1430
    44.9800      1572
    45.0000      1688
    45.0200      1918
    45.0400      2018
    45.0600      2078
    45.0800      2184
    45.1000      2190
    45.1200      2212
    45.1400      2176
    45.1600      2162
    45.1800      2140
    45.2000      2010
    45.2200      1984
    45.2400      1900
    45.2600      1712
    45.2800      1702
    45.3000      1596
    45.3200      1466
    45.3400      1344
    45.3600      1246
    45.3800      1234
    45.4000      1112
    45.4200      1076
    45.4400      1032
    45.4600      1000
    45.4800       942
    45.5000       876
    45.5200       864
    45.5400       806
    45.5600       796
    45.5800       764
    45.6000       742
    45.6200       722
    45.6400       740
    45.6600       784
    45.6800       760
    45.7000       802
    45.7200       700
    45.7400       740
    45.7600       782
    45.7800       784
    45.8000       768
    45.8200       838
    45.8400       892
    45.8600       758
    45.8800       838
    45.9000       760
    45.9200       764
    45.9400       732
    45.9600       668
    45.9800       608
    46.0000       622
    46.0200       672
    46.0400       614
    46.0600       622
    46.0800       616
    46.1000       606
    46.1200       610
    46.1400       598
    46.1600       646
    46.1800       704
    46.2000       644
    46.2200       696
    46.2400       744
    46.2600       770
    46.2800       842
    46.3000       870
    46.3200       968
    46.3400       936
    46.3600      1114
    46.3800      1134
    46.4000      1300
    46.4200      1444
    46.4400      1444
    46.4600      1704
    46.4800      1996
    46.5000      2100
    46.5200      2476
    46.5400      2818
    46.5600      3324
    46.5800      3742
    46.6000      4520
    46.6200      5154
    46.6400      5806
    46.6600      6608
    46.6800      7420
    46.7000      8048
    46.7200      8228
    46.7400      8320
    46.7600      8174
    46.7800      7568
    46.8000      7146
    46.8200      6574
    46.8400      6166
    46.8600      5388
    46.8800      4830
    46.9000      4382
    46.9200      3680
    46.9400      3120
    46.9600      2630
    46.9800      2346
    47.0000      2014
    47.0200      1838
    47.0400      1644
    47.0600      1446
    47.0800      1352
    47.1000      1306
    47.1200      1142
    47.1400      1030
    47.1600       968
    47.1800       866
    47.2000       812
    47.2200       798
    47.2400       744
    47.2600       678
    47.2800       646
    47.3000       604
    47.3200       596
    47.3400       584
    47.3600       484
    47.3800       514
    47.4000       500
    47.4200       484
    47.4400       510
    47.4600       442
    47.4800       436
    47.5000       434
    47.5200       420
    47.5400       404
    47.5600       418
    47.5800       420
    47.6000       400
    47.6200       454
    47.6400       436
    47.6600       434
    47.6800       456
    47.7000       510
    47.7200       528
    47.7400       538
    47.7600       596
    47.7800       650
    47.8000       678
    47.8200       758
    47.8400       778
    47.8600       754
    47.8800       788
    47.9000       740
    47.9200       804
    47.9400       728
    47.9600       710
    47.9800       672
    48.0000       702
    48.0200       656
    48.0400       658
    48.0600       668
    48.0800       674
    48.1000       646
    48.1200       682
    48.1400       720
    48.1600       816
    48.1800       806
    48.2000       834
    48.2200       872
    48.2400       894
    48.2600       962
    48.2800       970
    48.3000       864
    48.3200       840
    48.3400       872
    48.3600       882
    48.3800       944
    48.4000       912
    48.4200       918
    48.4400       960
    48.4600       984
    48.4800      1096
    48.5000      1104
    48.5200      1196
    48.5400      1292
    48.5600      1286
    48.5800      1368
    48.6000      1406
    48.6200      1404
    48.6400      1440
    48.6600      1356
    48.6800      1338
    48.7000      1382
    48.7200      1280
    48.7400      1172
    48.7600      1082
    48.7800      1150
    48.8000       976
    48.8200       960
    48.8400       892
    48.8600       786
    48.8800       740
    48.9000       628
    48.9200       626
    48.9400       528
    48.9600       544
    48.9800       474
    49.0000       456
    49.0200       422
    49.0400       418
    49.0600       390
    49.0800       370
    49.1000       346
    49.1200       312
    49.1400       306
    49.1600       324
    49.1800       314
    49.2000       296
    49.2200       292
    49.2400       306
    49.2600       310
    49.2800       316
    49.3000       292
    49.3200       278
    49.3400       274
    49.3600       300
    49.3800       302
    49.4000       278
    49.4200       252
    49.4400       286
    49.4600       268
    49.4800       306
    49.5000       300
    49.5200       296
    49.5400       286
    49.5600       270
    49.5800       294
    49.6000       304
    49.6200       326
    49.6400       300
    49.6600       328
    49.6800       342
    49.7000       334
    49.7200       318
    49.7400       328
    49.7600       322
    49.7800       324
    49.8000       358
    49.8200       320
    49.8400       338
    49.8600       348
    49.8800       368
    49.9000       344
    49.9200       396
    49.9400       390
    49.9600       432
    49.9800       426
    50.0000       490
    50.0200       468
    50.0400       542
    50.0600       556
    50.0800       612
    50.1000       642
    50.1200       700
    50.1400       788
    50.1600       914
    50.1800       936
    50.2000      1020
    50.2200      1118
    50.2400      1196
    50.2600      1314
    50.2800      1390
    50.3000      1536
    50.3200      1574
    50.3400      1652
    50.3600      1584
    50.3800      1630
    50.4000      1488
    50.4200      1524
    50.4400      1416
    50.4600      1352
    50.4800      1312
    50.5000      1240
    50.5200      1196
    50.5400      1122
    50.5600      1130
    50.5800      1040
    50.6000       998
    50.6200      1060
    50.6400       986
    50.6600       986
    50.6800       982
    50.7000      1062
    50.7200      1122
    50.7400      1136
    50.7600      1192
    50.7800      1210
    50.8000      1286
    50.8200      1360
    50.8400      1352
    50.8600      1360
    50.8800      1368
    50.9000      1368
    50.9200      1356
    50.9400      1302
    50.9600      1376
    50.9800      1220
    51.0000      1118
    51.0200      1056
    51.0400       982
    51.0600       962
    51.0800       894
    51.1000       894
    51.1200       768
    51.1400       742
    51.1600       684
    51.1800       682
    51.2000       674
    51.2200       580
    51.2400       634
    51.2600       632
    51.2800       668
    51.3000       762
    51.3200       750
    51.3400       788
    51.3600       784
    51.3800       776
    51.4000       736
    51.4200       804
    51.4400       854
    51.4600       816
    51.4800       822
    51.5000       774
    51.5200       810
    51.5400       758
    51.5600       794
    51.5800       790
    51.6000       776
    51.6200       788
    51.6400       764
    51.6600       766
    51.6800       848
    51.7000       828
    51.7200       852
    51.7400       920
    51.7600      1064
    51.7800      1044
    51.8000      1158
    51.8200      1168
    51.8400      1322
    51.8600      1312
    51.8800      1430
    51.9000      1454
    51.9200      1520
    51.9400      1454
    51.9600      1414
    51.9800      1424
    52.0000      1422
    52.0200      1466
    52.0400      1446
    52.0600      1294
    52.0800      1278
    52.1000      1214
    52.1200      1020
    52.1400       962
    52.1600       966
    52.1800       886
    52.2000       846
    52.2200       788
    52.2400       722
    52.2600       746
    52.2800       692
    52.3000       670
    52.3200       684
    52.3400       684
    52.3600       680
    52.3800       680
    52.4000       714
    52.4200       742
    52.4400       822
    52.4600       836
    52.4800       912
    52.5000      1052
    52.5200      1156
    52.5400      1186
    52.5600      1268
    52.5800      1340
    52.6000      1452
    52.6200      1390
    52.6400      1504
    52.6600      1494
    52.6800      1476
    52.7000      1402
    52.7200      1338
    52.7400      1384
    52.7600      1256
    52.7800      1172
    52.8000      1114
    52.8200      1092
    52.8400      1036
    52.8600      1008
    52.8800       878
    52.9000       818
    52.9200       768
    52.9400       752
    52.9600       686
    52.9800       728
    53.0000       736
    53.0200       764
    53.0400       736
    53.0600       736
    53.0800       770
    53.1000       866
    53.1200       884
    53.1400       962
    53.1600      1072
    53.1800      1148
    53.2000      1258
    53.2200      1390
    53.2400      1628
    53.2600      1630
    53.2800      1728
    53.3000      1754
    53.3200      1772
    53.3400      1686
    53.3600      1468
    53.3800      1504
    53.4000      1460
    53.4200      1354
    53.4400      1238
    53.4600      1198
    53.4800      1124
    53.5000      1004
    53.5200       868
    53.5400       838
    53.5600       774
    53.5800       718
    53.6000       620
    53.6200       624
    53.6400       590
    53.6600       586
    53.6800       544
    53.7000       530
    53.7200       500
    53.7400       534
    53.7600       500
    53.7800       448
    53.8000       476
    53.8200       462
    53.8400       438
    53.8600       418
    53.8800       412
    53.9000       374
    53.9200       416
    53.9400       376
    53.9600       370
    53.9800       392
    54.0000       374
    54.0200       382
    54.0400       354
    54.0600       360
    54.0800       430
    54.1000       382
    54.1200       408
    54.1400       400
    54.1600       412
    54.1800       368
    54.2000       464
    54.2200       456
    54.2400       428
    54.2600       458
    54.2800       446
    54.3000       462
    54.3200       468
    54.3400       474
    54.3600       482
    54.3800       470
    54.4000       472
    54.4200       540
    54.4400       500
    54.4600       552
    54.4800       540
    54.5000       546
    54.5200       562
    54.5400       618
    54.5600       592
    54.5800       630
    54.6000       702
    54.6200       704
    54.6400       718
    54.6600       752
    54.6800       810
    54.7000       836
    54.7200       896
    54.7400       892
    54.7600       876
    54.7800       930
    54.8000       932
    54.8200       854
    54.8400       850
    54.8600       824
    54.8800       818
    54.9000       824
    54.9200       790
    54.9400       870
    54.9600       796
    54.9800       848
    55.0000       808
    55.0200       926
    55.0400       834
    55.0600       886
    55.0800       860
    55.1000       924
    55.1200       986
    55.1400      1010
    55.1600      1048
    55.1800      1026
    55.2000      1122
    55.2200      1104
    55.2400      1084
    55.2600      1098
    55.2800      1112
    55.3000      1024
    55.3200       904
    55.3400       958
    55.3600       928
    55.3800       820
    55.4000       818
    55.4200       724
    55.4400       716
    55.4600       698
    55.4800       648
    55.5000       590
    55.5200       588
    55.5400       556
    55.5600       506
    55.5800       498
    55.6000       492
    55.6200       458
    55.6400       442
    55.6600       444
    55.6800       422
    55.7000       424
    55.7200       410
    55.7400       400
    55.7600       382
    55.7800       394
    55.8000       374
    55.8200       402
    55.8400       422
    55.8600       366
    55.8800       350
    55.9000       372
    55.9200       366
    55.9400       342
    55.9600       358
    55.9800       328
    56.0000       320
    56.0200       298
    56.0400       296
    56.0600       306
    56.0800       310
    56.1000       292
    56.1200       284
    56.1400       298
    56.1600       276
    56.1800       280
    56.2000       294
    56.2200       286
    56.2400       294
    56.2600       326
    56.2800       292
    56.3000       318
    56.3200       284
    56.3400       286
    56.3600       292
    56.3800       300
    56.4000       322
    56.4200       300
    56.4400       310
    56.4600       288
    56.4800       326
    56.5000       334
    56.5200       370
    56.5400       344
    56.5600       362
    56.5800       378
    56.6000       354
    56.6200       386
    56.6400       334
    56.6600       370
    56.6800       428
    56.7000       414
    56.7200       402
    56.7400       440
    56.7600       448
    56.7800       480
    56.8000       468
    56.8200       460
    56.8400       488
    56.8600       484
    56.8800       462
    56.9000       484
    56.9200       460
    56.9400       466
    56.9600       496
    56.9800       462
    57.0000       440
    57.0200       452
    57.0400       434
    57.0600       524
    57.0800       480
    57.1000       516
    57.1200       544
    57.1400       524
    57.1600       630
    57.1800       690
    57.2000       688
    57.2200       670
    57.2400       838
    57.2600       968
    57.2800      1050
    57.3000      1146
    57.3200      1266
    57.3400      1434
    57.3600      1458
    57.3800      1580
    57.4000      1720
    57.4200      1656
    57.4400      1616
    57.4600      1600
    57.4800      1614
    57.5000      1546
    57.5200      1506
    57.5400      1498
    57.5600      1454
    57.5800      1328
    57.6000      1400
    57.6200      1352
    57.6400      1432
    57.6600      1408
    57.6800      1486
    57.7000      1522
    57.7200      1500
    57.7400      1632
    57.7600      1632
    57.7800      1626
    57.8000      1596
    57.8200      1448
    57.8400      1466
    57.8600      1450
    57.8800      1314
    57.9000      1264
    57.9200      1152
    57.9400      1182
    57.9600      1110
    57.9800      1050
    58.0000       988
    58.0200       866
    58.0400       828
    58.0600       786
    58.0800       804
    58.1000       720
    58.1200       690
    58.1400       772
    58.1600       794
    58.1800       760
    58.2000       760
    58.2200       842
    58.2400       826
    58.2600       904
    58.2800       956
    58.3000       946
    58.3200      1060
    58.3400      1080
    58.3600      1190
    58.3800      1256
    58.4000      1312
    58.4200      1506
    58.4400      1548
    58.4600      1656
    58.4800      1780
    58.5000      1844
    58.5200      1980
    58.5400      2084
    58.5600      2144
    58.5800      2258
    58.6000      2294
    58.6200      2400
    58.6400      2528
    58.6600      2616
    58.6800      2928
    58.7000      2880
    58.7200      3090
    58.7400      3044
    58.7600      3150
    58.7800      3100
    58.8000      2916
    58.8200      2862
    58.8400      2830
    58.8600      2668
    58.8800      2558
    58.9000      2482
    58.9200      2276
    58.9400      2040
    58.9600      1902
    58.9800      1796
    59.0000      1604
    59.0200      1530
    59.0400      1358
    59.0600      1256
    59.0800      1182
    59.1000      1012
    59.1200       972
    59.1400       872
    59.1600       826
    59.1800       816
    59.2000       778
    59.2200       758
    59.2400       766
    59.2600       724
    59.2800       764
    59.3000       788
    59.3200       766
    59.3400       858
    59.3600       844
    59.3800       862
    59.4000       860
    59.4200       914
    59.4400       956
    59.4600       948
    59.4800       992
    59.5000      1028
    59.5200       940
    59.5400       984
    59.5600      1008
    59.5800       984
    59.6000      1002
    59.6200       980
    59.6400      1046
    59.6600      1016
    59.6800       958
    59.7000      1004
    59.7200       956
    59.7400      1056
    59.7600       962
    59.7800       976
    59.8000       920
    59.8200       946
    59.8400       920
    59.8600       918
    59.8800       854
    59.9000       850
    59.9200       858
    59.9400       826
    59.9600       770
    59.9800       778
    60.0000       722
    60.0200       738
    60.0400       632
    60.0600       642
    60.0800       584
    60.1000       572
    60.1200       504
    60.1400       514
    60.1600       532
    60.1800       434
    60.2000       430
    60.2200       424
    60.2400       414
    60.2600       410
    60.2800       408
    60.3000       382
    60.3200       358
    60.3400       394
    60.3600       352
    60.3800       354
    60.4000       362
    60.4200       368
    60.4400       350
    60.4600       356
    60.4800       310
    60.5000       368
    60.5200       320
    60.5400       362
    60.5600       374
    60.5800       354
    60.6000       358
    60.6200       352
    60.6400       390
    60.6600       384
    60.6800       384
    60.7000       396
    60.7200       432
    60.7400       414
    60.7600       436
    60.7800       416
    60.8000       420
    60.8200       480
    60.8400       460
    60.8600       472
    60.8800       500
    60.9000       478
    60.9200       532
    60.9400       488
    60.9600       560
    60.9800       546
    61.0000       546
    61.0200       542
    61.0400       602
    61.0600       606
    61.0800       628
    61.1000       718
    61.1200       744
    61.1400       718
    61.1600       768
    61.1800       786
    61.2000       736
    61.2200       782
    61.2400       750
    61.2600       848
    61.2800       752
    61.3000       798
    61.3200       876
    61.3400       806
    61.3600       800
    61.3800       836
    61.4000       822
    61.4200       848
    61.4400       842
    61.4600       886
    61.4800       918
    61.5000       900
    61.5200       942
    61.5400       948
    61.5600       948
    61.5800       888
    61.6000       880
    61.6200       868
    61.6400       886
    61.6600       808
    61.6800       834
    61.7000       812
    61.7200       808
    61.7400       784
    61.7600       724
    61.7800       732
    61.8000       656
    61.8200       610
    61.8400       662
    61.8600       630
    61.8800       588
    61.9000       548
    61.9200       620
    61.9400       586
    61.9600       550
    61.9800       578
    62.0000       506
    62.0200       572
    62.0400       588
    62.0600       524
    62.0800       552
    62.1000       544
    62.1200       566
    62.1400       536
    62.1600       576
    62.1800       564
    62.2000       584
    62.2200       510
    62.2400       534
    62.2600       526
    62.2800       500
    62.3000       550
    62.3200       506
    62.3400       504
    62.3600       480
    62.3800       474
    62.4000       492
    62.4200       458
    62.4400       410
    62.4600       428
    62.4800       420
    62.5000       428
    62.5200       382
    62.5400       402
    62.5600       400
    62.5800       420
    62.6000       406
    62.6200       396
    62.6400       410
    62.6600       388
    62.6800       404
    62.7000       380
    62.7200       392
    62.7400       416
    62.7600       406
    62.7800       364
    62.8000       388
    62.8200       374
    62.8400       392
    62.8600       368
    62.8800       390
    62.9000       358
    62.9200       348
    62.9400       368
    62.9600       288
    62.9800       324
    63.0000       346
    63.0200       288
    63.0400       294
    63.0600       292
    63.0800       316
    63.1000       284
    63.1200       262
    63.1400       226
    63.1600       286
    63.1800       240
    63.2000       232
    63.2200       226
    63.2400       244
    63.2600       246
    63.2800       270
    63.3000       258
    63.3200       248
    63.3400       242
    63.3600       246
    63.3800       238
    63.4000       240
    63.4200       240
    63.4400       280
    63.4600       244
    63.4800       252
    63.5000       290
    63.5200       282
    63.5400       296
    63.5600       316
    63.5800       288
    63.6000       342
    63.6200       320
    63.6400       342
    63.6600       366
    63.6800       366
    63.7000       378
    63.7200       404
    63.7400       422
    63.7600       440
    63.7800       482
    63.8000       498
    63.8200       574
    63.8400       602
    63.8600       612
    63.8800       628
    63.9000       638
    63.9200       656
    63.9400       608
    63.9600       584
    63.9800       566
    64.0000       576
    64.0200       568
    64.0400       534
    64.0600       530
    64.0800       534
    64.1000       498
    64.1200       482
    64.1400       432
    64.1600       418
    64.1800       412
    64.2000       384
    64.2200       406
    64.2400       372
    64.2600       354
    64.2800       346
    64.3000       304
    64.3200       354
    64.3400       254
    64.3600       256
    64.3800       298
    64.4000       286
    64.4200       296
    64.4400       296
    64.4600       284
    64.4800       258
    64.5000       264
    64.5200       278
    64.5400       250
    64.5600       224
    64.5800       226
    64.6000       220
    64.6200       252
    64.6400       240
    64.6600       242
    64.6800       206
    64.7000       204
    64.7200       216
    64.7400       262
    64.7600       232
    64.7800       226
    64.8000       246
    64.8200       236
    64.8400       236
    64.8600       250
    64.8800       202
    64.9000       238
    64.9200       276
    64.9400       238
    64.9600       254
    64.9800       278
    65.0000       282
    65.0200       284
    65.0400       304
    65.0600       280
    65.0800       280
    65.1000       320
    65.1200       306
    65.1400       354
    65.1600       354
    65.1800       382
    65.2000       372
    65.2200       370
    65.2400       428
    65.2600       410
    65.2800       422
    65.3000       384
    65.3200       406
    65.3400       422
    65.3600       436
    65.3800       450
    65.4000       428
    65.4200       456
    65.4400       426
    65.4600       392
    65.4800       464
    65.5000       406
    65.5200       430
    65.5400       408
    65.5600       386
    65.5800       386
    65.6000       404
    65.6200       388
    65.6400       356
    65.6600       366
    65.6800       326
    65.7000       344
    65.7200       346
    65.7400       312
    65.7600       342
    65.7800       312
    65.8000       320
    65.8200       282
    65.8400       260
    65.8600       300
    65.8800       266
    65.9000       304
    65.9200       280
    65.9400       242
    65.9600       248
    65.9800       246
    66.0000       282
    66.0200       256
    66.0400       278
    66.0600       208
    66.0800       208
    66.1000       262
    66.1200       242
    66.1400       240
    66.1600       248
    66.1800       230
    66.2000       252
    66.2200       262
    66.2400       238
    66.2600       230
    66.2800       230
    66.3000       260
    66.3200       248
    66.3400       268
    66.3600       266
    66.3800       286
    66.4000       288
    66.4200       314
    66.4400       308
    66.4600       298
    66.4800       322
    66.5000       330
    66.5200       366
    66.5400       342
    66.5600       368
    66.5800       416
    66.6000       408
    66.6200       408
    66.6400       446
    66.6600       516
    66.6800       532
    66.7000       580
    66.7200       604
    66.7400       634
    66.7600       674
    66.7800       708
    66.8000       728
    66.8200       804
    66.8400       806
    66.8600       894
    66.8800       882
    66.9000       886
    66.9200       916
    66.9400       896
    66.9600       862
    66.9800       956
    67.0000       910
    67.0200       864
    67.0400       812
    67.0600       778
    67.0800       768
    67.1000       782
    67.1200       660
    67.1400       666
    67.1600       620
    67.1800       574
    67.2000       618
    67.2200       524
    67.2400       486
    67.2600       456
    67.2800       454
    67.3000       372
    67.3200       430
    67.3400       396
    67.3600       360
    67.3800       330
    67.4000       388
    67.4200       338
    67.4400       330
    67.4600       302
    67.4800       292
    67.5000       308
    67.5200       318
    67.5400       320
    67.5600       288
    67.5800       264
    67.6000       312
    67.6200       298
    67.6400       282
    67.6600       322
    67.6800       288
    67.7000       280
    67.7200       324
    67.7400       332
    67.7600       326
    67.7800       334
    67.8000       312
    67.8200       372
    67.8400       390
    67.8600       390
    67.8800       430
    67.9000       412
    67.9200       458
    67.9400       504
    67.9600       526
    67.9800       576
    68.0000       608
    68.0200       700
    68.0400       712
    68.0600       822
    68.0800       844
    68.1000       908
    68.1200      1080
    68.1400      1146
    68.1600      1124
    68.1800      1144
    68.2000      1200
    68.2200      1224
    68.2400      1238
    68.2600      1236
    68.2800      1244
    68.3000      1158
    68.3200      1172
    68.3400      1180
    68.3600      1118
    68.3800      1104
    68.4000      1008
    68.4200       960
    68.4400       926
    68.4600       858
    68.4800       826
    68.5000       808
    68.5200       752
    68.5400       696
    68.5600       688
    68.5800       608
    68.6000       590
    68.6200       586
    68.6400       544
    68.6600       460
    68.6800       490
    68.7000       444
    68.7200       410
    68.7400       466
    68.7600       386
    68.7800       414
    68.8000       394
    68.8200       358
    68.8400       342
    68.8600       338
    68.8800       374
    68.9000       356
    68.9200       324
    68.9400       334
    68.9600       318
    68.9800       294
    69.0000       324
    69.0200       294
    69.0400       286
    69.0600       336
    69.0800       316
    69.1000       344
    69.1200       314
    69.1400       368
    69.1600       290
    69.1800       340
    69.2000       352
    69.2200       344
    69.2400       362
    69.2600       360
    69.2800       370
    69.3000       418
    69.3200       464
    69.3400       416
    69.3600       470
    69.3800       474
    69.4000       532
    69.4200       554
    69.4400       514
    69.4600       528
    69.4800       510
    69.5000       522
    69.5200       496
    69.5400       478
    69.5600       498
    69.5800       458
    69.6000       486
    69.6200       414
    69.6400       416
    69.6600       444
    69.6800       410
    69.7000       398
    69.7200       422
    69.7400       358
    69.7600       346
    69.7800       356
    69.8000       368
    69.8200       318
    69.8400       362
    69.8600       336
    69.8800       312
    69.9000       310
    69.9200       328
    69.9400       300
    69.9600       288
    69.9800       320
    70.0000       312
    70.0200       308
    70.0400       256
    70.0600       278
    70.0800       302
    70.1000       268
    70.1200       274
    70.1400       314
    70.1600       252
    70.1800       252
    70.2000       236
    70.2200       228
    70.2400       244
    70.2600       256
    70.2800       226
    70.3000       222
    70.3200       216
    70.3400       230
    70.3600       220
    70.3800       210
    70.4000       210
    70.4200       226
    70.4400       196
    70.4600       206
    70.4800       196
    70.5000       204
    70.5200       242
    70.5400       224
    70.5600       238
    70.5800       256
    70.6000       250
    70.6200       248
    70.6400       222
    70.6600       238
    70.6800       242
    70.7000       220
    70.7200       242
    70.7400       238
    70.7600       246
    70.7800       230
    70.8000       222
    70.8200       214
    70.8400       216
    70.8600       204
    70.8800       220
    70.9000       228
    70.9200       230
    70.9400       220
    70.9600       216
    70.9800       222
    71.0000       194
    71.0200       212
    71.0400       200
    71.0600       244
    71.0800       218
    71.1000       202
    71.1200       228
    71.1400       226
    71.1600       268
    71.1800       282
    71.2000       268
    71.2200       250
    71.2400       278
    71.2600       294
    71.2800       290
    71.3000       288
    71.3200       324
    71.3400       380
    71.3600       350
    71.3800       428
    71.4000       438
    71.4200       450
    71.4400       474
    71.4600       496
    71.4800       550
    71.5000       598
    71.5200       572
    71.5400       610
    71.5600       658
    71.5800       576
    71.6000       566
    71.6200       572
    71.6400       604
    71.6600       586
    71.6800       590
    71.7000       590
    71.7200       610
    71.7400       562
    71.7600       566
    71.7800       576
    71.8000       554
    71.8200       534
    71.8400       500
    71.8600       474
    71.8800       496
    71.9000       478
    71.9200       494
    71.9400       472
    71.9600       436
    71.9800       462
    72.0000       428
    72.0200       438
    72.0400       408
    72.0600       432
    72.0800       442
    72.1000       418
    72.1200       424
    72.1400       398
    72.1600       466
    72.1800       432
    72.2000       466
    72.2200       466
    72.2400       514
    72.2600       502
    72.2800       528
    72.3000       502
    72.3200       526
    72.3400       540
    72.3600       534
    72.3800       576
    72.4000       550
    72.4200       550
    72.4400       516
    72.4600       550
    72.4800       562
    72.5000       518
    72.5200       556
    72.5400       554
    72.5600       560
    72.5800       520
    72.6000       570
    72.6200       476
    72.6400       500
    72.6600       512
    72.6800       510
    72.7000       508
    72.7200       462
    72.7400       462
    72.7600       476
    72.7800       492
    72.8000       486
    72.8200       472
    72.8400       482
    72.8600       458
    72.8800       448
    72.9000       472
    72.9200       422
    72.9400       422
    72.9600       440
    72.9800       402
    73.0000       378
    73.0200       382
    73.0400       352
    73.0600       330
    73.0800       348
    73.1000       358
    73.1200       378
    73.1400       314
    73.1600       298
    73.1800       322
    73.2000       302
    73.2200       286
    73.2400       288
    73.2600       278
    73.2800       276
    73.3000       228
    73.3200       290
    73.3400       248
    73.3600       234
    73.3800       216
    73.4000       252
    73.4200       230
    73.4400       248
    73.4600       218
    73.4800       230
    73.5000       258
    73.5200       226
    73.5400       238
    73.5600       220
    73.5800       234
    73.6000       240
    73.6200       222
    73.6400       204
    73.6600       216
    73.6800       188
    73.7000       230
    73.7200       264
    73.7400       240
    73.7600       218
    73.7800       232
    73.8000       228
    73.8200       206
    73.8400       222
    73.8600       244
    73.8800       244
    73.9000       252
    73.9200       274
    73.9400       260
    73.9600       250
    73.9800       232
    74.0000       272
    74.0200       272
    74.0400       278
    74.0600       258
    74.0800       278
    74.1000       304
    74.1200       314
    74.1400       294
    74.1600       334
    74.1800       306
    74.2000       306
    74.2200       264
    74.2400       264
    74.2600       262
    74.2800       252
    74.3000       278
    74.3200       308
    74.3400       252
    74.3600       230
    74.3800       242
    74.4000       206
    74.4200       238
    74.4400       228
    74.4600       218
    74.4800       234
    74.5000       212
    74.5200       218
    74.5400       200
    74.5600       182
    74.5800       220
    74.6000       194
    74.6200       210
    74.6400       202
    74.6600       186
    74.6800       224
    74.7000       184
    74.7200       192
    74.7400       168
    74.7600       180
    74.7800       198
    74.8000       192
    74.8200       184
    74.8400       168
    74.8600       170
    74.8800       168
    74.9000       160
    74.9200       176
    74.9400       176
    74.9600       190
    74.9800       200
    75.0000       182
    75.0200       216
    75.0400       230
    75.0600       206
    75.0800       198
    75.1000       228
    75.1200       208
    75.1400       198
    75.1600       240
    75.1800       240
    75.2000       242
    75.2200       230
    75.2400       248
    75.2600       234
    75.2800       244
    75.3000       212
    75.3200       286
    75.3400       262
    75.3600       272
    75.3800       236
    75.4000       246
    75.4200       238
    75.4400       250
    75.4600       244
    75.4800       228
    75.5000       230
    75.5200       234
    75.5400       230
    75.5600       220
    75.5800       296
    75.6000       254
    75.6200       242
    75.6400       216
    75.6600       258
    75.6800       234
    75.7000       248
    75.7200       258
    75.7400       224
    75.7600       246
    75.7800       242
    75.8000       228
    75.8200       232
    75.8400       254
    75.8600       214
    75.8800       254
    75.9000       276
    75.9200       240
    75.9400       244
    75.9600       232
    75.9800       212
    76.0000       220
    76.0200       270
    76.0400       262
    76.0600       240
    76.0800       260
    76.1000       248
    76.1200       240
    76.1400       264
    76.1600       234
    76.1800       258
    76.2000       260
    76.2200       244
    76.2400       284
    76.2600       280
    76.2800       304
    76.3000       280
    76.3200       308
    76.3400       316
    76.3600       330
    76.3800       294
    76.4000       338
    76.4200       358
    76.4400       332
    76.4600       352
    76.4800       352
    76.5000       370
    76.5200       330
    76.5400       426
    76.5600       374
    76.5800       382
    76.6000       388
    76.6200       384
    76.6400       402
    76.6600       436
    76.6800       398
    76.7000       388
    76.7200       418
    76.7400       438
    76.7600       414
    76.7800       438
    76.8000       400
    76.8200       406
    76.8400       426
    76.8600       390
    76.8800       370
    76.9000       390
    76.9200       354
    76.9400       330
    76.9600       362
    76.9800       318
    77.0000       366
    77.0200       308
    77.0400       314
    77.0600       306
    77.0800       326
    77.1000       302
    77.1200       352
    77.1400       310
    77.1600       296
    77.1800       294
    77.2000       292
    77.2200       334
    77.2400       368
    77.2600       298
    77.2800       356
    77.3000       354
    77.3200       366
    77.3400       384
    77.3600       396
    77.3800       398
    77.4000       430
    77.4200       450
    77.4400       504
    77.4600       484
    77.4800       500
    77.5000       664
    77.5200       608
    77.5400       652
    77.5600       706
    77.5800       718
    77.6000       738
    77.6200       804
    77.6400       804
    77.6600       806
    77.6800       884
    77.7000       850
    77.7200       842
    77.7400       814
    77.7600       772
    77.7800       788
    77.8000       768
    77.8200       800
    77.8400       768
    77.8600       790
    77.8800       704
    77.9000       750
    77.9200       740
    77.9400       692
    77.9600       606
    77.9800       604
    78.0000       602
    78.0200       542
    78.0400       540
    78.0600       502
    78.0800       480
    78.1000       464
    78.1200       412
    78.1400       430
    78.1600       406
    78.1800       376
    78.2000       392
    78.2200       350
    78.2400       344
    78.2600       332
    78.2800       326
    78.3000       362
    78.3200       342
    78.3400       324
    78.3600       342
    78.3800       336
    78.4000       356
    78.4200       342
    78.4400       400
    78.4600       362
    78.4800       388
    78.5000       384
    78.5200       402
    78.5400       376
    78.5600       450
    78.5800       408
    78.6000       378
    78.6200       416
    78.6400       414
    78.6600       404
    78.6800       418
    78.7000       422
    78.7200       408
    78.7400       408
    78.7600       444
    78.7800       414
    78.8000       428
    78.8200       414
    78.8400       396
    78.8600       388
    78.8800       356
    78.9000       328
    78.9200       364
    78.9400       360
    78.9600       354
    78.9800       334
    79.0000       354
    79.0200       334
    79.0400       294
    79.0600       290
    79.0800       296
    79.1000       312
    79.1200       288
    79.1400       302
    79.1600       286
    79.1800       294
    79.2000       286
    79.2200       252
    79.2400       270
    79.2600       254
    79.2800       266
    79.3000       254
    79.3200       268
    79.3400       268
    79.3600       242
    79.3800       264
    79.4000       282
    79.4200       248
    79.4400       248
    79.4600       242
    79.4800       250
    79.5000       264
    79.5200       230
    79.5400       246
    79.5600       284
    79.5800       262
    79.6000       280
    79.6200       260
    79.6400       246
    79.6600       246
    79.6800       266
    79.7000       278
    79.7200       286
    79.7400       300
    79.7600       278
    79.7800       268
    79.8000       242
    79.8200       272
    79.8400       258
    79.8600       250
    79.8800       238
    79.9000       264
    79.9200       262
    79.9400       262
    79.9600       228
    79.9800       240
    80.0000       258
    80.0200       246
    80.0400       248
    80.0600       282
    80.0800       240
    80.1000       240
    80.1200       226
    80.1400       242
    80.1600       236
    80.1800       258
    80.2000       238
    80.2200       244
    80.2400       276
    80.2600       216
    80.2800       220
    80.3000       272
    80.3200       266
    80.3400       282
    80.3600       254
    80.3800       280
    80.4000       244
    80.4200       314
    80.4400       284
    80.4600       304
    80.4800       298
    80.5000       306
    80.5200       306
    80.5400       310
    80.5600       292
    80.5800       294
    80.6000       284
    80.6200       290
    80.6400       308
    80.6600       276
    80.6800       274
    80.7000       322
    80.7200       300
    80.7400       274
    80.7600       268
    80.7800       274
    80.8000       228
    80.8200       266
    80.8400       270
    80.8600       254
    80.8800       248
    80.9000       258
    80.9200       262
    80.9400       226
    80.9600       238
    80.9800       204
    81.0000       208
    81.0200       222
    81.0400       258
    81.0600       206
    81.0800       244
    81.1000       240
    81.1200       260
    81.1400       208
    81.1600       242
    81.1800       242
    81.2000       254
    81.2200       208
    81.2400       238
    81.2600       236
    81.2800       250
    81.3000       216
    81.3200       250
    81.3400       266
    81.3600       260
    81.3800       258
    81.4000       272
    81.4200       254
    81.4400       248
    81.4600       222
    81.4800       234
    81.5000       252
    81.5200       254
    81.5400       238
    81.5600       258
    81.5800       254
    81.6000       256
    81.6200       310
    81.6400       264
    81.6600       254
    81.6800       274
    81.7000       258
    81.7200       276
    81.7400       258
    81.7600       306
    81.7800       262
    81.8000       308
    81.8200       276
    81.8400       294
    81.8600       322
    81.8800       302
    81.9000       294
    81.9200       334
    81.9400       332
    81.9600       318
    81.9800       300
    82.0000       320
    82.0200       296
    82.0400       316
    82.0600       300
    82.0800       310
    82.1000       326
    82.1200       348
    82.1400       318
    82.1600       326
    82.1800       350
    82.2000       326
    82.2200       310
    82.2400       338
    82.2600       324
    82.2800       334
    82.3000       328
    82.3200       356
    82.3400       314
    82.3600       378
    82.3800       338
    82.4000       360
    82.4200       358
    82.4400       340
    82.4600       340
    82.4800       362
    82.5000       362
    82.5200       364
    82.5400       338
    82.5600       384
    82.5800       396
    82.6000       370
    82.6200       386
    82.6400       412
    82.6600       410
    82.6800       438
    82.7000       460
    82.7200       508
    82.7400       470
    82.7600       492
    82.7800       518
    82.8000       530
    82.8200       546
    82.8400       510
    82.8600       578
    82.8800       524
    82.9000       562
    82.9200       558
    82.9400       554
    82.9600       548
    82.9800       550
    83.0000       542
    83.0200       522
    83.0400       546
    83.0600       484
    83.0800       500
    83.1000       516
    83.1200       476
    83.1400       526
    83.1600       490
    83.1800       502
    83.2000       496
    83.2200       466
    83.2400       474
    83.2600       466
    83.2800       412
    83.3000       422
    83.3200       424
    83.3400       432
    83.3600       424
    83.3800       394
    83.4000       392
    83.4200       444
    83.4400       388
    83.4600       374
    83.4800       400
    83.5000       376
    83.5200       362
    83.5400       360
    83.5600       362
    83.5800       342
    83.6000       338
    83.6200       346
    83.6400       322
    83.6600       330
    83.6800       342
    83.7000       322
    83.7200       330
    83.7400       286
    83.7600       290
    83.7800       286
    83.8000       294
    83.8200       328
    83.8400       278
    83.8600       304
    83.8800       310
    83.9000       294
    83.9200       278
    83.9400       312
    83.9600       242
    83.9800       304
    84.0000       258
    84.0200       278
    84.0400       300
    84.0600       282
    84.0800       314
    84.1000       314
    84.1200       328
    84.1400       320
    84.1600       342
    84.1800       316
    84.2000       288
    84.2200       298
    84.2400       296
    84.2600       290
    84.2800       324
    84.3000       320
    84.3200       314
    84.3400       320
    84.3600       320
    84.3800       342
    84.4000       318
    84.4200       314
    84.4400       294
    84.4600       344
    84.4800       264
    84.5000       282
    84.5200       312
    84.5400       322
    84.5600       296
    84.5800       296
    84.6000       294
    84.6200       298
    84.6400       284
    84.6600       310
    84.6800       304
    84.7000       272
    84.7200       254
    84.7400       304
    84.7600       272
    84.7800       288
    84.8000       290
    84.8200       254
    84.8400       288
    84.8600       266
    84.8800       272
    84.9000       252
    84.9200       258
    84.9400       260
    84.9600       284
    84.9800       238
    85.0000       252
    85.0200       206
    85.0400       270
    85.0600       238
    85.0800       236
    85.1000       252
    85.1200       220
    85.1400       228
    85.1600       222
    85.1800       252
    85.2000       242
    85.2200       208
    85.2400       218
    85.2600       218
    85.2800       216
    85.3000       252
    85.3200       256
    85.3400       220
    85.3600       232
    85.3800       266
    85.4000       248
    85.4200       240
    85.4400       278
    85.4600       270
    85.4800       298
    85.5000       274
    85.5200       278
    85.5400       286
    85.5600       286
    85.5800       310
    85.6000       296
    85.6200       274
    85.6400       312
    85.6600       314
    85.6800       298
    85.7000       322
    85.7200       296
    85.7400       248
    85.7600       250
    85.7800       258
    85.8000       262
    85.8200       296
    85.8400       318
    85.8600       294
    85.8800       266
    85.9000       276
    85.9200       264
    85.9400       264
    85.9600       260
    85.9800       282
    86.0000       254
    86.0200       250
    86.0400       234
    86.0600       262
    86.0800       240
    86.1000       244
    86.1200       240
    86.1400       236
    86.1600       190
    86.1800       212
    86.2000       238
    86.2200       210
    86.2400       216
    86.2600       236
    86.2800       222
    86.3000       218
    86.3200       216
    86.3400       200
    86.3600       212
    86.3800       236
    86.4000       210
    86.4200       224
    86.4400       228
    86.4600       204
    86.4800       222
    86.5000       202
    86.5200       226
    86.5400       240
    86.5600       234
    86.5800       218
    86.6000       244
    86.6200       222
    86.6400       246
    86.6600       248
    86.6800       268
    86.7000       248
    86.7200       244
    86.7400       290
    86.7600       278
    86.7800       276
    86.8000       278
    86.8200       278
    86.8400       330
    86.8600       320
    86.8800       326
    86.9000       290
    86.9200       350
    86.9400       370
    86.9600       356
    86.9800       350
    87.0000       362
    87.0200       360
    87.0400       336
    87.0600       376
    87.0800       348
    87.1000       326
    87.1200       344
    87.1400       340
    87.1600       354
    87.1800       308
    87.2000       316
    87.2200       330
    87.2400       336
    87.2600       310
    87.2800       338
    87.3000       366
    87.3200       314
    87.3400       314
    87.3600       306
    87.3800       296
    87.4000       284
    87.4200       342
    87.4400       274
    87.4600       318
    87.4800       316
    87.5000       316
    87.5200       292
    87.5400       332
    87.5600       306
    87.5800       298
    87.6000       294
    87.6200       298
    87.6400       362
    87.6600       332
    87.6800       342
    87.7000       334
    87.7200       330
    87.7400       384
    87.7600       370
    87.7800       380
    87.8000       360
    87.8200       368
    87.8400       426
    87.8600       400
    87.8800       380
    87.9000       378
    87.9200       402
    87.9400       386
    87.9600       410
    87.9800       406
    88.0000       382
    88.0200       378
    88.0400       382
    88.0600       444
    88.0800       404
    88.1000       430
    88.1200       428
    88.1400       404
    88.1600       412
    88.1800       390
    88.2000       420
    88.2200       406
    88.2400       436
    88.2600       420
    88.2800       370
    88.3000       400
    88.3200       422
    88.3400       450
    88.3600       430
    88.3800       468
    88.4000       410
    88.4200       438
    88.4400       426
    88.4600       422
    88.4800       404
    88.5000       406
    88.5200       370
    88.5400       434
    88.5600       376
    88.5800       394
    88.6000       424
    88.6200       392
    88.6400       416
    88.6600       378
    88.6800       368
    88.7000       378
    88.7200       384
    88.7400       376
    88.7600       350
    88.7800       342
    88.8000       332
    88.8200       338
    88.8400       346
    88.8600       346
    88.8800       324
    88.9000       330
    88.9200       304
    88.9400       300
    88.9600       314
    88.9800       284
    89.0000       258
    89.0200       266
    89.0400       264
    89.0600       244
    89.0800       258
    89.1000       248
    89.1200       220
    89.1400       244
    89.1600       238
    89.1800       228
    89.2000       240
    89.2200       228
    89.2400       260
    89.2600       244
    89.2800       226
    89.3000       230
    89.3200       242
    89.3400       240
    89.3600       250
    89.3800       282
    89.4000       274
    89.4200       292
    89.4400       256
    89.4600       266
    89.4800       258
    89.5000       262
    89.5200       270
    89.5400       268
    89.5600       270
    89.5800       244
    89.6000       250
    89.6200       280
    89.6400       250
    89.6600       278
    89.6800       264
    89.7000       266
    89.7200       276
    89.7400       238
    89.7600       284
    89.7800       246
    89.8000       262
    89.8200       262
    89.8400       276
    89.8600       290
    89.8800       294
    89.9000       292
    89.9200       278
    89.9400       262
    89.9600       282
    89.9800       280
    90.0000       312
