    10.0000       402
    10.0200       378
    10.0400       392
    10.0600       384
    10.0800       424
    10.1000       406
    10.1200       410
    10.1400       410
    10.1600       382
    10.1800       414
    10.2000       394
    10.2200       374
    10.2400       350
    10.2600       378
    10.2800       346
    10.3000       366
    10.3200       352
    10.3400       348
    10.3600       356
    10.3800       350
    10.4000       324
    10.4200       352
    10.4400       342
    10.4600       358
    10.4800       330
    10.5000       358
    10.5200       348
    10.5400       358
    10.5600       352
    10.5800       332
    10.6000       318
    10.6200       332
    10.6400       294
    10.6600       330
    10.6800       322
    10.7000       362
    10.7200       364
    10.7400       350
    10.7600       328
    10.7800       316
    10.8000       358
    10.8200       326
    10.8400       340
    10.8600       390
    10.8800       322
    10.9000       332
    10.9200       306
    10.9400       338
    10.9600       290
    10.9800       330
    11.0000       328
    11.0200       314
    11.0400       314
    11.0600       330
    11.0800       322
    11.1000       330
    11.1200       300
    11.1400       340
    11.1600       326
    11.1800       368
    11.2000       334
    11.2200       304
    11.2400       328
    11.2600       332
    11.2800       318
    11.3000       314
    11.3200       316
    11.3400       326
    11.3600       326
    11.3800       294
    11.4000       296
    11.4200       290
    11.4400       292
    11.4600       292
    11.4800       306
    11.5000       296
    11.5200       306
    11.5400       312
    11.5600       324
    11.5800       344
    11.6000       288
    11.6200       328
    11.6400       310
    11.6600       310
    11.6800       302
    11.7000       320
    11.7200       312
    11.7400       320
    11.7600       304
    11.7800       326
    11.8000       280
    11.8200       306
    11.8400       332
    11.8600       310
    11.8800       294
    11.9000       336
    11.9200       310
    11.9400       314
    11.9600       292
    11.9800       338
    12.0000       322
    12.0200       340
    12.0400       380
    12.0600       322
    12.0800       332
    12.1000       348
    12.1200       344
    12.1400       382
    12.1600       384
    12.1800       388
    12.2000       386
    12.2200       368
    12.2400       356
    12.2600       376
    12.2800       372
    12.3000       326
    12.3200       330
    12.3400       298
    12.3600       298
    12.3800       278
    12.4000       288
    12.4200       302
    12.4400       326
    12.4600       306
    12.4800       272
    12.5000       274
    12.5200       308
    12.5400       282
    12.5600       318
    12.5800       282
    12.6000       254
    12.6200       250
    12.6400       300
    12.6600       302
    12.6800       264
    12.7000       302
    12.7200       298
    12.7400       292
    12.7600       258
    12.7800       260
    12.8000       306
    12.8200       260
    12.8400       280
    12.8600       276
    12.8800       274
    12.9000       244
    12.9200       252
    12.9400       310
    12.9600       242
    12.9800       278
    13.0000       258
    13.0200       280
    13.0400       286
    13.0600       258
    13.0800       278
    13.1000       258
    13.1200       250
    13.1400       240
    13.1600       272
    13.1800       246
    13.2000       280
    13.2200       278
    13.2400       256
    13.2600       228
    13.2800       258
    13.3000       260
    13.3200       282
    13.3400       274
    13.3600       254
    13.3800       248
    13.4000       236
    13.4200       226
    13.4400       246
    13.4600       220
    13.4800       268
    13.5000       258
    13.5200       244
    13.5400       254
    13.5600       276
    13.5800       266
    13.6000       284
    13.6200       240
    13.6400       254
    13.6600       234
    13.6800       286
    13.7000       228
    13.7200       250
    13.7400       252
    13.7600       284
    13.7800       256
    13.8000       258
    13.8200       254
    13.8400       266
    13.8600       264
    13.8800       234
    13.9000       256
    13.9200       246
    13.9400       224
    13.9600       264
    13.9800       274
    14.0000       260
    14.0200       266
    14.0400       232
    14.0600       252
    14.0800       244
    14.1000       276
    14.1200       236
    14.1400       256
    14.1600       248
    14.1800       242
    14.2000       242
    14.2200       242
    14.2400       260
    14.2600       218
    14.2800       238
    14.3000       252
    14.3200       234
    14.3400       248
    14.3600       224
    14.3800       228
    14.4000       244
    14.4200       252
    14.4400       210
    14.4600       266
    14.4800       260
    14.5000       228
    14.5200       248
    14.5400       236
    14.5600       236
    14.5800       236
    14.6000       250
    14.6200       216
    14.6400       240
    14.6600       240
    14.6800       256
    14.7000       260
    14.7200       228
    14.7400       258
    14.7600       246
    14.7800       214
    14.8000       234
    14.8200       250
    14.8400       234
    14.8600       242
    14.8800       274
    14.9000       226
    14.9200       272
    14.9400       264
    14.9600       292
    14.9800       284
    15.0000       274
    15.0200       288
    15.0400       266
    15.0600       298
    15.0800       264
    15.1000       270
    15.1200       298
    15.1400       314
    15.1600       294
    15.1800       312
    15.2000       280
    15.2200       282
    15.2400       268
    15.2600       254
    15.2800       280
    15.3000       262
    15.3200       240
    15.3400       252
    15.3600       230
    15.3800       228
    15.4000       258
    15.4200       224
    15.4400       208
    15.4600       226
    15.4800       236
    15.5000       226
    15.5200       192
    15.5400       224
    15.5600       262
    15.5800       244
    15.6000       232
    15.6200       244
    15.6400       234
    15.6600       250
    15.6800       236
    15.7000       214
    15.7200       222
    15.7400       232
    15.7600       252
    15.7800       216
    15.8000       238
    15.8200       220
    15.8400       214
    15.8600       240
    15.8800       228
    15.9000       220
    15.9200       190
    15.9400       224
    15.9600       210
    15.9800       206
    16.0000       202
    16.0200       216
    16.0400       210
    16.0600       244
    16.0800       224
    16.1000       192
    16.1200       236
    16.1400       212
    16.1600       206
    16.1800       220
    16.2000       218
    16.2200       216
    16.2400       200
    16.2600       216
    16.2800       194
    16.3000       226
    16.3200       246
    16.3400       208
    16.3600       218
    16.3800       212
    16.4000       202
    16.4200       198
    16.4400       212
    16.4600       224
    16.4800       224
    16.5000       212
    16.5200       214
    16.5400       242
    16.5600       206
    16.5800       196
    16.6000       222
    16.6200       210
    16.6400       216
    16.6600       196
    16.6800       204
    16.7000       210
    16.7200       226
    16.7400       228
    16.7600       236
    16.7800       238
    16.8000       218
    16.8200       246
    16.8400       222
    16.8600       248
    16.8800       238
    16.9000       254
    16.9200       242
    16.9400       254
    16.9600       274
    16.9800       320
    17.0000       328
    17.0200       274
    17.0400       322
    17.0600       316
    17.0800       362
    17.1000       332
    17.1200       336
    17.1400       382
    17.1600       362
    17.1800       340
    17.2000       392
    17.2200       398
    17.2400       366
    17.2600       338
    17.2800       388
    17.3000       338
    17.3200       326
    17.3400       322
    17.3600       344
    17.3800       390
    17.4000       316
    17.4200       320
    17.4400       290
    17.4600       322
    17.4800       256
    17.5000       276
    17.5200       246
    17.5400       264
    17.5600       268
    17.5800       252
    17.6000       232
    17.6200       242
    17.6400       258
    17.6600       254
    17.6800       248
    17.7000       238
    17.7200       242
    17.7400       252
    17.7600       244
    17.7800       228
    17.8000       222
    17.8200       226
    17.8400       232
    17.8600       244
    17.8800       216
    17.9000       180
    17.9200       216
    17.9400       202
    17.9600       184
    17.9800       208
    18.0000       236
    18.0200       206
    18.0400       216
    18.0600       194
    18.0800       182
    18.1000       206
    18.1200       204
    18.1400       198
    18.1600       232
    18.1800       198
    18.2000       184
    18.2200       200
    18.2400       234
    18.2600       190
    18.2800       198
    18.3000       210
    18.3200       224
    18.3400       222
    18.3600       210
    18.3800       208
    18.4000       228
    18.4200       204
    18.4400       212
    18.4600       188
    18.4800       196
    18.5000       208
    18.5200       202
    18.5400       216
    18.5600       220
    18.5800       206
    18.6000       210
    18.6200       236
    18.6400       246
    18.6600       220
    18.6800       224
    18.7000       210
    18.7200       218
    18.7400       236
    18.7600       218
    18.7800       222
    18.8000       240
    18.8200       246
    18.8400       224
    18.8600       250
    18.8800       248
    18.9000       254
    18.9200       272
    18.9400       264
    18.9600       262
    18.9800       292
    19.0000       330
    19.0200       276
    19.0400       310
    19.0600       348
    19.0800       364
    19.1000       384
    19.1200       402
    19.1400       400
    19.1600       454
    19.1800       472
    19.2000       512
    19.2200       562
    19.2400       606
    19.2600       728
    19.2800       796
    19.3000       902
    19.3200       994
    19.3400      1124
    19.3600      1308
    19.3800      1496
    19.4000      1688
    19.4200      2052
    19.4400      2348
    19.4600      2778
    19.4800      3078
    19.5000      3484
    19.5200      3884
    19.5400      4040
    19.5600      4026
    19.5800      3692
    19.6000      3256
    19.6200      2634
    19.6400      2160
    19.6600      1754
    19.6800      1420
    19.7000      1268
    19.7200      1168
    19.7400      1190
    19.7600      1266
    19.7800      1262
    19.8000      1406
    19.8200      1612
    19.8400      1748
    19.8600      1902
    19.8800      2234
    19.9000      2408
    19.9200      2754
    19.9400      2928
    19.9600      3086
    19.9800      3270
    20.0000      3166
    20.0200      2952
    20.0400      2558
    20.0600      2228
    20.0800      1762
    20.1000      1388
    20.1200      1120
    20.1400       958
    20.1600       830
    20.1800       778
    20.2000       690
    20.2200       668
    20.2400       658
    20.2600       604
    20.2800       650
    20.3000       612
    20.3200       634
    20.3400       616
    20.3600       510
    20.3800       546
    20.4000       552
    20.4200       462
    20.4400       456
    20.4600       352
    20.4800       358
    20.5000       324
    20.5200       286
    20.5400       298
    20.5600       296
    20.5800       256
    20.6000       252
    20.6200       268
    20.6400       256
    20.6600       256
    20.6800       294
    20.7000       240
    20.7200       236
    20.7400       240
    20.7600       214
    20.7800       228
    20.8000       250
    20.8200       232
    20.8400       266
    20.8600       224
    20.8800       262
    20.9000       264
    20.9200       254
    20.9400       282
    20.9600       320
    20.9800       330
    21.0000       326
    21.0200       356
    21.0400       378
    21.0600       382
    21.0800       402
    21.1000       448
    21.1200       526
    21.1400       564
    21.1600       596
    21.1800       630
    21.2000       666
    21.2200       642
    21.2400       676
    21.2600       646
    21.2800       572
    21.3000       518
    21.3200       504
    21.3400       430
    21.3600       378
    21.3800       336
    21.4000       304
    21.4200       302
    21.4400       270
    21.4600       248
    21.4800       242
    21.5000       244
    21.5200       224
    21.5400       236
    21.5600       238
    21.5800       232
    21.6000       180
    21.6200       232
    21.6400       236
    21.6600       224
    21.6800       234
    21.7000       194
    21.7200       210
    21.7400       212
    21.7600       206
    21.7800       204
    21.8000       212
    21.8200       210
    21.8400       212
    21.8600       222
    21.8800       214
    21.9000       210
    21.9200       220
    21.9400       206
    21.9600       180
    21.9800       212
    22.0000       216
    22.0200       214
    22.0400       234
    22.0600       226
    22.0800       234
    22.1000       212
    22.1200       196
    22.1400       216
    22.1600       214
    22.1800       198
    22.2000       222
    22.2200       256
    22.2400       246
    22.2600       246
    22.2800       274
    22.3000       230
    22.3200       266
    22.3400       278
    22.3600       316
    22.3800       332
    22.4000       352
    22.4200       376
    22.4400       396
    22.4600       414
    22.4800       488
    22.5000       552
    22.5200       578
    22.5400       684
    22.5600       758
    22.5800       832
    22.6000       966
    22.6200      1104
    22.6400      1180
    22.6600      1522
    22.6800      1706
    22.7000      1946
    22.7200      2348
    22.7400      2714
    22.7600      3302
    22.7800      3704
    22.8000      4362
    22.8200      5026
    22.8400      5322
    22.8600      5686
    22.8800      5586
    22.9000      5054
    22.9200      4344
    22.9400      3804
    22.9600      2960
    22.9800      2206
    23.0000      1786
    23.0200      1354
    23.0400      1226
    23.0600      1022
    23.0800       902
    23.1000       822
    23.1200       762
    23.1400       666
    23.1600       710
    23.1800       644
    23.2000       578
    23.2200       552
    23.2400       530
    23.2600       506
    23.2800       462
    23.3000       434
    23.3200       402
    23.3400       386
    23.3600       386
    23.3800       384
    23.4000       348
    23.4200       350
    23.4400       350
    23.4600       302
    23.4800       314
    23.5000       292
    23.5200       298
    23.5400       308
    23.5600       286
    23.5800       284
    23.6000       268
    23.6200       302
    23.6400       284
    23.6600       286
    23.6800       268
    23.7000       282
    23.7200       288
    23.7400       268
    23.7600       286
    23.7800       258
    23.8000       332
    23.8200       284
    23.8400       296
    23.8600       278
    23.8800       238
    23.9000       254
    23.9200       296
    23.9400       292
    23.9600       266
    23.9800       284
    24.0000       286
    24.0200       308
    24.0400       306
    24.0600       326
    24.0800       308
    24.1000       326
    24.1200       304
    24.1400       334
    24.1600       348
    24.1800       368
    24.2000       384
    24.2200       422
    24.2400       424
    24.2600       474
    24.2800       484
    24.3000       510
    24.3200       630
    24.3400       682
    24.3600       776
    24.3800       796
    24.4000       980
    24.4200      1024
    24.4400      1134
    24.4600      1194
    24.4800      1188
    24.5000      1182
    24.5200      1100
    24.5400      1034
    24.5600       976
    24.5800       900
    24.6000       802
    24.6200       704
    24.6400       626
    24.6600       576
    24.6800       536
    24.7000       440
    24.7200       430
    24.7400       426
    24.7600       358
    24.7800       374
    24.8000       324
    24.8200       316
    24.8400       312
    24.8600       310
    24.8800       256
    24.9000       310
    24.9200       308
    24.9400       298
    24.9600       266
    24.9800       278
    25.0000       274
    25.0200       302
    25.0400       268
    25.0600       256
    25.0800       262
    25.1000       272
    25.1200       290
    25.1400       316
    25.1600       290
    25.1800       294
    25.2000       332
    25.2200       328
    25.2400       328
    25.2600       318
    25.2800       388
    25.3000       412
    25.3200       420
    25.3400       446
    25.3600       468
    25.3800       478
    25.4000       516
    25.4200       632
    25.4400       660
    25.4600       744
    25.4800       886
    25.5000      1016
    25.5200      1086
    25.5400      1242
    25.5600      1274
    25.5800      1380
    25.6000      1360
    25.6200      1358
    25.6400      1262
    25.6600      1098
    25.6800       954
    25.7000       862
    25.7200       698
    25.7400       634
    25.7600       458
    25.7800       414
    25.8000       384
    25.8200       360
    25.8400       344
    25.8600       314
    25.8800       332
    25.9000       302
    25.9200       324
    25.9400       286
    25.9600       270
    25.9800       276
    26.0000       274
    26.0200       254
    26.0400       266
    26.0600       282
    26.0800       308
    26.1000       338
    26.1200       308
    26.1400       328
    26.1600       364
    26.1800       342
    26.2000       386
    26.2200       384
    26.2400       424
    26.2600       480
    26.2800       534
    26.3000       544
    26.3200       634
    26.3400       682
    26.3600       714
    26.3800       804
    26.4000       774
    26.4200       862
    26.4400       924
    26.4600       842
    26.4800       892
    26.5000      1002
    26.5200       988
    26.5400      1044
    26.5600      1086
    26.5800      1118
    26.6000      1108
    26.6200      1080
    26.6400      1110
    26.6600      1094
    26.6800      1148
    26.7000      1026
    26.7200       978
    26.7400       914
    26.7600       816
    26.7800       738
    26.8000       666
    26.8200       604
    26.8400       570
    26.8600       512
    26.8800       488
    26.9000       380
    26.9200       440
    26.9400       404
    26.9600       376
    26.9800       348
    27.0000       338
    27.0200       362
    27.0400       408
    27.0600       376
    27.0800       358
    27.1000       370
    27.1200       362
    27.1400       378
    27.1600       368
    27.1800       386
    27.2000       330
    27.2200       356
    27.2400       338
    27.2600       366
    27.2800       352
    27.3000       364
    27.3200       362
    27.3400       372
    27.3600       372
    27.3800       452
    27.4000       442
    27.4200       444
    27.4400       448
    27.4600       480
    27.4800       486
    27.5000       460
    27.5200       462
    27.5400       428
    27.5600       460
    27.5800       448
    27.6000       424
    27.6200       396
    27.6400       328
    27.6600       368
    27.6800       340
    27.7000       314
    27.7200       294
    27.7400       342
    27.7600       320
    27.7800       286
    27.8000       312
    27.8200       298
    27.8400       302
    27.8600       330
    27.8800       338
    27.9000       378
    27.9200       380
    27.9400       400
    27.9600       428
    27.9800       428
    28.0000       516
    28.0200       480
    28.0400       578
    28.0600       616
    28.0800       666
    28.1000       820
    28.1200       920
    28.1400       998
    28.1600      1196
    28.1800      1398
    28.2000      1656
    28.2200      1800
    28.2400      1958
    28.2600      2062
    28.2800      2046
    28.3000      1896
    28.3200      1700
    28.3400      1462
    28.3600      1280
    28.3800      1058
    28.4000       834
    28.4200       686
    28.4400       614
    28.4600       484
    28.4800       492
    28.5000       410
    28.5200       418
    28.5400       332
    28.5600       342
    28.5800       350
    28.6000       294
    28.6200       284
    28.6400       272
    28.6600       264
    28.6800       256
    28.7000       272
    28.7200       246
    28.7400       234
    28.7600       242
    28.7800       234
    28.8000       218
    28.8200       220
    28.8400       216
    28.8600       220
    28.8800       244
    28.9000       230
    28.9200       264
    28.9400       194
    28.9600       208
    28.9800       224
    29.0000       224
    29.0200       236
    29.0400       210
    29.0600       214
    29.0800       222
    29.1000       228
    29.1200       230
    29.1400       238
    29.1600       214
    29.1800       210
    29.2000       236
    29.2200       252
    29.2400       248
    29.2600       226
    29.2800       226
    29.3000       214
    29.3200       226
    29.3400       238
    29.3600       286
    29.3800       272
    29.4000       252
    29.4200       282
    29.4400       264
    29.4600       314
    29.4800       304
    29.5000       294
    29.5200       320
    29.5400       318
    29.5600       296
    29.5800       304
    29.6000       326
    29.6200       270
    29.6400       280
    29.6600       290
    29.6800       290
    29.7000       278
    29.7200       258
    29.7400       284
    29.7600       268
    29.7800       242
    29.8000       256
    29.8200       276
    29.8400       292
    29.8600       292
    29.8800       288
    29.9000       268
    29.9200       288
    29.9400       304
    29.9600       318
    29.9800       338
    30.0000       312
    30.0200       426
    30.0400       372
    30.0600       476
    30.0800       536
    30.1000       506
    30.1200       564
    30.1400       624
    30.1600       686
    30.1800       724
    30.2000       740
    30.2200       724
    30.2400       764
    30.2600       728
    30.2800       684
    30.3000       696
    30.3200       662
    30.3400       674
    30.3600       626
    30.3800       590
    30.4000       580
    30.4200       602
    30.4400       580
    30.4600       592
    30.4800       562
    30.5000       644
    30.5200       604
    30.5400       650
    30.5600       642
    30.5800       652
    30.6000       716
    30.6200       762
    30.6400       716
    30.6600       740
    30.6800       722
    30.7000       704
    30.7200       640
    30.7400       576
    30.7600       576
    30.7800       534
    30.8000       494
    30.8200       446
    30.8400       436
    30.8600       436
    30.8800       414
    30.9000       432
    30.9200       350
    30.9400       398
    30.9600       372
    30.9800       362
    31.0000       346
    31.0200       342
    31.0400       348
    31.0600       348
    31.0800       348
    31.1000       334
    31.1200       334
    31.1400       332
    31.1600       332
    31.1800       326
    31.2000       330
    31.2200       370
    31.2400       370
    31.2600       356
    31.2800       328
    31.3000       366
    31.3200       358
    31.3400       344
    31.3600       410
    31.3800       340
    31.4000       376
    31.4200       400
    31.4400       364
    31.4600       384
    31.4800       398
    31.5000       414
    31.5200       432
    31.5400       434
    31.5600       472
    31.5800       498
    31.6000       558
    31.6200       556
    31.6400       634
    31.6600       720
    31.6800       734
    31.7000       824
    31.7200       870
    31.7400       938
    31.7600      1018
    31.7800      1062
    31.8000      1208
    31.8200      1320
    31.8400      1436
    31.8600      1648
    31.8800      1858
    31.9000      2070
    31.9200      2376
    31.9400      2518
    31.9600      2884
    31.9800      3010
    32.0000      3078
    32.0200      3170
    32.0400      2898
    32.0600      2708
    32.0800      2456
    32.1000      2288
    32.1200      2046
    32.1400      1832
    32.1600      1708
    32.1800      1558
    32.2000      1540
    32.2200      1498
    32.2400      1658
    32.2600      1722
    32.2800      1810
    32.3000      2044
    32.3200      2222
    32.3400      2536
    32.3600      2934
    32.3800      3432
    32.4000      3916
    32.4200      4710
    32.4400      5524
    32.4600      6372
    32.4800      7412
    32.5000      8346
    32.5200      9222
    32.5400      9622
    32.5600      9880
    32.5800      9706
    32.6000      9142
    32.6200      8272
    32.6400      7470
    32.6600      6402
    32.6800      5362
    32.7000      4506
    32.7200      3824
    32.7400      3134
    32.7600      2544
    32.7800      2188
    32.8000      1890
    32.8200      1682
    32.8400      1524
    32.8600      1446
    32.8800      1402
    32.9000      1408
    32.9200      1310
    32.9400      1344
    32.9600      1444
    32.9800      1488
    33.0000      1626
    33.0200      1734
    33.0400      1892
    33.0600      1976
    33.0800      2092
    33.1000      1998
    33.1200      1924
    33.1400      1764
    33.1600      1598
    33.1800      1444
    33.2000      1270
    33.2200      1154
    33.2400       900
    33.2600       804
    33.2800       680
    33.3000       594
    33.3200       524
    33.3400       500
    33.3600       432
    33.3800       456
    33.4000       412
    33.4200       348
    33.4400       360
    33.4600       306
    33.4800       348
    33.5000       300
    33.5200       316
    33.5400       316
    33.5600       276
    33.5800       280
    33.6000       266
    33.6200       310
    33.6400       270
    33.6600       266
    33.6800       220
    33.7000       266
    33.7200       224
    33.7400       236
    33.7600       234
    33.7800       238
    33.8000       242
    33.8200       226
    33.8400       210
    33.8600       218
    33.8800       208
    33.9000       228
    33.9200       248
    33.9400       260
    33.9600       250
    33.9800       230
    34.0000       230
    34.0200       238
    34.0400       250
    34.0600       232
    34.0800       240
    34.1000       284
    34.1200       224
    34.1400       228
    34.1600       222
    34.1800       248
    34.2000       254
    34.2200       188
    34.2400       218
    34.2600       228
    34.2800       250
    34.3000       232
    34.3200       250
    34.3400       226
    34.3600       256
    34.3800       236
    34.4000       246
    34.4200       254
    34.4400       262
    34.4600       246
    34.4800       266
    34.5000       284
    34.5200       228
    34.5400       260
    34.5600       272
    34.5800       292
    34.6000       284
    34.6200       270
    34.6400       282
    34.6600       270
    34.6800       258
    34.7000       272
    34.7200       286
    34.7400       270
    34.7600       270
    34.7800       246
    34.8000       254
    34.8200       282
    34.8400       284
    34.8600       286
    34.8800       306
    34.9000       332
    34.9200       274
    34.9400       298
    34.9600       336
    34.9800       380
    35.0000       404
    35.0200       414
    35.0400       460
    35.0600       440
    35.0800       508
    35.1000       506
    35.1200       462
    35.1400       500
    35.1600       444
    35.1800       432
    35.2000       354
    35.2200       402
    35.2400       336
    35.2600       306
    35.2800       284
    35.3000       306
    35.3200       296
    35.3400       258
    35.3600       294
    35.3800       272
    35.4000       250
    35.4200       288
    35.4400       274
    35.4600       292
    35.4800       284
    35.5000       290
    35.5200       296
    35.5400       304
    35.5600       242
    35.5800       244
    35.6000       260
    35.6200       288
    35.6400       314
    35.6600       312
    35.6800       314
    35.7000       344
    35.7200       354
    35.7400       358
    35.7600       328
    35.7800       364
    35.8000       354
    35.8200       378
    35.8400       408
    35.8600       396
    35.8800       440
    35.9000       432
    35.9200       430
    35.9400       456
    35.9600       454
    35.9800       476
    36.0000       526
    36.0200       562
    36.0400       580
    36.0600       700
    36.0800       724
    36.1000       744
    36.1200       802
    36.1400       818
    36.1600       822
    36.1800       814
    36.2000       706
    36.2200       754
    36.2400       610
    36.2600       610
    36.2800       548
    36.3000       546
    36.3200       522
    36.3400       456
    36.3600       456
    36.3800       440
    36.4000       410
    36.4200       418
    36.4400       396
    36.4600       420
    36.4800       470
    36.5000       446
    36.5200       448
    36.5400       488
    36.5600       514
    36.5800       494
    36.6000       632
    36.6200       560
    36.6400       608
    36.6600       738
    36.6800       828
    36.7000       914
    36.7200       948
    36.7400      1126
    36.7600      1278
    36.7800      1444
    36.8000      1724
    36.8200      1884
    36.8400      2126
    36.8600      2342
    36.8800      2400
    36.9000      2506
    36.9200      2494
    36.9400      2338
    36.9600      2088
    36.9800      1896
    37.0000      1794
    37.0200      1500
    37.0400      1352
    37.0600      1234
    37.0800      1036
    37.1000       990
    37.1200       910
    37.1400       874
    37.1600       790
    37.1800       742
    37.2000       720
    37.2200       698
    37.2400       708
    37.2600       678
    37.2800       682
    37.3000       650
    37.3200       646
    37.3400       576
    37.3600       550
    37.3800       586
    37.4000       592
    37.4200       590
    37.4400       642
    37.4600       608
    37.4800       586
    37.5000       626
    37.5200       654
    37.5400       622
    37.5600       686
    37.5800       706
    37.6000       680
    37.6200       692
    37.6400       756
    37.6600       718
    37.6800       780
    37.7000       832
    37.7200       826
    37.7400       856
    37.7600       870
    37.7800       956
    37.8000       974
    37.8200      1016
    37.8400      1138
    37.8600      1258
    37.8800      1386
    37.9000      1520
    37.9200      1714
    37.9400      1854
    37.9600      2270
    37.9800      2300
    38.0000      2506
    38.0200      2662
    38.0400      2550
    38.0600      2564
    38.0800      2444
    38.1000      2292
    38.1200      2128
    38.1400      2026
    38.1600      1894
    38.1800      1784
    38.2000      1654
    38.2200      1654
    38.2400      1650
    38.2600      1696
    38.2800      1850
    38.3000      1968
    38.3200      2064
    38.3400      2360
    38.3600      2684
    38.3800      2914
    38.4000      3372
    38.4200      3860
    38.4400      4218
    38.4600      4538
    38.4800      4744
    38.5000      4958
    38.5200      4908
    38.5400      4974
    38.5600      4764
    38.5800      4858
    38.6000      4552
    38.6200      4364
    38.6400      4336
    38.6600      4186
    38.6800      4258
    38.7000      4216
    38.7200      4232
    38.7400      4088
    38.7600      3930
    38.7800      3750
    38.8000      3376
    38.8200      3168
    38.8400      2842
    38.8600      2556
    38.8800      2206
    38.9000      1910
    38.9200      1740
    38.9400      1450
    38.9600      1382
    38.9800      1160
    39.0000      1078
    39.0200      1014
    39.0400       960
    39.0600       924
    39.0800       906
    39.1000       862
    39.1200       834
    39.1400       820
    39.1600       828
    39.1800       794
    39.2000       774
    39.2200       792
    39.2400       792
    39.2600       754
    39.2800       778
    39.3000       782
    39.3200       790
    39.3400       816
    39.3600       816
    39.3800       840
    39.4000       812
    39.4200       870
    39.4400       896
    39.4600       918
    39.4800       984
    39.5000      1050
    39.5200      1156
    39.5400      1360
    39.5600      1452
    39.5800      1568
    39.6000      1856
    39.6200      2104
    39.6400      2406
    39.6600      2592
    39.6800      2752
    39.7000      2822
    39.7200      2804
    39.7400      2720
    39.7600      2474
    39.7800      2346
    39.8000      2052
    39.8200      1836
    39.8400      1662
    39.8600      1410
    39.8800      1170
    39.9000      1118
    39.9200       966
    39.9400       898
    39.9600       790
    39.9800       752
    40.0000       688
    40.0200       670
    40.0400       604
    40.0600       602
    40.0800       582
    40.1000       590
    40.1200       600
    40.1400       576
    40.1600       518
    40.1800       570
    40.2000       536
    40.2200       582
    40.2400       586
    40.2600       568
    40.2800       604
    40.3000       622
    40.3200       666
    40.3400       640
    40.3600       700
    40.3800       720
    40.4000       870
    40.4200       880
    40.4400       992
    40.4600      1076
    40.4800      1154
    40.5000      1260
    40.5200      1404
    40.5400      1518
    40.5600      1604
    40.5800      1640
    40.6000      1580
    40.6200      1566
    40.6400      1572
    40.6600      1524
    40.6800      1440
    40.7000      1374
    40.7200      1254
    40.7400      1214
    40.7600      1062
    40.7800       968
    40.8000       874
    40.8200       766
    40.8400       742
    40.8600       674
    40.8800       634
    40.9000       654
    40.9200       552
    40.9400       572
    40.9600       542
    40.9800       556
    41.0000       608
    41.0200       568
    41.0400       546
    41.0600       542
    41.0800       576
    41.1000       532
    41.1200       552
    41.1400       612
    41.1600       648
    41.1800       668
    41.2000       672
    41.2200       742
    41.2400       772
    41.2600       734
    41.2800       758
    41.3000       808
    41.3200       776
    41.3400       752
    41.3600       742
    41.3800       832
    41.4000       798
    41.4200       762
    41.4400       694
    41.4600       720
    41.4800       700
    41.5000       692
    41.5200       684
    41.5400       706
    41.5600       742
    41.5800       700
    41.6000       754
    41.6200       798
    41.6400       722
    41.6600       806
    41.6800       828
    41.7000       884
    41.7200      1018
    41.7400      1114
    41.7600      1312
    41.7800      1382
    41.8000      1542
    41.8200      1756
    41.8400      1904
    41.8600      2022
    41.8800      2178
    41.9000      2204
    41.9200      2132
    41.9400      2070
    41.9600      2112
    41.9800      1930
    42.0000      1800
    42.0200      1550
    42.0400      1510
    42.0600      1350
    42.0800      1232
    42.1000      1058
    42.1200       904
    42.1400       826
    42.1600       754
    42.1800       720
    42.2000       672
    42.2200       638
    42.2400       570
    42.2600       576
    42.2800       556
    42.3000       496
    42.3200       536
    42.3400       536
    42.3600       504
    42.3800       492
    42.4000       540
    42.4200       492
    42.4400       446
    42.4600       448
    42.4800       426
    42.5000       442
    42.5200       422
    42.5400       430
    42.5600       392
    42.5800       398
    42.6000       410
    42.6200       380
    42.6400       402
    42.6600       398
    42.6800       422
    42.7000       422
    42.7200       426
    42.7400       408
    42.7600       450
    42.7800       440
    42.8000       406
    42.8200       478
    42.8400       526
    42.8600       498
    42.8800       540
    42.9000       578
    42.9200       604
    42.9400       654
    42.9600       704
    42.9800       748
    43.0000       808
    43.0200       912
    43.0400      1022
    43.0600      1116
    43.0800      1270
    43.1000      1480
    43.1200      1648
    43.1400      1820
    43.1600      1936
    43.1800      2176
    43.2000      2212
    43.2200      2208
    43.2400      2202
    43.2600      2124
    43.2800      2016
    43.3000      1910
    43.3200      1810
    43.3400      1644
    43.3600      1460
    43.3800      1308
    43.4000      1096
    43.4200      1030
    43.4400       936
    43.4600       846
    43.4800       768
    43.5000       652
    43.5200       604
    43.5400       658
    43.5600       562
    43.5800       574
    43.6000       578
    43.6200       544
    43.6400       608
    43.6600       640
    43.6800       596
    43.7000       614
    43.7200       732
    43.7400       732
    43.7600       820
    43.7800       774
    43.8000       740
    43.8200       808
    43.8400       838
    43.8600       796
    43.8800       754
    43.9000       788
    43.9200       778
    43.9400       740
    43.9600       710
    43.9800       632
    44.0000       618
    44.0200       598
    44.0400       570
    44.0600       604
    44.0800       596
    44.1000       560
    44.1200       530
    44.1400       528
    44.1600       538
    44.1800       528
    44.2000       494
    44.2200       548
    44.2400       536
    44.2600       564
    44.2800       498
    44.3000       538
    44.3200       512
    44.3400       576
    44.3600       548
    44.3800       552
    44.4000       540
    44.4200       550
    44.4400       512
    44.4600       568
    44.4800       524
    44.5000       556
    44.5200       586
    44.5400       534
    44.5600       498
    44.5800       542
    44.6000       498
    44.6200       534
    44.6400       492
    44.6600       484
    44.6800       498
    44.7000       478
    44.7200       494
    44.7400       478
    44.7600       492
    44.7800       490
    44.8000       528
    44.8200       490
    44.8400       488
    44.8600       518
    44.8800       534
    44.9000       570
    44.9200       582
    44.9400       580
    44.9600       610
    44.9800       622
    45.0000       648
    45.0200       684
    45.0400       740
    45.0600       704
    45.0800       742
    45.1000       790
    45.1200       756
    45.1400       762
    45.1600       770
    45.1800       756
    45.2000       714
    45.2200       670
    45.2400       738
    45.2600       652
    45.2800       662
    45.3000       598
    45.3200       590
    45.3400       610
    45.3600       598
    45.3800       598
    45.4000       584
    45.4200       522
    45.4400       606
    45.4600       558
    45.4800       532
    45.5000       546
    45.5200       558
    45.5400       538
    45.5600       534
    45.5800       550
    45.6000       600
    45.6200       536
    45.6400       560
    45.6600       570
    45.6800       600
    45.7000       594
    45.7200       618
    45.7400       608
    45.7600       654
    45.7800       576
    45.8000       580
    45.8200       626
    45.8400       566
    45.8600       614
    45.8800       556
    45.9000       614
    45.9200       614
    45.9400       594
    45.9600       592
    45.9800       612
    46.0000       632
    46.0200       622
    46.0400       632
    46.0600       618
    46.0800       674
    46.1000       698
    46.1200       750
    46.1400       702
    46.1600       738
    46.1800       802
    46.2000       764
    46.2200       860
    46.2400       916
    46.2600       920
    46.2800      1056
    46.3000      1086
    46.3200      1162
    46.3400      1278
    46.3600      1372
    46.3800      1456
    46.4000      1572
    46.4200      1888
    46.4400      2024
    46.4600      2320
    46.4800      2562
    46.5000      2926
    46.5200      3396
    46.5400      3780
    46.5600      4410
    46.5800      5110
    46.6000      5930
    46.6200      6904
    46.6400      7650
    46.6600      8558
    46.6800      9184
    46.7000      9592
    46.7200      9926
    46.7400      9858
    46.7600      9450
    46.7800      8998
    46.8000      8370
    46.8200      7876
    46.8400      7322
    46.8600      6828
    46.8800      6032
    46.9000      5704
    46.9200      5038
    46.9400      4560
    46.9600      4372
    46.9800      4128
    47.0000      3806
    47.0200      3602
    47.0400      3300
    47.0600      3024
    47.0800      2828
    47.1000      2448
    47.1200      2244
    47.1400      2154
    47.1600      1956
    47.1800      1774
    47.2000      1644
    47.2200      1460
    47.2400      1256
    47.2600      1192
    47.2800      1092
    47.3000       998
    47.3200       924
    47.3400       934
    47.3600       872
    47.3800       804
    47.4000       810
    47.4200       788
    47.4400       766
    47.4600       724
    47.4800       696
    47.5000       698
    47.5200       596
    47.5400       650
    47.5600       648
    47.5800       684
    47.6000       650
    47.6200       680
    47.6400       700
    47.6600       712
    47.6800       798
    47.7000       748
    47.7200       822
    47.7400       822
    47.7600       922
    47.7800       954
    47.8000       992
    47.8200      1052
    47.8400      1090
    47.8600      1086
    47.8800      1078
    47.9000      1076
    47.9200      1026
    47.9400      1032
    47.9600      1050
    47.9800       978
    48.0000      1006
    48.0200       940
    48.0400      1028
    48.0600       948
    48.0800       906
    48.1000       986
    48.1200       978
    48.1400       990
    48.1600       992
    48.1800      1076
    48.2000      1114
    48.2200      1064
    48.2400      1128
    48.2600      1062
    48.2800      1018
    48.3000      1028
    48.3200       968
    48.3400       928
    48.3600       850
    48.3800       792
    48.4000       838
    48.4200       724
    48.4400       682
    48.4600       702
    48.4800       700
    48.5000       658
    48.5200       646
    48.5400       582
    48.5600       646
    48.5800       620
    48.6000       586
    48.6200       568
    48.6400       588
    48.6600       554
    48.6800       538
    48.7000       548
    48.7200       560
    48.7400       526
    48.7600       532
    48.7800       466
    48.8000       488
    48.8200       466
    48.8400       432
    48.8600       414
    48.8800       418
    48.9000       392
    48.9200       376
    48.9400       384
    48.9600       354
    48.9800       366
    49.0000       382
    49.0200       384
    49.0400       344
    49.0600       386
    49.0800       302
    49.1000       316
    49.1200       366
    49.1400       344
    49.1600       314
    49.1800       314
    49.2000       306
    49.2200       330
    49.2400       330
    49.2600       318
    49.2800       336
    49.3000       316
    49.3200       308
    49.3400       314
    49.3600       300
    49.3800       284
    49.4000       332
    49.4200       292
    49.4400       336
    49.4600       316
    49.4800       310
    49.5000       310
    49.5200       300
    49.5400       352
    49.5600       314
    49.5800       350
    49.6000       324
    49.6200       382
    49.6400       350
    49.6600       360
    49.6800       354
    49.7000       354
    49.7200       350
    49.7400       340
    49.7600       352
    49.7800       378
    49.8000       344
    49.8200       414
    49.8400       382
    49.8600       412
    49.8800       414
    49.9000       392
    49.9200       398
    49.9400       464
    49.9600       478
    49.9800       480
    50.0000       518
    50.0200       546
    50.0400       616
    50.0600       638
    50.0800       678
    50.1000       660
    50.1200       752
    50.1400       832
    50.1600       854
    50.1800       774
    50.2000       850
    50.2200       810
    50.2400       822
    50.2600       872
    50.2800       810
    50.3000       868
    50.3200       892
    50.3400       834
    50.3600       888
    50.3800       872
    50.4000       798
    50.4200       724
    50.4400       764
    50.4600       792
    50.4800       742
    50.5000       666
    50.5200       666
    50.5400       690
    50.5600       644
    50.5800       662
    50.6000       654
    50.6200       638
    50.6400       600
    50.6600       618
    50.6800       626
    50.7000       646
    50.7200       684
    50.7400       690
    50.7600       714
    50.7800       732
    50.8000       734
    50.8200       720
    50.8400       764
    50.8600       896
    50.8800       854
    50.9000       864
    50.9200       934
    50.9400       900
    50.9600       932
    50.9800       858
    51.0000       842
    51.0200       866
    51.0400       806
    51.0600       794
    51.0800       766
    51.1000       732
    51.1200       722
    51.1400       716
    51.1600       702
    51.1800       674
    51.2000       706
    51.2200       656
    51.2400       642
    51.2600       714
    51.2800       748
    51.3000       742
    51.3200       740
    51.3400       792
    51.3600       812
    51.3800       806
    51.4000       850
    51.4200       838
    51.4400       848
    51.4600       866
    51.4800       822
    51.5000       794
    51.5200       792
    51.5400       760
    51.5600       774
    51.5800       736
    51.6000       740
    51.6200       702
    51.6400       674
    51.6600       742
    51.6800       726
    51.7000       746
    51.7200       816
    51.7400       882
    51.7600       886
    51.7800       994
    51.8000      1020
    51.8200      1090
    51.8400      1106
    51.8600      1154
    51.8800      1158
    51.9000      1176
    51.9200      1176
    51.9400      1094
    51.9600      1106
    51.9800      1102
    52.0000      1130
    52.0200      1072
    52.0400       956
    52.0600       996
    52.0800       894
    52.1000       908
    52.1200       802
    52.1400       784
    52.1600       734
    52.1800       666
    52.2000       694
    52.2200       712
    52.2400       718
    52.2600       698
    52.2800       720
    52.3000       712
    52.3200       706
    52.3400       724
    52.3600       744
    52.3800       772
    52.4000       866
    52.4200       934
    52.4400      1010
    52.4600      1096
    52.4800      1216
    52.5000      1372
    52.5200      1402
    52.5400      1462
    52.5600      1540
    52.5800      1634
    52.6000      1664
    52.6200      1624
    52.6400      1676
    52.6600      1700
    52.6800      1590
    52.7000      1492
    52.7200      1570
    52.7400      1354
    52.7600      1266
    52.7800      1270
    52.8000      1176
    52.8200      1124
    52.8400       958
    52.8600       960
    52.8800       924
    52.9000       858
    52.9200       864
    52.9400       814
    52.9600       780
    52.9800       826
    53.0000       812
    53.0200       810
    53.0400       842
    53.0600       878
    53.0800       978
    53.1000      1044
    53.1200      1110
    53.1400      1212
    53.1600      1424
    53.1800      1522
    53.2000      1642
    53.2200      1776
    53.2400      1912
    53.2600      1924
    53.2800      2080
    53.3000      2008
    53.3200      1922
    53.3400      1910
    53.3600      1732
    53.3800      1696
    53.4000      1602
    53.4200      1544
    53.4400      1356
    53.4600      1228
    53.4800      1142
    53.5000      1054
    53.5200       894
    53.5400       822
    53.5600       752
    53.5800       686
    53.6000       596
    53.6200       572
    53.6400       526
    53.6600       498
    53.6800       488
    53.7000       496
    53.7200       482
    53.7400       476
    53.7600       436
    53.7800       396
    53.8000       440
    53.8200       398
    53.8400       398
    53.8600       360
    53.8800       380
    53.9000       362
    53.9200       370
    53.9400       346
    53.9600       390
    53.9800       370
    54.0000       362
    54.0200       392
    54.0400       316
    54.0600       370
    54.0800       344
    54.1000       376
    54.1200       342
    54.1400       340
    54.1600       350
    54.1800       376
    54.2000       372
    54.2200       354
    54.2400       414
    54.2600       364
    54.2800       402
    54.3000       390
    54.3200       406
    54.3400       414
    54.3600       392
    54.3800       432
    54.4000       440
    54.4200       438
    54.4400       510
    54.4600       464
    54.4800       510
    54.5000       526
    54.5200       590
    54.5400       594
    54.5600       630
    54.5800       682
    54.6000       704
    54.6200       752
    54.6400       744
    54.6600       796
    54.6800       868
    54.7000       910
    54.7200       894
    54.7400       972
    54.7600       906
    54.7800       888
    54.8000       938
    54.8200       924
    54.8400       916
    54.8600       836
    54.8800       856
    54.9000       764
    54.9200       776
    54.9400       744
    54.9600       712
    54.9800       602
    55.0000       654
    55.0200       616
    55.0400       600
    55.0600       610
    55.0800       580
    55.1000       550
    55.1200       552
    55.1400       542
    55.1600       526
    55.1800       584
    55.2000       534
    55.2200       502
    55.2400       534
    55.2600       512
    55.2800       488
    55.3000       540
    55.3200       492
    55.3400       466
    55.3600       470
    55.3800       456
    55.4000       510
    55.4200       488
    55.4400       484
    55.4600       476
    55.4800       466
    55.5000       474
    55.5200       464
    55.5400       514
    55.5600       482
    55.5800       502
    55.6000       542
    55.6200       568
    55.6400       660
    55.6600       654
    55.6800       694
    55.7000       736
    55.7200       758
    55.7400       804
    55.7600       778
    55.7800       804
    55.8000       726
    55.8200       722
    55.8400       676
    55.8600       706
    55.8800       634
    55.9000       636
    55.9200       656
    55.9400       594
    55.9600       632
    55.9800       574
    56.0000       480
    56.0200       508
    56.0400       500
    56.0600       476
    56.0800       440
    56.1000       420
    56.1200       452
    56.1400       432
    56.1600       386
    56.1800       376
    56.2000       392
    56.2200       338
    56.2400       370
    56.2600       366
    56.2800       332
    56.3000       332
    56.3200       366
    56.3400       344
    56.3600       356
    56.3800       372
    56.4000       342
    56.4200       328
    56.4400       312
    56.4600       352
    56.4800       320
    56.5000       334
    56.5200       310
    56.5400       350
    56.5600       344
    56.5800       350
    56.6000       356
    56.6200       374
    56.6400       326
    56.6600       386
    56.6800       336
    56.7000       344
    56.7200       334
    56.7400       364
    56.7600       400
    56.7800       396
    56.8000       410
    56.8200       404
    56.8400       396
    56.8600       390
    56.8800       400
    56.9000       462
    56.9200       462
    56.9400       438
    56.9600       502
    56.9800       508
    57.0000       506
    57.0200       526
    57.0400       580
    57.0600       522
    57.0800       580
    57.1000       672
    57.1200       676
    57.1400       754
    57.1600       808
    57.1800       890
    57.2000       944
    57.2200      1110
    57.2400      1204
    57.2600      1326
    57.2800      1442
    57.3000      1656
    57.3200      1786
    57.3400      1948
    57.3600      2040
    57.3800      2092
    57.4000      2126
    57.4200      2132
    57.4400      2184
    57.4600      2008
    57.4800      2046
    57.5000      1922
    57.5200      1896
    57.5400      1918
    57.5600      1914
    57.5800      1858
    57.6000      1830
    57.6200      1832
    57.6400      1872
    57.6600      1814
    57.6800      1962
    57.7000      2078
    57.7200      2112
    57.7400      2094
    57.7600      2016
    57.7800      2008
    57.8000      1950
    57.8200      1862
    57.8400      1766
    57.8600      1704
    57.8800      1596
    57.9000      1588
    57.9200      1490
    57.9400      1418
    57.9600      1334
    57.9800      1254
    58.0000      1092
    58.0200      1124
    58.0400      1040
    58.0600       930
    58.0800       938
    58.1000       874
    58.1200       910
    58.1400       868
    58.1600       916
    58.1800       944
    58.2000       946
    58.2200       984
    58.2400       962
    58.2600      1026
    58.2800      1122
    58.3000      1198
    58.3200      1320
    58.3400      1426
    58.3600      1442
    58.3800      1544
    58.4000      1696
    58.4200      1752
    58.4400      1962
    58.4600      2068
    58.4800      2156
    58.5000      2262
    58.5200      2304
    58.5400      2588
    58.5600      2664
    58.5800      2740
    58.6000      2908
    58.6200      2984
    58.6400      3182
    58.6600      3254
    58.6800      3452
    58.7000      3604
    58.7200      3606
    58.7400      3716
    58.7600      3694
    58.7800      3626
    58.8000      3516
    58.8200      3364
    58.8400      3260
    58.8600      3154
    58.8800      2922
    58.9000      2780
    58.9200      2522
    58.9400      2368
    58.9600      2132
    58.9800      1980
    59.0000      1820
    59.0200      1622
    59.0400      1468
    59.0600      1416
    59.0800      1224
    59.1000      1114
    59.1200      1054
    59.1400       930
    59.1600       898
    59.1800       814
    59.2000       738
    59.2200       686
    59.2400       730
    59.2600       678
    59.2800       640
    59.3000       608
    59.3200       590
    59.3400       594
    59.3600       540
    59.3800       544
    59.4000       554
    59.4200       554
    59.4400       524
    59.4600       548
    59.4800       478
    59.5000       466
    59.5200       502
    59.5400       480
    59.5600       482
    59.5800       520
    59.6000       472
    59.6200       482
    59.6400       482
    59.6600       438
    59.6800       460
    59.7000       482
    59.7200       460
    59.7400       484
    59.7600       458
    59.7800       438
    59.8000       468
    59.8200       482
    59.8400       404
    59.8600       460
    59.8800       434
    59.9000       442
    59.9200       438
    59.9400       420
    59.9600       446
    59.9800       454
    60.0000       426
    60.0200       390
    60.0400       410
    60.0600       408
    60.0800       454
    60.1000       422
    60.1200       414
    60.1400       410
    60.1600       396
    60.1800       418
    60.2000       408
    60.2200       420
    60.2400       414
    60.2600       430
    60.2800       410
    60.3000       400
    60.3200       414
    60.3400       444
    60.3600       392
    60.3800       446
    60.4000       422
    60.4200       426
    60.4400       414
    60.4600       400
    60.4800       418
    60.5000       398
    60.5200       412
    60.5400       412
    60.5600       434
    60.5800       448
    60.6000       426
    60.6200       378
    60.6400       400
    60.6600       446
    60.6800       450
    60.7000       440
    60.7200       468
    60.7400       402
    60.7600       458
    60.7800       458
    60.8000       430
    60.8200       464
    60.8400       498
    60.8600       466
    60.8800       486
    60.9000       516
    60.9200       518
    60.9400       480
    60.9600       510
    60.9800       538
    61.0000       524
    61.0200       530
    61.0400       586
    61.0600       606
    61.0800       636
    61.1000       634
    61.1200       626
    61.1400       658
    61.1600       642
    61.1800       654
    61.2000       636
    61.2200       660
    61.2400       656
    61.2600       616
    61.2800       610
    61.3000       642
    61.3200       590
    61.3400       588
    61.3600       638
    61.3800       586
    61.4000       602
    61.4200       628
    61.4400       594
    61.4600       634
    61.4800       620
    61.5000       644
    61.5200       642
    61.5400       600
    61.5600       640
    61.5800       652
    61.6000       600
    61.6200       632
    61.6400       602
    61.6600       596
    61.6800       604
    61.7000       572
    61.7200       534
    61.7400       528
    61.7600       564
    61.7800       584
    61.8000       508
    61.8200       516
    61.8400       552
    61.8600       546
    61.8800       532
    61.9000       580
    61.9200       556
    61.9400       616
    61.9600       528
    61.9800       562
    62.0000       580
    62.0200       542
    62.0400       596
    62.0600       570
    62.0800       604
    62.1000       610
    62.1200       642
    62.1400       606
    62.1600       614
    62.1800       612
    62.2000       618
    62.2200       586
    62.2400       616
    62.2600       518
    62.2800       596
    62.3000       546
    62.3200       542
    62.3400       580
    62.3600       540
    62.3800       548
    62.4000       580
    62.4200       530
    62.4400       492
    62.4600       544
    62.4800       482
    62.5000       454
    62.5200       468
    62.5400       434
    62.5600       444
    62.5800       436
    62.6000       444
    62.6200       428
    62.6400       414
    62.6600       400
    62.6800       358
    62.7000       350
    62.7200       382
    62.7400       370
    62.7600       356
    62.7800       344
    62.8000       310
    62.8200       346
    62.8400       318
    62.8600       320
    62.8800       294
    62.9000       308
    62.9200       298
    62.9400       286
    62.9600       322
    62.9800       296
    63.0000       252
    63.0200       288
    63.0400       292
    63.0600       262
    63.0800       218
    63.1000       280
    63.1200       246
    63.1400       264
    63.1600       236
    63.1800       234
    63.2000       216
    63.2200       268
    63.2400       246
    63.2600       252
    63.2800       272
    63.3000       238
    63.3200       244
    63.3400       248
    63.3600       222
    63.3800       220
    63.4000       264
    63.4200       228
    63.4400       258
    63.4600       234
    63.4800       252
    63.5000       278
    63.5200       276
    63.5400       254
    63.5600       290
    63.5800       264
    63.6000       264
    63.6200       310
    63.6400       316
    63.6600       326
    63.6800       350
    63.7000       374
    63.7200       404
    63.7400       404
    63.7600       402
    63.7800       442
    63.8000       430
    63.8200       484
    63.8400       444
    63.8600       514
    63.8800       516
    63.9000       522
    63.9200       514
    63.9400       520
    63.9600       476
    63.9800       478
    64.0000       482
    64.0200       400
    64.0400       428
    64.0600       416
    64.0800       408
    64.1000       380
    64.1200       386
    64.1400       346
    64.1600       334
    64.1800       312
    64.2000       274
    64.2200       300
    64.2400       320
    64.2600       282
    64.2800       286
    64.3000       276
    64.3200       282
    64.3400       270
    64.3600       248
    64.3800       276
    64.4000       256
    64.4200       252
    64.4400       238
    64.4600       236
    64.4800       246
    64.5000       242
    64.5200       228
    64.5400       246
    64.5600       252
    64.5800       228
    64.6000       242
    64.6200       244
    64.6400       228
    64.6600       234
    64.6800       206
    64.7000       230
    64.7200       238
    64.7400       254
    64.7600       214
    64.7800       234
    64.8000       244
    64.8200       228
    64.8400       254
    64.8600       242
    64.8800       294
    64.9000       256
    64.9200       262
    64.9400       264
    64.9600       266
    64.9800       260
    65.0000       284
    65.0200       304
    65.0400       318
    65.0600       338
    65.0800       360
    65.1000       348
    65.1200       388
    65.1400       396
    65.1600       390
    65.1800       400
    65.2000       424
    65.2200       420
    65.2400       472
    65.2600       446
    65.2800       446
    65.3000       480
    65.3200       442
    65.3400       474
    65.3600       470
    65.3800       492
    65.4000       450
    65.4200       440
    65.4400       418
    65.4600       382
    65.4800       424
    65.5000       404
    65.5200       386
    65.5400       376
    65.5600       344
    65.5800       366
    65.6000       298
    65.6200       346
    65.6400       344
    65.6600       308
    65.6800       306
    65.7000       306
    65.7200       298
    65.7400       290
    65.7600       302
    65.7800       264
    65.8000       258
    65.8200       250
    65.8400       270
    65.8600       270
    65.8800       268
    65.9000       268
    65.9200       284
    65.9400       270
    65.9600       238
    65.9800       294
    66.0000       268
    66.0200       260
    66.0400       266
    66.0600       258
    66.0800       284
    66.1000       274
    66.1200       272
    66.1400       286
    66.1600       320
    66.1800       316
    66.2000       302
    66.2200       264
    66.2400       304
    66.2600       302
    66.2800       292
    66.3000       324
    66.3200       334
    66.3400       354
    66.3600       366
    66.3800       392
    66.4000       380
    66.4200       416
    66.4400       426
    66.4600       428
    66.4800       408
    66.5000       454
    66.5200       438
    66.5400       474
    66.5600       458
    66.5800       510
    66.6000       502
    66.6200       508
    66.6400       582
    66.6600       578
    66.6800       520
    66.7000       598
    66.7200       588
    66.7400       610
    66.7600       646
    66.7800       678
    66.8000       686
    66.8200       680
    66.8400       734
    66.8600       706
    66.8800       764
    66.9000       718
    66.9200       732
    66.9400       762
    66.9600       720
    66.9800       706
    67.0000       690
    67.0200       672
    67.0400       684
    67.0600       622
    67.0800       590
    67.1000       584
    67.1200       548
    67.1400       536
    67.1600       514
    67.1800       520
    67.2000       482
    67.2200       476
    67.2400       434
    67.2600       444
    67.2800       368
    67.3000       382
    67.3200       394
    67.3400       388
    67.3600       350
    67.3800       374
    67.4000       368
    67.4200       340
    67.4400       332
    67.4600       346
    67.4800       318
    67.5000       334
    67.5200       340
    67.5400       312
    67.5600       338
    67.5800       320
    67.6000       336
    67.6200       362
    67.6400       332
    67.6600       366
    67.6800       366
    67.7000       384
    67.7200       402
    67.7400       434
    67.7600       424
    67.7800       468
    67.8000       448
    67.8200       470
    67.8400       488
    67.8600       488
    67.8800       488
    67.9000       524
    67.9200       604
    67.9400       638
    67.9600       672
    67.9800       742
    68.0000       842
    68.0200       884
    68.0400       978
    68.0600      1058
    68.0800      1114
    68.1000      1250
    68.1200      1362
    68.1400      1382
    68.1600      1444
    68.1800      1466
    68.2000      1422
    68.2200      1442
    68.2400      1372
    68.2600      1384
    68.2800      1368
    68.3000      1370
    68.3200      1270
    68.3400      1256
    68.3600      1198
    68.3800      1144
    68.4000      1078
    68.4200      1018
    68.4400       996
    68.4600       950
    68.4800       844
    68.5000       854
    68.5200       724
    68.5400       718
    68.5600       754
    68.5800       690
    68.6000       676
    68.6200       628
    68.6400       644
    68.6600       622
    68.6800       570
    68.7000       554
    68.7200       480
    68.7400       492
    68.7600       502
    68.7800       438
    68.8000       448
    68.8200       408
    68.8400       408
    68.8600       434
    68.8800       414
    68.9000       396
    68.9200       388
    68.9400       388
    68.9600       434
    68.9800       354
    69.0000       378
    69.0200       370
    69.0400       356
    69.0600       358
    69.0800       378
    69.1000       352
    69.1200       380
    69.1400       380
    69.1600       364
    69.1800       376
    69.2000       440
    69.2200       438
    69.2400       450
    69.2600       470
    69.2800       492
    69.3000       498
    69.3200       522
    69.3400       538
    69.3600       576
    69.3800       562
    69.4000       594
    69.4200       606
    69.4400       624
    69.4600       606
    69.4800       620
    69.5000       594
    69.5200       568
    69.5400       504
    69.5600       528
    69.5800       518
    69.6000       498
    69.6200       500
    69.6400       496
    69.6600       426
    69.6800       422
    69.7000       432
    69.7200       406
    69.7400       382
    69.7600       334
    69.7800       358
    69.8000       346
    69.8200       354
    69.8400       336
    69.8600       286
    69.8800       304
    69.9000       274
    69.9200       264
    69.9400       280
    69.9600       256
    69.9800       250
    70.0000       272
    70.0200       242
    70.0400       250
    70.0600       248
    70.0800       252
    70.1000       252
    70.1200       252
    70.1400       212
    70.1600       220
    70.1800       220
    70.2000       226
    70.2200       218
    70.2400       194
    70.2600       194
    70.2800       202
    70.3000       256
    70.3200       252
    70.3400       260
    70.3600       230
    70.3800       224
    70.4000       224
    70.4200       236
    70.4400       228
    70.4600       262
    70.4800       256
    70.5000       234
    70.5200       242
    70.5400       254
    70.5600       238
    70.5800       276
    70.6000       296
    70.6200       280
    70.6400       252
    70.6600       294
    70.6800       270
    70.7000       274
    70.7200       260
    70.7400       294
    70.7600       244
    70.7800       262
    70.8000       252
    70.8200       260
    70.8400       240
    70.8600       254
    70.8800       236
    70.9000       230
    70.9200       236
    70.9400       250
    70.9600       278
    70.9800       252
    71.0000       250
    71.0200       290
    71.0400       252
    71.0600       274
    71.0800       242
    71.1000       252
    71.1200       298
    71.1400       328
    71.1600       292
    71.1800       308
    71.2000       346
    71.2200       328
    71.2400       338
    71.2600       378
    71.2800       410
    71.3000       382
    71.3200       430
    71.3400       468
    71.3600       488
    71.3800       514
    71.4000       542
    71.4200       558
    71.4400       614
    71.4600       656
    71.4800       666
    71.5000       654
    71.5200       714
    71.5400       728
    71.5600       720
    71.5800       696
    71.6000       684
    71.6200       672
    71.6400       662
    71.6600       674
    71.6800       694
    71.7000       704
    71.7200       618
    71.7400       644
    71.7600       632
    71.7800       616
    71.8000       584
    71.8200       588
    71.8400       588
    71.8600       582
    71.8800       588
    71.9000       564
    71.9200       512
    71.9400       546
    71.9600       512
    71.9800       520
    72.0000       518
    72.0200       480
    72.0400       528
    72.0600       474
    72.0800       466
    72.1000       500
    72.1200       516
    72.1400       520
    72.1600       504
    72.1800       486
    72.2000       550
    72.2200       488
    72.2400       492
    72.2600       528
    72.2800       522
    72.3000       552
    72.3200       502
    72.3400       534
    72.3600       506
    72.3800       514
    72.4000       502
    72.4200       488
    72.4400       460
    72.4600       486
    72.4800       444
    72.5000       448
    72.5200       444
    72.5400       430
    72.5600       390
    72.5800       410
    72.6000       390
    72.6200       398
    72.6400       328
    72.6600       352
    72.6800       368
    72.7000       344
    72.7200       354
    72.7400       350
    72.7600       346
    72.7800       308
    72.8000       328
    72.8200       332
    72.8400       328
    72.8600       344
    72.8800       322
    72.9000       336
    72.9200       312
    72.9400       350
    72.9600       342
    72.9800       300
    73.0000       330
    73.0200       320
    73.0400       294
    73.0600       306
    73.0800       272
    73.1000       270
    73.1200       300
    73.1400       280
    73.1600       260
    73.1800       244
    73.2000       274
    73.2200       230
    73.2400       266
    73.2600       266
    73.2800       238
    73.3000       248
    73.3200       234
    73.3400       242
    73.3600       226
    73.3800       238
    73.4000       206
    73.4200       236
    73.4400       216
    73.4600       212
    73.4800       250
    73.5000       248
    73.5200       202
    73.5400       218
    73.5600       218
    73.5800       240
    73.6000       242
    73.6200       206
    73.6400       228
    73.6600       234
    73.6800       238
    73.7000       218
    73.7200       226
    73.7400       204
    73.7600       238
    73.7800       242
    73.8000       232
    73.8200       266
    73.8400       250
    73.8600       244
    73.8800       258
    73.9000       296
    73.9200       256
    73.9400       272
    73.9600       278
    73.9800       280
    74.0000       278
    74.0200       306
    74.0400       314
    74.0600       290
    74.0800       308
    74.1000       310
    74.1200       336
    74.1400       334
    74.1600       332
    74.1800       314
    74.2000       310
    74.2200       318
    74.2400       326
    74.2600       286
    74.2800       290
    74.3000       322
    74.3200       262
    74.3400       294
    74.3600       252
    74.3800       300
    74.4000       280
    74.4200       300
    74.4400       266
    74.4600       242
    74.4800       244
    74.5000       234
    74.5200       252
    74.5400       252
    74.5600       248
    74.5800       242
    74.6000       212
    74.6200       216
    74.6400       190
    74.6600       212
    74.6800       204
    74.7000       214
    74.7200       216
    74.7400       200
    74.7600       208
    74.7800       214
    74.8000       230
    74.8200       210
    74.8400       198
    74.8600       196
    74.8800       186
    74.9000       198
    74.9200       226
    74.9400       210
    74.9600       208
    74.9800       200
    75.0000       200
    75.0200       218
    75.0400       202
    75.0600       196
    75.0800       202
    75.1000       214
    75.1200       198
    75.1400       224
    75.1600       224
    75.1800       208
    75.2000       232
    75.2200       202
    75.2400       262
    75.2600       220
    75.2800       222
    75.3000       208
    75.3200       218
    75.3400       232
    75.3600       194
    75.3800       210
    75.4000       212
    75.4200       218
    75.4400       198
    75.4600       212
    75.4800       230
    75.5000       244
    75.5200       204
    75.5400       268
    75.5600       238
    75.5800       210
    75.6000       254
    75.6200       266
    75.6400       252
    75.6600       248
    75.6800       246
    75.7000       262
    75.7200       252
    75.7400       294
    75.7600       248
    75.7800       328
    75.8000       290
    75.8200       308
    75.8400       306
    75.8600       318
    75.8800       336
    75.9000       304
    75.9200       316
    75.9400       324
    75.9600       312
    75.9800       280
    76.0000       300
    76.0200       332
    76.0400       310
    76.0600       286
    76.0800       306
    76.1000       304
    76.1200       296
    76.1400       320
    76.1600       320
    76.1800       322
    76.2000       304
    76.2200       304
    76.2400       330
    76.2600       278
    76.2800       318
    76.3000       332
    76.3200       324
    76.3400       360
    76.3600       322
    76.3800       328
    76.4000       346
    76.4200       364
    76.4400       340
    76.4600       358
    76.4800       370
    76.5000       364
    76.5200       374
    76.5400       376
    76.5600       376
    76.5800       390
    76.6000       386
    76.6200       426
    76.6400       454
    76.6600       406
    76.6800       458
    76.7000       448
    76.7200       420
    76.7400       444
    76.7600       398
    76.7800       450
    76.8000       398
    76.8200       390
    76.8400       396
    76.8600       384
    76.8800       372
    76.9000       400
    76.9200       398
    76.9400       386
    76.9600       360
    76.9800       398
    77.0000       392
    77.0200       364
    77.0400       354
    77.0600       342
    77.0800       338
    77.1000       306
    77.1200       348
    77.1400       326
    77.1600       386
    77.1800       340
    77.2000       348
    77.2200       362
    77.2400       388
    77.2600       350
    77.2800       382
    77.3000       394
    77.3200       416
    77.3400       386
    77.3600       462
    77.3800       490
    77.4000       494
    77.4200       538
    77.4400       584
    77.4600       572
    77.4800       604
    77.5000       682
    77.5200       720
    77.5400       764
    77.5600       778
    77.5800       798
    77.6000       868
    77.6200       902
    77.6400       894
    77.6600       912
    77.6800       930
    77.7000       886
    77.7200       852
    77.7400       866
    77.7600       870
    77.7800       812
    77.8000       818
    77.8200       820
    77.8400       802
    77.8600       744
    77.8800       736
    77.9000       740
    77.9200       678
    77.9400       640
    77.9600       672
    77.9800       564
    78.0000       530
    78.0200       552
    78.0400       488
    78.0600       482
    78.0800       472
    78.1000       456
    78.1200       424
    78.1400       412
    78.1600       378
    78.1800       406
    78.2000       390
    78.2200       436
    78.2400       390
    78.2600       366
    78.2800       368
    78.3000       376
    78.3200       330
    78.3400       406
    78.3600       380
    78.3800       358
    78.4000       368
    78.4200       406
    78.4400       424
    78.4600       396
    78.4800       406
    78.5000       438
    78.5200       430
    78.5400       438
    78.5600       432
    78.5800       452
    78.6000       442
    78.6200       454
    78.6400       424
    78.6600       428
    78.6800       442
    78.7000       488
    78.7200       476
    78.7400       434
    78.7600       468
    78.7800       464
    78.8000       434
    78.8200       442
    78.8400       410
    78.8600       410
    78.8800       390
    78.9000       416
    78.9200       394
    78.9400       350
    78.9600       372
    78.9800       310
    79.0000       328
    79.0200       362
    79.0400       314
    79.0600       312
    79.0800       304
    79.1000       288
    79.1200       296
    79.1400       276
    79.1600       266
    79.1800       286
    79.2000       238
    79.2200       258
    79.2400       260
    79.2600       240
    79.2800       258
    79.3000       276
    79.3200       258
    79.3400       228
    79.3600       290
    79.3800       272
    79.4000       272
    79.4200       240
    79.4400       238
    79.4600       268
    79.4800       270
    79.5000       280
    79.5200       264
    79.5400       276
    79.5600       272
    79.5800       264
    79.6000       262
    79.6200       276
    79.6400       286
    79.6600       278
    79.6800       268
    79.7000       274
    79.7200       280
    79.7400       282
    79.7600       276
    79.7800       276
    79.8000       284
    79.8200       290
    79.8400       272
    79.8600       298
    79.8800       286
    79.9000       248
    79.9200       284
    79.9400       284
    79.9600       300
    79.9800       256
    80.0000       246
    80.0200       292
    80.0400       272
    80.0600       248
    80.0800       238
    80.1000       238
    80.1200       278
    80.1400       222
    80.1600       218
    80.1800       240
    80.2000       250
    80.2200       244
    80.2400       272
    80.2600       242
    80.2800       254
    80.3000       266
    80.3200       220
    80.3400       262
    80.3600       248
    80.3800       274
    80.4000       290
    80.4200       226
    80.4400       244
    80.4600       244
    80.4800       248
    80.5000       246
    80.5200       240
    80.5400       258
    80.5600       238
    80.5800       250
    80.6000       246
    80.6200       248
    80.6400       234
    80.6600       264
    80.6800       250
    80.7000       234
    80.7200       242
    80.7400       234
    80.7600       232
    80.7800       224
    80.8000       230
    80.8200       204
    80.8400       234
    80.8600       232
    80.8800       206
    80.9000       234
    80.9200       236
    80.9400       198
    80.9600       214
    80.9800       232
    81.0000       190
    81.0200       208
    81.0400       224
    81.0600       212
    81.0800       188
    81.1000       238
    81.1200       230
    81.1400       232
    81.1600       246
    81.1800       240
    81.2000       264
    81.2200       240
    81.2400       270
    81.2600       244
    81.2800       264
    81.3000       294
    81.3200       264
    81.3400       252
    81.3600       270
    81.3800       256
    81.4000       272
    81.4200       304
    81.4400       296
    81.4600       284
    81.4800       236
    81.5000       248
    81.5200       296
    81.5400       280
    81.5600       254
    81.5800       262
    81.6000       258
    81.6200       270
    81.6400       240
    81.6600       282
    81.6800       256
    81.7000       264
    81.7200       246
    81.7400       272
    81.7600       244
    81.7800       252
    81.8000       284
    81.8200       276
    81.8400       268
    81.8600       280
    81.8800       228
    81.9000       296
    81.9200       254
    81.9400       292
    81.9600       304
    81.9800       284
    82.0000       304
    82.0200       292
    82.0400       278
    82.0600       290
    82.0800       290
    82.1000       278
    82.1200       308
    82.1400       284
    82.1600       302
    82.1800       314
    82.2000       328
    82.2200       330
    82.2400       330
    82.2600       350
    82.2800       344
    82.3000       340
    82.3200       320
    82.3400       336
    82.3600       336
    82.3800       354
    82.4000       344
    82.4200       346
    82.4400       352
    82.4600       340
    82.4800       352
    82.5000       356
    82.5200       336
    82.5400       322
    82.5600       336
    82.5800       358
    82.6000       354
    82.6200       370
    82.6400       382
    82.6600       392
    82.6800       388
    82.7000       402
    82.7200       398
    82.7400       414
    82.7600       416
    82.7800       396
    82.8000       432
    82.8200       430
    82.8400       360
    82.8600       454
    82.8800       440
    82.9000       436
    82.9200       428
    82.9400       394
    82.9600       406
    82.9800       392
    83.0000       408
    83.0200       436
    83.0400       394
    83.0600       406
    83.0800       408
    83.1000       390
    83.1200       418
    83.1400       426
    83.1600       404
    83.1800       430
    83.2000       378
    83.2200       374
    83.2400       398
    83.2600       382
    83.2800       424
    83.3000       368
    83.3200       380
    83.3400       422
    83.3600       376
    83.3800       422
    83.4000       398
    83.4200       354
    83.4400       368
    83.4600       362
    83.4800       376
    83.5000       350
    83.5200       372
    83.5400       352
    83.5600       326
    83.5800       380
    83.6000       336
    83.6200       308
    83.6400       330
    83.6600       344
    83.6800       326
    83.7000       304
    83.7200       280
    83.7400       288
    83.7600       304
    83.7800       292
    83.8000       280
    83.8200       308
    83.8400       312
    83.8600       316
    83.8800       302
    83.9000       310
    83.9200       282
    83.9400       308
    83.9600       298
    83.9800       298
    84.0000       284
    84.0200       288
    84.0400       284
    84.0600       304
    84.0800       316
    84.1000       286
    84.1200       302
    84.1400       262
    84.1600       300
    84.1800       324
    84.2000       294
    84.2200       264
    84.2400       282
    84.2600       260
    84.2800       264
    84.3000       246
    84.3200       274
    84.3400       268
    84.3600       240
    84.3800       266
    84.4000       268
    84.4200       226
    84.4400       282
    84.4600       262
    84.4800       276
    84.5000       248
    84.5200       246
    84.5400       272
    84.5600       272
    84.5800       236
    84.6000       212
    84.6200       220
    84.6400       226
    84.6600       256
    84.6800       240
    84.7000       214
    84.7200       246
    84.7400       232
    84.7600       238
    84.7800       238
    84.8000       220
    84.8200       228
    84.8400       218
    84.8600       240
    84.8800       240
    84.9000       202
    84.9200       228
    84.9400       216
    84.9600       234
    84.9800       206
    85.0000       226
    85.0200       222
    85.0400       216
    85.0600       212
    85.0800       222
    85.1000       226
    85.1200       234
    85.1400       200
    85.1600       212
    85.1800       232
    85.2000       210
    85.2200       222
    85.2400       214
    85.2600       222
    85.2800       244
    85.3000       238
    85.3200       236
    85.3400       220
    85.3600       246
    85.3800       228
    85.4000       238
    85.4200       276
    85.4400       256
    85.4600       246
    85.4800       290
    85.5000       306
    85.5200       306
    85.5400       274
    85.5600       266
    85.5800       286
    85.6000       272
    85.6200       266
    85.6400       282
    85.6600       288
    85.6800       260
    85.7000       246
    85.7200       278
    85.7400       268
    85.7600       242
    85.7800       234
    85.8000       246
    85.8200       264
    85.8400       248
    85.8600       258
    85.8800       236
    85.9000       218
    85.9200       268
    85.9400       244
    85.9600       256
    85.9800       240
    86.0000       224
    86.0200       228
    86.0400       216
    86.0600       226
    86.0800       212
    86.1000       214
    86.1200       202
    86.1400       206
    86.1600       210
    86.1800       224
    86.2000       186
    86.2200       214
    86.2400       210
    86.2600       208
    86.2800       186
    86.3000       218
    86.3200       210
    86.3400       222
    86.3600       206
    86.3800       226
    86.4000       214
    86.4200       200
    86.4400       232
    86.4600       210
    86.4800       232
    86.5000       232
    86.5200       218
    86.5400       218
    86.5600       258
    86.5800       248
    86.6000       228
    86.6200       246
    86.6400       240
    86.6600       260
    86.6800       252
    86.7000       274
    86.7200       282
    86.7400       290
    86.7600       248
    86.7800       302
    86.8000       280
    86.8200       302
    86.8400       264
    86.8600       330
    86.8800       316
    86.9000       306
    86.9200       326
    86.9400       352
    86.9600       332
    86.9800       336
    87.0000       358
    87.0200       370
    87.0400       354
    87.0600       364
    87.0800       368
    87.1000       360
    87.1200       366
    87.1400       378
    87.1600       366
    87.1800       414
    87.2000       370
    87.2200       398
    87.2400       414
    87.2600       410
    87.2800       414
    87.3000       434
    87.3200       440
    87.3400       448
    87.3600       474
    87.3800       430
    87.4000       430
    87.4200       416
    87.4400       428
    87.4600       428
    87.4800       402
    87.5000       416
    87.5200       344
    87.5400       400
    87.5600       408
    87.5800       366
    87.6000       396
    87.6200       384
    87.6400       402
    87.6600       412
    87.6800       394
    87.7000       398
    87.7200       420
    87.7400       372
    87.7600       380
    87.7800       384
    87.8000       372
    87.8200       366
    87.8400       440
    87.8600       392
    87.8800       406
    87.9000       392
    87.9200       416
    87.9400       376
    87.9600       370
    87.9800       382
    88.0000       388
    88.0200       370
    88.0400       366
    88.0600       346
    88.0800       368
    88.1000       372
    88.1200       360
    88.1400       364
    88.1600       336
    88.1800       352
    88.2000       316
    88.2200       310
    88.2400       306
    88.2600       322
    88.2800       304
    88.3000       318
    88.3200       308
    88.3400       284
    88.3600       302
    88.3800       284
    88.4000       308
    88.4200       264
    88.4400       288
    88.4600       274
    88.4800       288
    88.5000       290
    88.5200       306
    88.5400       302
    88.5600       308
    88.5800       316
    88.6000       274
    88.6200       294
    88.6400       294
    88.6600       282
    88.6800       328
    88.7000       300
    88.7200       298
    88.7400       322
    88.7600       256
    88.7800       280
    88.8000       300
    88.8200       294
    88.8400       268
    88.8600       286
    88.8800       286
    88.9000       256
    88.9200       292
    88.9400       280
    88.9600       260
    88.9800       260
    89.0000       256
    89.0200       250
    89.0400       256
    89.0600       246
    89.0800       248
    89.1000       282
    89.1200       274
    89.1400       226
    89.1600       240
    89.1800       266
    89.2000       212
    89.2200       240
    89.2400       252
    89.2600       250
    89.2800       244
    89.3000       230
    89.3200       246
    89.3400       246
    89.3600       244
    89.3800       266
    89.4000       284
    89.4200       260
    89.4400       256
    89.4600       240
    89.4800       256
    89.5000       266
    89.5200       272
    89.5400       286
    89.5600       284
    89.5800       274
    89.6000       260
    89.6200       264
    89.6400       254
    89.6600       286
    89.6800       292
    89.7000       292
    89.7200       248
    89.7400       284
    89.7600       296
    89.7800       284
    89.8000       300
    89.8200       292
    89.8400       282
    89.8600       328
    89.8800       292
    89.9000       316
    89.9200       306
    89.9400       314
    89.9600       324
    89.9800       316
    90.0000       318
