    10.0000       352
    10.0200       396
    10.0400       356
    10.0600       348
    10.0800       362
    10.1000       376
    10.1200       378
    10.1400       350
    10.1600       398
    10.1800       346
    10.2000       384
    10.2200       342
    10.2400       336
    10.2600       332
    10.2800       336
    10.3000       312
    10.3200       338
    10.3400       336
    10.3600       370
    10.3800       334
    10.4000       360
    10.4200       324
    10.4400       322
    10.4600       342
    10.4800       362
    10.5000       334
    10.5200       340
    10.5400       360
    10.5600       326
    10.5800       320
    10.6000       310
    10.6200       328
    10.6400       356
    10.6600       338
    10.6800       320
    10.7000       362
    10.7200       328
    10.7400       350
    10.7600       312
    10.7800       334
    10.8000       316
    10.8200       332
    10.8400       308
    10.8600       318
    10.8800       304
    10.9000       340
    10.9200       334
    10.9400       340
    10.9600       322
    10.9800       352
    11.0000       324
    11.0200       310
    11.0400       308
    11.0600       314
    11.0800       340
    11.1000       344
    11.1200       308
    11.1400       314
    11.1600       322
    11.1800       302
    11.2000       326
    11.2200       314
    11.2400       320
    11.2600       318
    11.2800       312
    11.3000       368
    11.3200       336
    11.3400       354
    11.3600       340
    11.3800       312
    11.4000       354
    11.4200       298
    11.4400       318
    11.4600       322
    11.4800       332
    11.5000       292
    11.5200       350
    11.5400       368
    11.5600       330
    11.5800       328
    11.6000       320
    11.6200       342
    11.6400       310
    11.6600       330
    11.6800       352
    11.7000       346
    11.7200       338
    11.7400       376
    11.7600       366
    11.7800       348
    11.8000       328
    11.8200       362
    11.8400       358
    11.8600       340
    11.8800       382
    11.9000       374
    11.9200       386
    11.9400       374
    11.9600       408
    11.9800       428
    12.0000       452
    12.0200       432
    12.0400       500
    12.0600       512
    12.0800       560
    12.1000       624
    12.1200       626
    12.1400       734
    12.1600       802
    12.1800       828
    12.2000       814
    12.2200       762
    12.2400       802
    12.2600       710
    12.2800       612
    12.3000       582
    12.3200       498
    12.3400       404
    12.3600       382
    12.3800       352
    12.4000       342
    12.4200       306
    12.4400       312
    12.4600       324
    12.4800       350
    12.5000       290
    12.5200       294
    12.5400       320
    12.5600       314
    12.5800       284
    12.6000       300
    12.6200       294
    12.6400       310
    12.6600       282
    12.6800       302
    12.7000       296
    12.7200       296
    12.7400       278
    12.7600       262
    12.7800       264
    12.8000       312
    12.8200       278
    12.8400       284
    12.8600       288
    12.8800       258
    12.9000       272
    12.9200       280
    12.9400       270
    12.9600       284
    12.9800       278
    13.0000       264
    13.0200       264
    13.0400       266
    13.0600       284
    13.0800       264
    13.1000       272
    13.1200       278
    13.1400       256
    13.1600       264
    13.1800       268
    13.2000       296
    13.2200       270
    13.2400       294
    13.2600       268
    13.2800       266
    13.3000       272
    13.3200       296
    13.3400       296
    13.3600       266
    13.3800       282
    13.4000       276
    13.4200       250
    13.4400       274
    13.4600       304
    13.4800       260
    13.5000       260
    13.5200       234
    13.5400       242
    13.5600       246
    13.5800       286
    13.6000       270
    13.6200       266
    13.6400       282
    13.6600       260
    13.6800       260
    13.7000       288
    13.7200       268
    13.7400       264
    13.7600       236
    13.7800       256
    13.8000       276
    13.8200       256
    13.8400       288
    13.8600       234
    13.8800       294
    13.9000       276
    13.9200       246
    13.9400       260
    13.9600       248
    13.9800       252
    14.0000       240
    14.0200       250
    14.0400       242
    14.0600       256
    14.0800       228
    14.1000       244
    14.1200       252
    14.1400       250
    14.1600       248
    14.1800       236
    14.2000       244
    14.2200       268
    14.2400       232
    14.2600       252
    14.2800       270
    14.3000       250
    14.3200       266
    14.3400       244
    14.3600       250
    14.3800       272
    14.4000       266
    14.4200       272
    14.4400       268
    14.4600       252
    14.4800       266
    14.5000       230
    14.5200       294
    14.5400       244
    14.5600       260
    14.5800       248
    14.6000       278
    14.6200       260
    14.6400       272
    14.6600       284
    14.6800       284
    14.7000       306
    14.7200       306
    14.7400       298
    14.7600       274
    14.7800       294
    14.8000       332
    14.8200       322
    14.8400       332
    14.8600       354
    14.8800       366
    14.9000       400
    14.9200       456
    14.9400       474
    14.9600       476
    14.9800       560
    15.0000       562
    15.0200       594
    15.0400       722
    15.0600       726
    15.0800       774
    15.1000       918
    15.1200       970
    15.1400      1090
    15.1600      1274
    15.1800      1304
    15.2000      1424
    15.2200      1348
    15.2400      1294
    15.2600      1082
    15.2800       936
    15.3000       668
    15.3200       582
    15.3400       474
    15.3600       392
    15.3800       376
    15.4000       332
    15.4200       344
    15.4400       328
    15.4600       304
    15.4800       322
    15.5000       286
    15.5200       302
    15.5400       266
    15.5600       286
    15.5800       274
    15.6000       298
    15.6200       256
    15.6400       266
    15.6600       242
    15.6800       254
    15.7000       246
    15.7200       220
    15.7400       228
    15.7600       266
    15.7800       254
    15.8000       240
    15.8200       264
    15.8400       262
    15.8600       270
    15.8800       222
    15.9000       222
    15.9200       270
    15.9400       260
    15.9600       218
    15.9800       264
    16.0000       246
    16.0200       240
    16.0400       250
    16.0600       244
    16.0800       240
    16.1000       290
    16.1200       256
    16.1400       262
    16.1600       244
    16.1800       254
    16.2000       290
    16.2200       260
    16.2400       302
    16.2600       294
    16.2800       278
    16.3000       296
    16.3200       304
    16.3400       300
    16.3600       322
    16.3800       270
    16.4000       270
    16.4200       278
    16.4400       246
    16.4600       276
    16.4800       298
    16.5000       292
    16.5200       318
    16.5400       292
    16.5600       308
    16.5800       312
    16.6000       318
    16.6200       314
    16.6400       336
    16.6600       350
    16.6800       330
    16.7000       364
    16.7200       416
    16.7400       370
    16.7600       402
    16.7800       432
    16.8000       530
    16.8200       548
    16.8400       616
    16.8600       638
    16.8800       752
    16.9000       864
    16.9200       968
    16.9400      1018
    16.9600      1276
    16.9800      1394
    17.0000      1750
    17.0200      1914
    17.0400      2070
    17.0600      2158
    17.0800      2036
    17.1000      1738
    17.1200      1466
    17.1400      1252
    17.1600      1122
    17.1800      1032
    17.2000      1030
    17.2200       974
    17.2400       926
    17.2600       920
    17.2800       812
    17.3000       814
    17.3200       696
    17.3400       682
    17.3600       638
    17.3800       546
    17.4000       488
    17.4200       498
    17.4400       438
    17.4600       454
    17.4800       426
    17.5000       404
    17.5200       404
    17.5400       384
    17.5600       368
    17.5800       400
    17.6000       398
    17.6200       424
    17.6400       428
    17.6600       436
    17.6800       458
    17.7000       486
    17.7200       516
    17.7400       544
    17.7600       578
    17.7800       582
    17.8000       658
    17.8200       700
    17.8400       688
    17.8600       714
    17.8800       654
    17.9000       602
    17.9200       518
    17.9400       442
    17.9600       342
    17.9800       322
    18.0000       322
    18.0200       254
    18.0400       280
    18.0600       256
    18.0800       244
    18.1000       222
    18.1200       242
    18.1400       230
    18.1600       216
    18.1800       228
    18.2000       222
    18.2200       224
    18.2400       248
    18.2600       224
    18.2800       218
    18.3000       210
    18.3200       246
    18.3400       236
    18.3600       222
    18.3800       234
    18.4000       198
    18.4200       208
    18.4400       206
    18.4600       204
    18.4800       228
    18.5000       194
    18.5200       190
    18.5400       242
    18.5600       202
    18.5800       208
    18.6000       220
    18.6200       236
    18.6400       216
    18.6600       202
    18.6800       222
    18.7000       198
    18.7200       198
    18.7400       232
    18.7600       246
    18.7800       196
    18.8000       214
    18.8200       220
    18.8400       212
    18.8600       232
    18.8800       216
    18.9000       220
    18.9200       236
    18.9400       204
    18.9600       262
    18.9800       214
    19.0000       252
    19.0200       256
    19.0400       276
    19.0600       254
    19.0800       270
    19.1000       280
    19.1200       282
    19.1400       338
    19.1600       354
    19.1800       386
    19.2000       346
    19.2200       438
    19.2400       440
    19.2600       468
    19.2800       508
    19.3000       600
    19.3200       636
    19.3400       718
    19.3600       802
    19.3800       882
    19.4000      1030
    19.4200      1216
    19.4400      1366
    19.4600      1516
    19.4800      1866
    19.5000      2270
    19.5200      2376
    19.5400      2818
    19.5600      2672
    19.5800      2524
    19.6000      2118
    19.6200      1738
    19.6400      1322
    19.6600      1116
    19.6800       960
    19.7000       788
    19.7200       664
    19.7400       714
    19.7600       746
    19.7800       790
    19.8000       778
    19.8200       866
    19.8400       914
    19.8600      1044
    19.8800      1134
    19.9000      1364
    19.9200      1604
    19.9400      1746
    19.9600      1990
    19.9800      1960
    20.0000      2022
    20.0200      1932
    20.0400      1828
    20.0600      1384
    20.0800      1152
    20.1000       952
    20.1200       778
    20.1400       616
    20.1600       522
    20.1800       424
    20.2000       420
    20.2200       396
    20.2400       366
    20.2600       330
    20.2800       292
    20.3000       328
    20.3200       292
    20.3400       292
    20.3600       298
    20.3800       290
    20.4000       274
    20.4200       266
    20.4400       264
    20.4600       262
    20.4800       264
    20.5000       212
    20.5200       252
    20.5400       242
    20.5600       228
    20.5800       254
    20.6000       214
    20.6200       246
    20.6400       256
    20.6600       260
    20.6800       238
    20.7000       228
    20.7200       258
    20.7400       274
    20.7600       280
    20.7800       296
    20.8000       326
    20.8200       346
    20.8400       320
    20.8600       362
    20.8800       368
    20.9000       450
    20.9200       476
    20.9400       520
    20.9600       574
    20.9800       634
    21.0000       722
    21.0200       796
    21.0400       886
    21.0600      1098
    21.0800      1242
    21.1000      1350
    21.1200      1616
    21.1400      1944
    21.1600      2048
    21.1800      2276
    21.2000      2348
    21.2200      2550
    21.2400      2582
    21.2600      2394
    21.2800      2168
    21.3000      1910
    21.3200      1568
    21.3400      1302
    21.3600      1058
    21.3800       854
    21.4000       702
    21.4200       592
    21.4400       538
    21.4600       462
    21.4800       400
    21.5000       376
    21.5200       320
    21.5400       334
    21.5600       284
    21.5800       294
    21.6000       288
    21.6200       270
    21.6400       282
    21.6600       278
    21.6800       244
    21.7000       256
    21.7200       238
    21.7400       218
    21.7600       228
    21.7800       232
    21.8000       194
    21.8200       198
    21.8400       198
    21.8600       214
    21.8800       238
    21.9000       206
    21.9200       222
    21.9400       188
    21.9600       222
    21.9800       200
    22.0000       218
    22.0200       200
    22.0400       208
    22.0600       228
    22.0800       214
    22.1000       222
    22.1200       216
    22.1400       212
    22.1600       210
    22.1800       230
    22.2000       216
    22.2200       240
    22.2400       210
    22.2600       224
    22.2800       248
    22.3000       200
    22.3200       264
    22.3400       250
    22.3600       224
    22.3800       230
    22.4000       250
    22.4200       290
    22.4400       316
    22.4600       322
    22.4800       328
    22.5000       392
    22.5200       392
    22.5400       430
    22.5600       504
    22.5800       532
    22.6000       610
    22.6200       700
    22.6400       754
    22.6600       842
    22.6800       980
    22.7000      1150
    22.7200      1324
    22.7400      1482
    22.7600      1842
    22.7800      2214
    22.8000      2528
    22.8200      2962
    22.8400      3324
    22.8600      3614
    22.8800      3620
    22.9000      3478
    22.9200      2902
    22.9400      2498
    22.9600      1940
    22.9800      1556
    23.0000      1150
    23.0200       880
    23.0400       768
    23.0600       668
    23.0800       578
    23.1000       532
    23.1200       446
    23.1400       472
    23.1600       460
    23.1800       430
    23.2000       418
    23.2200       326
    23.2400       360
    23.2600       336
    23.2800       308
    23.3000       284
    23.3200       272
    23.3400       284
    23.3600       280
    23.3800       252
    23.4000       254
    23.4200       232
    23.4400       262
    23.4600       252
    23.4800       224
    23.5000       238
    23.5200       216
    23.5400       228
    23.5600       230
    23.5800       230
    23.6000       214
    23.6200       206
    23.6400       206
    23.6600       238
    23.6800       252
    23.7000       212
    23.7200       216
    23.7400       246
    23.7600       236
    23.7800       224
    23.8000       250
    23.8200       242
    23.8400       256
    23.8600       218
    23.8800       242
    23.9000       264
    23.9200       270
    23.9400       268
    23.9600       236
    23.9800       260
    24.0000       262
    24.0200       282
    24.0400       264
    24.0600       248
    24.0800       258
    24.1000       282
    24.1200       280
    24.1400       262
    24.1600       290
    24.1800       282
    24.2000       306
    24.2200       326
    24.2400       400
    24.2600       388
    24.2800       376
    24.3000       428
    24.3200       486
    24.3400       514
    24.3600       594
    24.3800       652
    24.4000       798
    24.4200       834
    24.4400       960
    24.4600      1084
    24.4800      1226
    24.5000      1332
    24.5200      1418
    24.5400      1524
    24.5600      1588
    24.5800      1464
    24.6000      1450
    24.6200      1394
    24.6400      1190
    24.6600      1162
    24.6800       976
    24.7000       972
    24.7200       866
    24.7400       840
    24.7600       770
    24.7800       716
    24.8000       678
    24.8200       674
    24.8400       670
    24.8600       578
    24.8800       528
    24.9000       494
    24.9200       438
    24.9400       446
    24.9600       420
    24.9800       400
    25.0000       430
    25.0200       454
    25.0400       424
    25.0600       438
    25.0800       464
    25.1000       464
    25.1200       500
    25.1400       568
    25.1600       520
    25.1800       568
    25.2000       624
    25.2200       650
    25.2400       732
    25.2600       794
    25.2800       802
    25.3000       934
    25.3200       952
    25.3400      1108
    25.3600      1080
    25.3800      1042
    25.4000      1010
    25.4200       952
    25.4400       832
    25.4600       806
    25.4800       832
    25.5000       796
    25.5200       866
    25.5400       986
    25.5600       970
    25.5800      1042
    25.6000      1100
    25.6200       974
    25.6400      1022
    25.6600       886
    25.6800       766
    25.7000       676
    25.7200       602
    25.7400       504
    25.7600       514
    25.7800       430
    25.8000       422
    25.8200       336
    25.8400       326
    25.8600       344
    25.8800       316
    25.9000       308
    25.9200       346
    25.9400       286
    25.9600       288
    25.9800       240
    26.0000       300
    26.0200       288
    26.0400       276
    26.0600       278
    26.0800       260
    26.1000       258
    26.1200       244
    26.1400       282
    26.1600       228
    26.1800       290
    26.2000       240
    26.2200       282
    26.2400       292
    26.2600       276
    26.2800       264
    26.3000       266
    26.3200       286
    26.3400       278
    26.3600       276
    26.3800       300
    26.4000       300
    26.4200       318
    26.4400       290
    26.4600       268
    26.4800       324
    26.5000       332
    26.5200       290
    26.5400       290
    26.5600       272
    26.5800       300
    26.6000       296
    26.6200       296
    26.6400       312
    26.6600       302
    26.6800       316
    26.7000       312
    26.7200       310
    26.7400       276
    26.7600       268
    26.7800       278
    26.8000       286
    26.8200       266
    26.8400       270
    26.8600       248
    26.8800       226
    26.9000       288
    26.9200       250
    26.9400       250
    26.9600       216
    26.9800       262
    27.0000       280
    27.0200       266
    27.0400       274
    27.0600       286
    27.0800       304
    27.1000       310
    27.1200       324
    27.1400       314
    27.1600       378
    27.1800       380
    27.2000       406
    27.2200       420
    27.2400       454
    27.2600       508
    27.2800       574
    27.3000       654
    27.3200       706
    27.3400       780
    27.3600       936
    27.3800      1020
    27.4000      1134
    27.4200      1246
    27.4400      1428
    27.4600      1410
    27.4800      1538
    27.5000      1540
    27.5200      1470
    27.5400      1468
    27.5600      1362
    27.5800      1278
    27.6000      1146
    27.6200      1002
    27.6400       864
    27.6600       800
    27.6800       704
    27.7000       626
    27.7200       560
    27.7400       486
    27.7600       476
    27.7800       434
    27.8000       414
    27.8200       384
    27.8400       326
    27.8600       366
    27.8800       302
    27.9000       316
    27.9200       312
    27.9400       268
    27.9600       298
    27.9800       276
    28.0000       292
    28.0200       264
    28.0400       264
    28.0600       256
    28.0800       272
    28.1000       242
    28.1200       246
    28.1400       254
    28.1600       252
    28.1800       246
    28.2000       244
    28.2200       236
    28.2400       272
    28.2600       224
    28.2800       252
    28.3000       278
    28.3200       270
    28.3400       268
    28.3600       256
    28.3800       280
    28.4000       290
    28.4200       268
    28.4400       286
    28.4600       252
    28.4800       242
    28.5000       246
    28.5200       278
    28.5400       294
    28.5600       292
    28.5800       312
    28.6000       294
    28.6200       342
    28.6400       334
    28.6600       388
    28.6800       362
    28.7000       392
    28.7200       392
    28.7400       350
    28.7600       376
    28.7800       388
    28.8000       332
    28.8200       368
    28.8400       326
    28.8600       300
    28.8800       286
    28.9000       298
    28.9200       304
    28.9400       292
    28.9600       266
    28.9800       274
    29.0000       276
    29.0200       260
    29.0400       270
    29.0600       278
    29.0800       266
    29.1000       276
    29.1200       268
    29.1400       290
    29.1600       306
    29.1800       302
    29.2000       290
    29.2200       324
    29.2400       320
    29.2600       298
    29.2800       316
    29.3000       368
    29.3200       364
    29.3400       388
    29.3600       364
    29.3800       398
    29.4000       424
    29.4200       422
    29.4400       460
    29.4600       514
    29.4800       510
    29.5000       516
    29.5200       582
    29.5400       612
    29.5600       622
    29.5800       724
    29.6000       766
    29.6200       882
    29.6400       938
    29.6600      1038
    29.6800      1080
    29.7000      1062
    29.7200      1094
    29.7400      1070
    29.7600      1014
    29.7800       936
    29.8000       846
    29.8200       762
    29.8400       722
    29.8600       658
    29.8800       656
    29.9000       618
    29.9200       662
    29.9400       660
    29.9600       730
    29.9800       842
    30.0000       864
    30.0200      1018
    30.0400      1070
    30.0600      1242
    30.0800      1468
    30.1000      1700
    30.1200      1872
    30.1400      2206
    30.1600      2376
    30.1800      2396
    30.2000      2478
    30.2200      2574
    30.2400      2610
    30.2600      2484
    30.2800      2276
    30.3000      2124
    30.3200      1976
    30.3400      1928
    30.3600      1804
    30.3800      1752
    30.4000      1564
    30.4200      1626
    30.4400      1696
    30.4600      1760
    30.4800      1856
    30.5000      1918
    30.5200      2104
    30.5400      2448
    30.5600      2804
    30.5800      2994
    30.6000      3426
    30.6200      3876
    30.6400      4244
    30.6600      4714
    30.6800      5222
    30.7000      5574
    30.7200      5616
    30.7400      5332
    30.7600      4766
    30.7800      4342
    30.8000      3698
    30.8200      3268
    30.8400      2628
    30.8600      2022
    30.8800      1676
    30.9000      1354
    30.9200      1198
    30.9400      1040
    30.9600       914
    30.9800       832
    31.0000       748
    31.0200       670
    31.0400       632
    31.0600       598
    31.0800       532
    31.1000       504
    31.1200       506
    31.1400       518
    31.1600       388
    31.1800       428
    31.2000       404
    31.2200       350
    31.2400       346
    31.2600       346
    31.2800       360
    31.3000       362
    31.3200       348
    31.3400       332
    31.3600       298
    31.3800       314
    31.4000       312
    31.4200       310
    31.4400       316
    31.4600       316
    31.4800       314
    31.5000       330
    31.5200       328
    31.5400       316
    31.5600       352
    31.5800       332
    31.6000       356
    31.6200       332
    31.6400       408
    31.6600       414
    31.6800       392
    31.7000       450
    31.7200       490
    31.7400       446
    31.7600       500
    31.7800       584
    31.8000       642
    31.8200       734
    31.8400       722
    31.8600       872
    31.8800      1000
    31.9000      1156
    31.9200      1374
    31.9400      1478
    31.9600      1674
    31.9800      1914
    32.0000      1918
    32.0200      2038
    32.0400      1802
    32.0600      1624
    32.0800      1558
    32.1000      1408
    32.1200      1286
    32.1400      1112
    32.1600      1034
    32.1800      1012
    32.2000       886
    32.2200       932
    32.2400       960
    32.2600      1008
    32.2800      1106
    32.3000      1238
    32.3200      1398
    32.3400      1458
    32.3600      1620
    32.3800      1930
    32.4000      2368
    32.4200      2722
    32.4400      3062
    32.4600      3768
    32.4800      4476
    32.5000      4990
    32.5200      5624
    32.5400      6076
    32.5600      6406
    32.5800      6308
    32.6000      6090
    32.6200      5816
    32.6400      5220
    32.6600      4524
    32.6800      3916
    32.7000      3402
    32.7200      2736
    32.7400      2456
    32.7600      1942
    32.7800      1734
    32.8000      1524
    32.8200      1376
    32.8400      1186
    32.8600      1138
    32.8800      1042
    32.9000       966
    32.9200      1008
    32.9400       900
    32.9600       944
    32.9800       956
    33.0000      1010
    33.0200      1104
    33.0400      1170
    33.0600      1314
    33.0800      1328
    33.1000      1338
    33.1200      1434
    33.1400      1204
    33.1600      1154
    33.1800      1054
    33.2000       936
    33.2200       822
    33.2400       740
    33.2600       624
    33.2800       572
    33.3000       508
    33.3200       404
    33.3400       444
    33.3600       362
    33.3800       364
    33.4000       320
    33.4200       348
    33.4400       326
    33.4600       280
    33.4800       316
    33.5000       272
    33.5200       284
    33.5400       280
    33.5600       258
    33.5800       262
    33.6000       274
    33.6200       274
    33.6400       234
    33.6600       242
    33.6800       232
    33.7000       278
    33.7200       266
    33.7400       250
    33.7600       250
    33.7800       256
    33.8000       218
    33.8200       228
    33.8400       248
    33.8600       248
    33.8800       226
    33.9000       248
    33.9200       216
    33.9400       242
    33.9600       258
    33.9800       234
    34.0000       234
    34.0200       236
    34.0400       256
    34.0600       228
    34.0800       266
    34.1000       240
    34.1200       276
    34.1400       264
    34.1600       274
    34.1800       248
    34.2000       284
    34.2200       260
    34.2400       248
    34.2600       288
    34.2800       290
    34.3000       308
    34.3200       308
    34.3400       308
    34.3600       342
    34.3800       402
    34.4000       412
    34.4200       452
    34.4400       514
    34.4600       554
    34.4800       614
    34.5000       626
    34.5200       586
    34.5400       582
    34.5600       526
    34.5800       538
    34.6000       466
    34.6200       432
    34.6400       400
    34.6600       412
    34.6800       360
    34.7000       340
    34.7200       314
    34.7400       360
    34.7600       372
    34.7800       352
    34.8000       362
    34.8200       336
    34.8400       388
    34.8600       346
    34.8800       340
    34.9000       384
    34.9200       362
    34.9400       378
    34.9600       360
    34.9800       382
    35.0000       398
    35.0200       404
    35.0400       478
    35.0600       482
    35.0800       460
    35.1000       490
    35.1200       502
    35.1400       506
    35.1600       484
    35.1800       514
    35.2000       384
    35.2200       384
    35.2400       362
    35.2600       342
    35.2800       304
    35.3000       314
    35.3200       280
    35.3400       276
    35.3600       290
    35.3800       272
    35.4000       280
    35.4200       280
    35.4400       276
    35.4600       298
    35.4800       236
    35.5000       278
    35.5200       284
    35.5400       276
    35.5600       244
    35.5800       280
    35.6000       304
    35.6200       302
    35.6400       268
    35.6600       292
    35.6800       304
    35.7000       308
    35.7200       316
    35.7400       320
    35.7600       346
    35.7800       350
    35.8000       304
    35.8200       310
    35.8400       352
    35.8600       342
    35.8800       358
    35.9000       384
    35.9200       406
    35.9400       410
    35.9600       440
    35.9800       508
    36.0000       530
    36.0200       520
    36.0400       618
    36.0600       688
    36.0800       742
    36.1000       856
    36.1200       874
    36.1400       936
    36.1600       982
    36.1800       948
    36.2000       870
    36.2200       828
    36.2400       726
    36.2600       702
    36.2800       626
    36.3000       544
    36.3200       554
    36.3400       498
    36.3600       468
    36.3800       402
    36.4000       418
    36.4200       410
    36.4400       394
    36.4600       378
    36.4800       378
    36.5000       420
    36.5200       372
    36.5400       426
    36.5600       448
    36.5800       438
    36.6000       458
    36.6200       464
    36.6400       514
    36.6600       498
    36.6800       536
    36.7000       614
    36.7200       670
    36.7400       718
    36.7600       852
    36.7800       950
    36.8000      1060
    36.8200      1206
    36.8400      1308
    36.8600      1532
    36.8800      1696
    36.9000      1676
    36.9200      1734
    36.9400      1704
    36.9600      1540
    36.9800      1432
    37.0000      1418
    37.0200      1336
    37.0400      1226
    37.0600      1118
    37.0800      1096
    37.1000      1102
    37.1200      1080
    37.1400      1068
    37.1600      1018
    37.1800       936
    37.2000       964
    37.2200       944
    37.2400       940
    37.2600       880
    37.2800       868
    37.3000       866
    37.3200       800
    37.3400       792
    37.3600       696
    37.3800       730
    37.4000       646
    37.4200       632
    37.4400       596
    37.4600       620
    37.4800       620
    37.5000       594
    37.5200       554
    37.5400       618
    37.5600       590
    37.5800       636
    37.6000       656
    37.6200       682
    37.6400       706
    37.6600       730
    37.6800       738
    37.7000       772
    37.7200       820
    37.7400       822
    37.7600       794
    37.7800       856
    37.8000       846
    37.8200       830
    37.8400       852
    37.8600       880
    37.8800       952
    37.9000       982
    37.9200      1104
    37.9400      1256
    37.9600      1404
    37.9800      1568
    38.0000      1622
    38.0200      1652
    38.0400      1656
    38.0600      1646
    38.0800      1596
    38.1000      1526
    38.1200      1474
    38.1400      1400
    38.1600      1262
    38.1800      1172
    38.2000      1156
    38.2200      1168
    38.2400      1196
    38.2600      1136
    38.2800      1350
    38.3000      1446
    38.3200      1540
    38.3400      1702
    38.3600      1894
    38.3800      2302
    38.4000      2512
    38.4200      2784
    38.4400      3138
    38.4600      3410
    38.4800      3668
    38.5000      3780
    38.5200      3988
    38.5400      4026
    38.5600      4232
    38.5800      4394
    38.6000      4514
    38.6200      4700
    38.6400      4736
    38.6600      4964
    38.6800      4908
    38.7000      5004
    38.7200      4842
    38.7400      4630
    38.7600      4362
    38.7800      4126
    38.8000      3824
    38.8200      3402
    38.8400      2980
    38.8600      2616
    38.8800      2292
    38.9000      1936
    38.9200      1750
    38.9400      1532
    38.9600      1428
    38.9800      1240
    39.0000      1188
    39.0200      1098
    39.0400      1064
    39.0600      1098
    39.0800      1048
    39.1000      1054
    39.1200       972
    39.1400      1022
    39.1600      1064
    39.1800      1056
    39.2000       996
    39.2200      1072
    39.2400      1106
    39.2600      1116
    39.2800      1160
    39.3000      1094
    39.3200      1036
    39.3400      1120
    39.3600      1130
    39.3800      1154
    39.4000      1204
    39.4200      1204
    39.4400      1222
    39.4600      1246
    39.4800      1252
    39.5000      1248
    39.5200      1192
    39.5400      1236
    39.5600      1320
    39.5800      1394
    39.6000      1450
    39.6200      1580
    39.6400      1760
    39.6600      1824
    39.6800      1992
    39.7000      1914
    39.7200      1982
    39.7400      1880
    39.7600      1780
    39.7800      1624
    39.8000      1462
    39.8200      1432
    39.8400      1162
    39.8600      1058
    39.8800       874
    39.9000       868
    39.9200       746
    39.9400       696
    39.9600       660
    39.9800       600
    40.0000       584
    40.0200       628
    40.0400       580
    40.0600       572
    40.0800       622
    40.1000       572
    40.1200       630
    40.1400       674
    40.1600       730
    40.1800       726
    40.2000       710
    40.2200       774
    40.2400       792
    40.2600       776
    40.2800       790
    40.3000       842
    40.3200       762
    40.3400       798
    40.3600       840
    40.3800       842
    40.4000       838
    40.4200       880
    40.4400       990
    40.4600      1004
    40.4800      1108
    40.5000      1174
    40.5200      1256
    40.5400      1386
    40.5600      1466
    40.5800      1488
    40.6000      1578
    40.6200      1556
    40.6400      1518
    40.6600      1480
    40.6800      1476
    40.7000      1332
    40.7200      1212
    40.7400      1118
    40.7600      1002
    40.7800       906
    40.8000       870
    40.8200       772
    40.8400       716
    40.8600       678
    40.8800       648
    40.9000       650
    40.9200       662
    40.9400       608
    40.9600       592
    40.9800       600
    41.0000       694
    41.0200       692
    41.0400       722
    41.0600       770
    41.0800       854
    41.1000       918
    41.1200       942
    41.1400      1082
    41.1600      1170
    41.1800      1346
    41.2000      1432
    41.2200      1576
    41.2400      1602
    41.2600      1708
    41.2800      1752
    41.3000      1900
    41.3200      1944
    41.3400      1948
    41.3600      1916
    41.3800      1890
    41.4000      1946
    41.4200      1856
    41.4400      1822
    41.4600      1710
    41.4800      1638
    41.5000      1704
    41.5200      1802
    41.5400      1802
    41.5600      1632
    41.5800      1612
    41.6000      1572
    41.6200      1556
    41.6400      1438
    41.6600      1358
    41.6800      1302
    41.7000      1222
    41.7200      1150
    41.7400      1154
    41.7600      1152
    41.7800      1142
    41.8000      1312
    41.8200      1406
    41.8400      1318
    41.8600      1480
    41.8800      1444
    41.9000      1494
    41.9200      1516
    41.9400      1478
    41.9600      1440
    41.9800      1336
    42.0000      1300
    42.0200      1178
    42.0400      1080
    42.0600       954
    42.0800       862
    42.1000       808
    42.1200       676
    42.1400       650
    42.1600       648
    42.1800       576
    42.2000       512
    42.2200       464
    42.2400       480
    42.2600       456
    42.2800       478
    42.3000       412
    42.3200       402
    42.3400       384
    42.3600       424
    42.3800       440
    42.4000       374
    42.4200       412
    42.4400       362
    42.4600       354
    42.4800       374
    42.5000       302
    42.5200       354
    42.5400       378
    42.5600       332
    42.5800       326
    42.6000       336
    42.6200       358
    42.6400       348
    42.6600       362
    42.6800       348
    42.7000       328
    42.7200       378
    42.7400       340
    42.7600       354
    42.7800       394
    42.8000       388
    42.8200       390
    42.8400       406
    42.8600       396
    42.8800       418
    42.9000       462
    42.9200       476
    42.9400       478
    42.9600       500
    42.9800       518
    43.0000       616
    43.0200       628
    43.0400       726
    43.0600       826
    43.0800       926
    43.1000      1062
    43.1200      1124
    43.1400      1272
    43.1600      1450
    43.1800      1510
    43.2000      1576
    43.2200      1570
    43.2400      1630
    43.2600      1572
    43.2800      1516
    43.3000      1474
    43.3200      1384
    43.3400      1240
    43.3600      1196
    43.3800      1074
    43.4000       958
    43.4200       842
    43.4400       792
    43.4600       752
    43.4800       660
    43.5000       588
    43.5200       536
    43.5400       510
    43.5600       542
    43.5800       492
    43.6000       476
    43.6200       464
    43.6400       424
    43.6600       522
    43.6800       468
    43.7000       482
    43.7200       524
    43.7400       520
    43.7600       592
    43.7800       598
    43.8000       612
    43.8200       614
    43.8400       640
    43.8600       604
    43.8800       624
    43.9000       612
    43.9200       556
    43.9400       548
    43.9600       518
    43.9800       486
    44.0000       484
    44.0200       476
    44.0400       434
    44.0600       442
    44.0800       444
    44.1000       372
    44.1200       388
    44.1400       412
    44.1600       396
    44.1800       382
    44.2000       394
    44.2200       414
    44.2400       416
    44.2600       430
    44.2800       414
    44.3000       408
    44.3200       440
    44.3400       406
    44.3600       412
    44.3800       416
    44.4000       424
    44.4200       462
    44.4400       430
    44.4600       404
    44.4800       420
    44.5000       414
    44.5200       452
    44.5400       422
    44.5600       412
    44.5800       422
    44.6000       420
    44.6200       440
    44.6400       466
    44.6600       466
    44.6800       492
    44.7000       512
    44.7200       506
    44.7400       572
    44.7600       618
    44.7800       628
    44.8000       692
    44.8200       716
    44.8400       794
    44.8600       904
    44.8800       942
    44.9000      1094
    44.9200      1160
    44.9400      1296
    44.9600      1524
    44.9800      1566
    45.0000      1750
    45.0200      1832
    45.0400      1960
    45.0600      2062
    45.0800      2136
    45.1000      2158
    45.1200      2250
    45.1400      2250
    45.1600      2316
    45.1800      2318
    45.2000      2218
    45.2200      2274
    45.2400      2306
    45.2600      2364
    45.2800      2302
    45.3000      2118
    45.3200      2066
    45.3400      1876
    45.3600      1846
    45.3800      1830
    45.4000      1674
    45.4200      1646
    45.4400      1592
    45.4600      1550
    45.4800      1386
    45.5000      1358
    45.5200      1252
    45.5400      1192
    45.5600      1102
    45.5800      1110
    45.6000      1044
    45.6200       954
    45.6400       972
    45.6600       882
    45.6800       868
    45.7000       826
    45.7200       796
    45.7400       872
    45.7600       844
    45.7800       888
    45.8000       896
    45.8200       896
    45.8400       928
    45.8600       930
    45.8800       932
    45.9000       882
    45.9200       876
    45.9400       894
    45.9600       834
    45.9800       836
    46.0000       842
    46.0200       820
    46.0400       732
    46.0600       714
    46.0800       718
    46.1000       694
    46.1200       696
    46.1400       672
    46.1600       676
    46.1800       674
    46.2000       674
    46.2200       710
    46.2400       762
    46.2600       704
    46.2800       754
    46.3000       850
    46.3200       902
    46.3400       888
    46.3600       942
    46.3800      1074
    46.4000      1104
    46.4200      1262
    46.4400      1392
    46.4600      1488
    46.4800      1660
    46.5000      1936
    46.5200      2232
    46.5400      2504
    46.5600      2884
    46.5800      3336
    46.6000      3800
    46.6200      4204
    46.6400      4972
    46.6600      5318
    46.6800      5896
    46.7000      6094
    46.7200      6418
    46.7400      6434
    46.7600      5962
    46.7800      5730
    46.8000      5328
    46.8200      4968
    46.8400      4472
    46.8600      4006
    46.8800      3628
    46.9000      3136
    46.9200      2586
    46.9400      2216
    46.9600      1906
    46.9800      1632
    47.0000      1442
    47.0200      1248
    47.0400      1138
    47.0600      1024
    47.0800       976
    47.1000       864
    47.1200       780
    47.1400       766
    47.1600       688
    47.1800       640
    47.2000       622
    47.2200       568
    47.2400       608
    47.2600       550
    47.2800       526
    47.3000       546
    47.3200       512
    47.3400       508
    47.3600       476
    47.3800       460
    47.4000       454
    47.4200       418
    47.4400       454
    47.4600       466
    47.4800       436
    47.5000       400
    47.5200       444
    47.5400       424
    47.5600       420
    47.5800       428
    47.6000       410
    47.6200       448
    47.6400       478
    47.6600       468
    47.6800       460
    47.7000       462
    47.7200       492
    47.7400       548
    47.7600       600
    47.7800       606
    47.8000       604
    47.8200       648
    47.8400       642
    47.8600       666
    47.8800       676
    47.9000       700
    47.9200       618
    47.9400       638
    47.9600       644
    47.9800       622
    48.0000       594
    48.0200       600
    48.0400       544
    48.0600       614
    48.0800       602
    48.1000       618
    48.1200       620
    48.1400       648
    48.1600       694
    48.1800       760
    48.2000       732
    48.2200       786
    48.2400       744
    48.2600       830
    48.2800       806
    48.3000       806
    48.3200       862
    48.3400       842
    48.3600       810
    48.3800       920
    48.4000       842
    48.4200       916
    48.4400       958
    48.4600      1028
    48.4800      1026
    48.5000      1104
    48.5200      1144
    48.5400      1202
    48.5600      1228
    48.5800      1280
    48.6000      1330
    48.6200      1334
    48.6400      1314
    48.6600      1324
    48.6800      1252
    48.7000      1258
    48.7200      1222
    48.7400      1208
    48.7600      1044
    48.7800      1094
    48.8000      1000
    48.8200       894
    48.8400       890
    48.8600       838
    48.8800       790
    48.9000       722
    48.9200       670
    48.9400       656
    48.9600       592
    48.9800       580
    49.0000       536
    49.0200       522
    49.0400       494
    49.0600       456
    49.0800       478
    49.1000       430
    49.1200       400
    49.1400       406
    49.1600       380
    49.1800       398
    49.2000       326
    49.2200       366
    49.2400       332
    49.2600       332
    49.2800       338
    49.3000       358
    49.3200       336
    49.3400       326
    49.3600       332
    49.3800       286
    49.4000       320
    49.4200       302
    49.4400       306
    49.4600       322
    49.4800       286
    49.5000       302
    49.5200       298
    49.5400       288
    49.5600       338
    49.5800       312
    49.6000       314
    49.6200       334
    49.6400       336
    49.6600       352
    49.6800       332
    49.7000       322
    49.7200       374
    49.7400       332
    49.7600       350
    49.7800       374
    49.8000       312
    49.8200       350
    49.8400       364
    49.8600       372
    49.8800       356
    49.9000       392
    49.9200       390
    49.9400       454
    49.9600       436
    49.9800       488
    50.0000       500
    50.0200       504
    50.0400       510
    50.0600       592
    50.0800       646
    50.1000       736
    50.1200       770
    50.1400       792
    50.1600       948
    50.1800       998
    50.2000      1060
    50.2200      1108
    50.2400      1162
    50.2600      1292
    50.2800      1392
    50.3000      1322
    50.3200      1506
    50.3400      1450
    50.3600      1468
    50.3800      1518
    50.4000      1542
    50.4200      1476
    50.4400      1448
    50.4600      1432
    50.4800      1348
    50.5000      1440
    50.5200      1358
    50.5400      1292
    50.5600      1264
    50.5800      1186
    50.6000      1196
    50.6200      1154
    50.6400      1252
    50.6600      1210
    50.6800      1238
    50.7000      1318
    50.7200      1416
    50.7400      1432
    50.7600      1640
    50.7800      1716
    50.8000      1792
    50.8200      1880
    50.8400      1900
    50.8600      1802
    50.8800      1890
    50.9000      1772
    50.9200      1798
    50.9400      1720
    50.9600      1578
    50.9800      1480
    51.0000      1376
    51.0200      1308
    51.0400      1232
    51.0600      1100
    51.0800      1022
    51.1000      1008
    51.1200       882
    51.1400       914
    51.1600       838
    51.1800       768
    51.2000       736
    51.2200       712
    51.2400       728
    51.2600       652
    51.2800       682
    51.3000       698
    51.3200       668
    51.3400       690
    51.3600       748
    51.3800       714
    51.4000       750
    51.4200       748
    51.4400       804
    51.4600       712
    51.4800       810
    51.5000       776
    51.5200       712
    51.5400       766
    51.5600       720
    51.5800       706
    51.6000       730
    51.6200       746
    51.6400       756
    51.6600       792
    51.6800       814
    51.7000       790
    51.7200       846
    51.7400       878
    51.7600       942
    51.7800      1020
    51.8000      1018
    51.8200      1112
    51.8400      1168
    51.8600      1230
    51.8800      1312
    51.9000      1338
    51.9200      1324
    51.9400      1434
    51.9600      1508
    51.9800      1570
    52.0000      1536
    52.0200      1696
    52.0400      1776
    52.0600      1692
    52.0800      1754
    52.1000      1596
    52.1200      1586
    52.1400      1482
    52.1600      1322
    52.1800      1298
    52.2000      1246
    52.2200      1106
    52.2400      1050
    52.2600      1014
    52.2800       964
    52.3000       786
    52.3200       842
    52.3400       824
    52.3600       764
    52.3800       792
    52.4000       762
    52.4200       810
    52.4400       792
    52.4600       876
    52.4800       946
    52.5000      1004
    52.5200      1052
    52.5400      1124
    52.5600      1190
    52.5800      1216
    52.6000      1314
    52.6200      1302
    52.6400      1238
    52.6600      1284
    52.6800      1318
    52.7000      1242
    52.7200      1242
    52.7400      1206
    52.7600      1188
    52.7800      1066
    52.8000       980
    52.8200      1006
    52.8400       958
    52.8600       924
    52.8800       846
    52.9000       876
    52.9200       756
    52.9400       760
    52.9600       716
    52.9800       694
    53.0000       670
    53.0200       746
    53.0400       694
    53.0600       744
    53.0800       732
    53.1000       778
    53.1200       864
    53.1400       916
    53.1600      1016
    53.1800      1032
    53.2000      1164
    53.2200      1226
    53.2400      1306
    53.2600      1350
    53.2800      1398
    53.3000      1382
    53.3200      1338
    53.3400      1216
    53.3600      1224
    53.3800      1092
    53.4000      1090
    53.4200      1070
    53.4400       958
    53.4600       916
    53.4800       916
    53.5000       800
    53.5200       736
    53.5400       728
    53.5600       652
    53.5800       608
    53.6000       594
    53.6200       604
    53.6400       560
    53.6600       552
    53.6800       554
    53.7000       514
    53.7200       502
    53.7400       538
    53.7600       486
    53.7800       500
    53.8000       506
    53.8200       460
    53.8400       474
    53.8600       482
    53.8800       448
    53.9000       442
    53.9200       438
    53.9400       432
    53.9600       474
    53.9800       456
    54.0000       450
    54.0200       444
    54.0400       444
    54.0600       426
    54.0800       424
    54.1000       426
    54.1200       434
    54.1400       460
    54.1600       438
    54.1800       476
    54.2000       464
    54.2200       462
    54.2400       502
    54.2600       486
    54.2800       496
    54.3000       574
    54.3200       558
    54.3400       538
    54.3600       606
    54.3800       564
    54.4000       608
    54.4200       634
    54.4400       568
    54.4600       618
    54.4800       674
    54.5000       702
    54.5200       690
    54.5400       768
    54.5600       760
    54.5800       802
    54.6000       792
    54.6200       796
    54.6400       776
    54.6600       836
    54.6800       818
    54.7000       846
    54.7200       852
    54.7400       868
    54.7600       908
    54.7800       900
    54.8000       910
    54.8200       862
    54.8400       836
    54.8600       814
    54.8800       798
    54.9000       782
    54.9200       828
    54.9400       726
    54.9600       800
    54.9800       830
    55.0000       864
    55.0200       880
    55.0400       886
    55.0600       880
    55.0800       900
    55.1000       944
    55.1200       964
    55.1400       996
    55.1600      1036
    55.1800      1040
    55.2000      1060
    55.2200      1044
    55.2400      1092
    55.2600      1014
    55.2800       974
    55.3000      1016
    55.3200       976
    55.3400       948
    55.3600       908
    55.3800       856
    55.4000       828
    55.4200       836
    55.4400       790
    55.4600       756
    55.4800       702
    55.5000       670
    55.5200       622
    55.5400       616
    55.5600       546
    55.5800       550
    55.6000       536
    55.6200       492
    55.6400       484
    55.6600       460
    55.6800       456
    55.7000       410
    55.7200       406
    55.7400       428
    55.7600       386
    55.7800       354
    55.8000       366
    55.8200       326
    55.8400       340
    55.8600       348
    55.8800       320
    55.9000       326
    55.9200       288
    55.9400       326
    55.9600       348
    55.9800       316
    56.0000       300
    56.0200       262
    56.0400       294
    56.0600       318
    56.0800       308
    56.1000       338
    56.1200       290
    56.1400       290
    56.1600       344
    56.1800       318
    56.2000       306
    56.2200       252
    56.2400       338
    56.2600       306
    56.2800       314
    56.3000       302
    56.3200       284
    56.3400       320
    56.3600       310
    56.3800       338
    56.4000       314
    56.4200       350
    56.4400       396
    56.4600       380
    56.4800       360
    56.5000       330
    56.5200       340
    56.5400       360
    56.5600       382
    56.5800       382
    56.6000       408
    56.6200       376
    56.6400       436
    56.6600       404
    56.6800       412
    56.7000       464
    56.7200       498
    56.7400       460
    56.7600       490
    56.7800       526
    56.8000       546
    56.8200       552
    56.8400       582
    56.8600       622
    56.8800       578
    56.9000       668
    56.9200       606
    56.9400       624
    56.9600       550
    56.9800       606
    57.0000       558
    57.0200       576
    57.0400       580
    57.0600       594
    57.0800       584
    57.1000       608
    57.1200       566
    57.1400       608
    57.1600       654
    57.1800       652
    57.2000       718
    57.2200       762
    57.2400       824
    57.2600       978
    57.2800       998
    57.3000      1118
    57.3200      1170
    57.3400      1326
    57.3600      1382
    57.3800      1422
    57.4000      1390
    57.4200      1438
    57.4400      1390
    57.4600      1304
    57.4800      1348
    57.5000      1306
    57.5200      1336
    57.5400      1206
    57.5600      1276
    57.5800      1234
    57.6000      1200
    57.6200      1146
    57.6400      1194
    57.6600      1154
    57.6800      1236
    57.7000      1240
    57.7200      1310
    57.7400      1262
    57.7600      1298
    57.7800      1296
    57.8000      1252
    57.8200      1142
    57.8400      1164
    57.8600      1124
    57.8800      1048
    57.9000       990
    57.9200       928
    57.9400       872
    57.9600       840
    57.9800       788
    58.0000       782
    58.0200       776
    58.0400       664
    58.0600       710
    58.0800       654
    58.1000       602
    58.1200       618
    58.1400       666
    58.1600       642
    58.1800       672
    58.2000       686
    58.2200       746
    58.2400       768
    58.2600       796
    58.2800       854
    58.3000       860
    58.3200       930
    58.3400      1010
    58.3600      1048
    58.3800      1126
    58.4000      1114
    58.4200      1188
    58.4400      1308
    58.4600      1390
    58.4800      1454
    58.5000      1530
    58.5200      1586
    58.5400      1556
    58.5600      1712
    58.5800      1842
    58.6000      1758
    58.6200      2004
    58.6400      2188
    58.6600      2240
    58.6800      2250
    58.7000      2402
    58.7200      2486
    58.7400      2404
    58.7600      2452
    58.7800      2430
    58.8000      2304
    58.8200      2356
    58.8400      2338
    58.8600      2168
    58.8800      2114
    58.9000      2004
    58.9200      1894
    58.9400      1652
    58.9600      1510
    58.9800      1450
    59.0000      1320
    59.0200      1214
    59.0400      1112
    59.0600      1072
    59.0800       980
    59.1000       946
    59.1200       948
    59.1400       872
    59.1600       848
    59.1800       830
    59.2000       794
    59.2200       820
    59.2400       846
    59.2600       876
    59.2800       874
    59.3000       956
    59.3200      1046
    59.3400      1096
    59.3600      1192
    59.3800      1212
    59.4000      1394
    59.4200      1434
    59.4400      1518
    59.4600      1500
    59.4800      1544
    59.5000      1530
    59.5200      1358
    59.5400      1388
    59.5600      1314
    59.5800      1430
    59.6000      1334
    59.6200      1364
    59.6400      1266
    59.6600      1260
    59.6800      1192
    59.7000      1180
    59.7200      1164
    59.7400      1100
    59.7600      1078
    59.7800       994
    59.8000      1032
    59.8200       966
    59.8400       992
    59.8600       926
    59.8800       896
    59.9000       912
    59.9200       872
    59.9400       842
    59.9600       788
    59.9800       754
    60.0000       748
    60.0200       724
    60.0400       686
    60.0600       644
    60.0800       690
    60.1000       578
    60.1200       638
    60.1400       586
    60.1600       582
    60.1800       560
    60.2000       522
    60.2200       452
    60.2400       506
    60.2600       468
    60.2800       470
    60.3000       448
    60.3200       436
    60.3400       462
    60.3600       408
    60.3800       438
    60.4000       436
    60.4200       402
    60.4400       410
    60.4600       394
    60.4800       378
    60.5000       396
    60.5200       394
    60.5400       424
    60.5600       398
    60.5800       382
    60.6000       408
    60.6200       374
    60.6400       394
    60.6600       402
    60.6800       460
    60.7000       406
    60.7200       400
    60.7400       406
    60.7600       412
    60.7800       416
    60.8000       436
    60.8200       424
    60.8400       488
    60.8600       446
    60.8800       522
    60.9000       462
    60.9200       496
    60.9400       502
    60.9600       560
    60.9800       508
    61.0000       542
    61.0200       548
    61.0400       604
    61.0600       600
    61.0800       678
    61.1000       654
    61.1200       652
    61.1400       684
    61.1600       732
    61.1800       742
    61.2000       754
    61.2200       754
    61.2400       746
    61.2600       706
    61.2800       774
    61.3000       736
    61.3200       760
    61.3400       796
    61.3600       766
    61.3800       792
    61.4000       844
    61.4200       806
    61.4400       820
    61.4600       878
    61.4800       900
    61.5000       966
    61.5200       940
    61.5400      1020
    61.5600      1090
    61.5800      1094
    61.6000      1096
    61.6200      1202
    61.6400      1174
    61.6600      1200
    61.6800      1216
    61.7000      1256
    61.7200      1180
    61.7400      1114
    61.7600      1052
    61.7800      1040
    61.8000      1006
    61.8200       962
    61.8400       894
    61.8600       892
    61.8800       870
    61.9000       812
    61.9200       708
    61.9400       766
    61.9600       682
    61.9800       634
    62.0000       606
    62.0200       600
    62.0400       602
    62.0600       594
    62.0800       566
    62.1000       564
    62.1200       608
    62.1400       496
    62.1600       548
    62.1800       488
    62.2000       538
    62.2200       478
    62.2400       488
    62.2600       502
    62.2800       478
    62.3000       494
    62.3200       498
    62.3400       434
    62.3600       448
    62.3800       438
    62.4000       466
    62.4200       446
    62.4400       430
    62.4600       426
    62.4800       398
    62.5000       370
    62.5200       416
    62.5400       434
    62.5600       414
    62.5800       394
    62.6000       346
    62.6200       420
    62.6400       418
    62.6600       412
    62.6800       426
    62.7000       410
    62.7200       400
    62.7400       402
    62.7600       366
    62.7800       354
    62.8000       366
    62.8200       394
    62.8400       390
    62.8600       368
    62.8800       406
    62.9000       368
    62.9200       360
    62.9400       354
    62.9600       358
    62.9800       404
    63.0000       328
    63.0200       294
    63.0400       306
    63.0600       344
    63.0800       304
    63.1000       296
    63.1200       306
    63.1400       250
    63.1600       256
    63.1800       284
    63.2000       298
    63.2200       258
    63.2400       270
    63.2600       284
    63.2800       258
    63.3000       262
    63.3200       268
    63.3400       252
    63.3600       292
    63.3800       284
    63.4000       282
    63.4200       268
    63.4400       276
    63.4600       252
    63.4800       274
    63.5000       278
    63.5200       322
    63.5400       296
    63.5600       332
    63.5800       348
    63.6000       346
    63.6200       326
    63.6400       370
    63.6600       360
    63.6800       388
    63.7000       438
    63.7200       412
    63.7400       424
    63.7600       490
    63.7800       504
    63.8000       518
    63.8200       576
    63.8400       624
    63.8600       680
    63.8800       656
    63.9000       656
    63.9200       694
    63.9400       762
    63.9600       694
    63.9800       690
    64.0000       656
    64.0200       658
    64.0400       662
    64.0600       594
    64.0800       570
    64.1000       574
    64.1200       564
    64.1400       592
    64.1600       488
    64.1800       496
    64.2000       454
    64.2200       444
    64.2400       420
    64.2600       398
    64.2800       370
    64.3000       376
    64.3200       350
    64.3400       328
    64.3600       350
    64.3800       342
    64.4000       310
    64.4200       276
    64.4400       280
    64.4600       268
    64.4800       286
    64.5000       264
    64.5200       244
    64.5400       268
    64.5600       262
    64.5800       284
    64.6000       246
    64.6200       242
    64.6400       234
    64.6600       264
    64.6800       236
    64.7000       254
    64.7200       232
    64.7400       262
    64.7600       222
    64.7800       246
    64.8000       224
    64.8200       256
    64.8400       230
    64.8600       228
    64.8800       280
    64.9000       240
    64.9200       226
    64.9400       256
    64.9600       270
    64.9800       270
    65.0000       282
    65.0200       254
    65.0400       290
    65.0600       308
    65.0800       290
    65.1000       328
    65.1200       312
    65.1400       332
    65.1600       390
    65.1800       314
    65.2000       374
    65.2200       360
    65.2400       392
    65.2600       402
    65.2800       452
    65.3000       404
    65.3200       436
    65.3400       430
    65.3600       404
    65.3800       410
    65.4000       430
    65.4200       408
    65.4400       392
    65.4600       416
    65.4800       404
    65.5000       416
    65.5200       398
    65.5400       438
    65.5600       358
    65.5800       420
    65.6000       382
    65.6200       392
    65.6400       392
    65.6600       382
    65.6800       374
    65.7000       346
    65.7200       372
    65.7400       386
    65.7600       324
    65.7800       334
    65.8000       332
    65.8200       344
    65.8400       360
    65.8600       292
    65.8800       296
    65.9000       324
    65.9200       294
    65.9400       332
    65.9600       300
    65.9800       274
    66.0000       260
    66.0200       304
    66.0400       272
    66.0600       264
    66.0800       266
    66.1000       256
    66.1200       262
    66.1400       270
    66.1600       308
    66.1800       282
    66.2000       260
    66.2200       292
    66.2400       282
    66.2600       326
    66.2800       312
    66.3000       294
    66.3200       310
    66.3400       314
    66.3600       346
    66.3800       376
    66.4000       368
    66.4200       396
    66.4400       366
    66.4600       396
    66.4800       428
    66.5000       462
    66.5200       442
    66.5400       418
    66.5600       464
    66.5800       486
    66.6000       462
    66.6200       496
    66.6400       560
    66.6600       546
    66.6800       554
    66.7000       624
    66.7200       660
    66.7400       706
    66.7600       746
    66.7800       774
    66.8000       782
    66.8200       916
    66.8400       884
    66.8600       972
    66.8800       902
    66.9000      1022
    66.9200      1006
    66.9400      1006
    66.9600       974
    66.9800       980
    67.0000       950
    67.0200       962
    67.0400       966
    67.0600       958
    67.0800       862
    67.1000       870
    67.1200       782
    67.1400       742
    67.1600       740
    67.1800       698
    67.2000       684
    67.2200       680
    67.2400       600
    67.2600       598
    67.2800       546
    67.3000       494
    67.3200       514
    67.3400       480
    67.3600       442
    67.3800       404
    67.4000       408
    67.4200       394
    67.4400       410
    67.4600       384
    67.4800       374
    67.5000       340
    67.5200       350
    67.5400       368
    67.5600       348
    67.5800       346
    67.6000       338
    67.6200       328
    67.6400       294
    67.6600       348
    67.6800       302
    67.7000       348
    67.7200       306
    67.7400       304
    67.7600       322
    67.7800       354
    67.8000       360
    67.8200       370
    67.8400       422
    67.8600       398
    67.8800       392
    67.9000       418
    67.9200       460
    67.9400       506
    67.9600       554
    67.9800       604
    68.0000       602
    68.0200       624
    68.0400       672
    68.0600       732
    68.0800       810
    68.1000       880
    68.1200       954
    68.1400       956
    68.1600       996
    68.1800      1000
    68.2000       974
    68.2200       980
    68.2400       976
    68.2600       978
    68.2800       962
    68.3000       984
    68.3200       982
    68.3400       898
    68.3600       880
    68.3800       846
    68.4000       790
    68.4200       756
    68.4400       804
    68.4600       724
    68.4800       700
    68.5000       612
    68.5200       602
    68.5400       552
    68.5600       528
    68.5800       514
    68.6000       518
    68.6200       472
    68.6400       436
    68.6600       454
    68.6800       422
    68.7000       418
    68.7200       434
    68.7400       400
    68.7600       388
    68.7800       406
    68.8000       378
    68.8200       374
    68.8400       360
    68.8600       364
    68.8800       340
    68.9000       334
    68.9200       342
    68.9400       314
    68.9600       344
    68.9800       322
    69.0000       294
    69.0200       334
    69.0400       318
    69.0600       348
    69.0800       314
    69.1000       348
    69.1200       334
    69.1400       348
    69.1600       352
    69.1800       352
    69.2000       356
    69.2200       400
    69.2400       392
    69.2600       426
    69.2800       422
    69.3000       418
    69.3200       474
    69.3400       438
    69.3600       460
    69.3800       438
    69.4000       498
    69.4200       496
    69.4400       464
    69.4600       502
    69.4800       458
    69.5000       456
    69.5200       458
    69.5400       428
    69.5600       416
    69.5800       460
    69.6000       426
    69.6200       446
    69.6400       398
    69.6600       386
    69.6800       388
    69.7000       384
    69.7200       370
    69.7400       340
    69.7600       326
    69.7800       374
    69.8000       362
    69.8200       324
    69.8400       340
    69.8600       372
    69.8800       340
    69.9000       358
    69.9200       332
    69.9400       374
    69.9600       374
    69.9800       352
    70.0000       358
    70.0200       368
    70.0400       366
    70.0600       326
    70.0800       342
    70.1000       300
    70.1200       354
    70.1400       348
    70.1600       286
    70.1800       318
    70.2000       300
    70.2200       294
    70.2400       288
    70.2600       316
    70.2800       266
    70.3000       268
    70.3200       254
    70.3400       292
    70.3600       252
    70.3800       274
    70.4000       222
    70.4200       258
    70.4400       238
    70.4600       234
    70.4800       244
    70.5000       216
    70.5200       268
    70.5400       252
    70.5600       228
    70.5800       232
    70.6000       236
    70.6200       246
    70.6400       230
    70.6600       234
    70.6800       236
    70.7000       232
    70.7200       224
    70.7400       234
    70.7600       236
    70.7800       202
    70.8000       206
    70.8200       234
    70.8400       248
    70.8600       206
    70.8800       216
    70.9000       220
    70.9200       204
    70.9400       212
    70.9600       196
    70.9800       222
    71.0000       218
    71.0200       232
    71.0400       218
    71.0600       232
    71.0800       216
    71.1000       236
    71.1200       234
    71.1400       252
    71.1600       206
    71.1800       258
    71.2000       288
    71.2200       264
    71.2400       280
    71.2600       286
    71.2800       306
    71.3000       316
    71.3200       296
    71.3400       322
    71.3600       372
    71.3800       354
    71.4000       388
    71.4200       426
    71.4400       482
    71.4600       450
    71.4800       472
    71.5000       454
    71.5200       542
    71.5400       524
    71.5600       448
    71.5800       528
    71.6000       542
    71.6200       526
    71.6400       508
    71.6600       452
    71.6800       518
    71.7000       482
    71.7200       466
    71.7400       482
    71.7600       456
    71.7800       470
    71.8000       454
    71.8200       434
    71.8400       476
    71.8600       444
    71.8800       434
    71.9000       412
    71.9200       408
    71.9400       412
    71.9600       388
    71.9800       398
    72.0000       418
    72.0200       368
    72.0400       374
    72.0600       388
    72.0800       386
    72.1000       338
    72.1200       376
    72.1400       406
    72.1600       384
    72.1800       396
    72.2000       438
    72.2200       444
    72.2400       504
    72.2600       436
    72.2800       470
    72.3000       424
    72.3200       442
    72.3400       500
    72.3600       462
    72.3800       456
    72.4000       484
    72.4200       496
    72.4400       510
    72.4600       490
    72.4800       496
    72.5000       458
    72.5200       540
    72.5400       474
    72.5600       522
    72.5800       538
    72.6000       568
    72.6200       534
    72.6400       540
    72.6600       570
    72.6800       538
    72.7000       582
    72.7200       558
    72.7400       554
    72.7600       550
    72.7800       562
    72.8000       520
    72.8200       506
    72.8400       498
    72.8600       496
    72.8800       502
    72.9000       490
    72.9200       492
    72.9400       488
    72.9600       486
    72.9800       476
    73.0000       480
    73.0200       458
    73.0400       410
    73.0600       412
    73.0800       418
    73.1000       424
    73.1200       374
    73.1400       334
    73.1600       344
    73.1800       330
    73.2000       330
    73.2200       330
    73.2400       324
    73.2600       338
    73.2800       292
    73.3000       284
    73.3200       272
    73.3400       270
    73.3600       268
    73.3800       306
    73.4000       248
    73.4200       272
    73.4400       252
    73.4600       252
    73.4800       244
    73.5000       234
    73.5200       216
    73.5400       252
    73.5600       250
    73.5800       278
    73.6000       230
    73.6200       240
    73.6400       276
    73.6600       238
    73.6800       226
    73.7000       264
    73.7200       266
    73.7400       240
    73.7600       252
    73.7800       232
    73.8000       266
    73.8200       268
    73.8400       260
    73.8600       258
    73.8800       268
    73.9000       238
    73.9200       290
    73.9400       244
    73.9600       252
    73.9800       270
    74.0000       260
    74.0200       238
    74.0400       254
    74.0600       280
    74.0800       254
    74.1000       278
    74.1200       288
    74.1400       274
    74.1600       276
    74.1800       284
    74.2000       296
    74.2200       276
    74.2400       262
    74.2600       296
    74.2800       274
    74.3000       280
    74.3200       230
    74.3400       258
    74.3600       230
    74.3800       232
    74.4000       250
    74.4200       214
    74.4400       234
    74.4600       220
    74.4800       238
    74.5000       216
    74.5200       224
    74.5400       190
    74.5600       196
    74.5800       214
    74.6000       206
    74.6200       226
    74.6400       170
    74.6600       190
    74.6800       176
    74.7000       190
    74.7200       202
    74.7400       202
    74.7600       200
    74.7800       184
    74.8000       190
    74.8200       174
    74.8400       166
    74.8600       218
    74.8800       220
    74.9000       208
    74.9200       192
    74.9400       208
    74.9600       208
    74.9800       214
    75.0000       196
    75.0200       224
    75.0400       230
    75.0600       204
    75.0800       200
    75.1000       228
    75.1200       236
    75.1400       230
    75.1600       208
    75.1800       234
    75.2000       238
    75.2200       212
    75.2400       250
    75.2600       248
    75.2800       246
    75.3000       238
    75.3200       268
    75.3400       234
    75.3600       258
    75.3800       230
    75.4000       248
    75.4200       248
    75.4400       274
    75.4600       228
    75.4800       242
    75.5000       224
    75.5200       242
    75.5400       232
    75.5600       280
    75.5800       292
    75.6000       268
    75.6200       252
    75.6400       212
    75.6600       266
    75.6800       246
    75.7000       244
    75.7200       228
    75.7400       272
    75.7600       226
    75.7800       264
    75.8000       260
    75.8200       270
    75.8400       250
    75.8600       238
    75.8800       252
    75.9000       254
    75.9200       240
    75.9400       228
    75.9600       230
    75.9800       228
    76.0000       250
    76.0200       258
    76.0400       220
    76.0600       290
    76.0800       280
    76.1000       244
    76.1200       232
    76.1400       230
    76.1600       256
    76.1800       242
    76.2000       272
    76.2200       260
    76.2400       258
    76.2600       308
    76.2800       282
    76.3000       314
    76.3200       334
    76.3400       330
    76.3600       292
    76.3800       308
    76.4000       350
    76.4200       366
    76.4400       328
    76.4600       362
    76.4800       348
    76.5000       374
    76.5200       382
    76.5400       348
    76.5600       398
    76.5800       398
    76.6000       390
    76.6200       426
    76.6400       454
    76.6600       418
    76.6800       420
    76.7000       420
    76.7200       424
    76.7400       410
    76.7600       436
    76.7800       408
    76.8000       406
    76.8200       414
    76.8400       430
    76.8600       418
    76.8800       382
    76.9000       400
    76.9200       380
    76.9400       342
    76.9600       358
    76.9800       354
    77.0000       360
    77.0200       344
    77.0400       330
    77.0600       358
    77.0800       306
    77.1000       312
    77.1200       324
    77.1400       340
    77.1600       344
    77.1800       340
    77.2000       370
    77.2200       376
    77.2400       358
    77.2600       358
    77.2800       362
    77.3000       368
    77.3200       398
    77.3400       376
    77.3600       410
    77.3800       392
    77.4000       458
    77.4200       452
    77.4400       456
    77.4600       450
    77.4800       534
    77.5000       540
    77.5200       568
    77.5400       582
    77.5600       616
    77.5800       632
    77.6000       706
    77.6200       676
    77.6400       678
    77.6600       698
    77.6800       696
    77.7000       676
    77.7200       670
    77.7400       668
    77.7600       692
    77.7800       664
    77.8000       636
    77.8200       634
    77.8400       588
    77.8600       588
    77.8800       600
    77.9000       586
    77.9200       534
    77.9400       542
    77.9600       504
    77.9800       466
    78.0000       460
    78.0200       458
    78.0400       440
    78.0600       422
    78.0800       374
    78.1000       392
    78.1200       406
    78.1400       376
    78.1600       372
    78.1800       328
    78.2000       384
    78.2200       320
    78.2400       364
    78.2600       358
    78.2800       352
    78.3000       330
    78.3200       342
    78.3400       352
    78.3600       334
    78.3800       320
    78.4000       360
    78.4200       344
    78.4400       338
    78.4600       360
    78.4800       374
    78.5000       378
    78.5200       376
    78.5400       384
    78.5600       374
    78.5800       328
    78.6000       386
    78.6200       396
    78.6400       412
    78.6600       412
    78.6800       396
    78.7000       366
    78.7200       416
    78.7400       412
    78.7600       384
    78.7800       376
    78.8000       392
    78.8200       398
    78.8400       364
    78.8600       364
    78.8800       382
    78.9000       362
    78.9200       344
    78.9400       318
    78.9600       314
    78.9800       290
    79.0000       342
    79.0200       350
    79.0400       288
    79.0600       308
    79.0800       288
    79.1000       282
    79.1200       286
    79.1400       252
    79.1600       266
    79.1800       274
    79.2000       260
    79.2200       272
    79.2400       272
    79.2600       256
    79.2800       248
    79.3000       232
    79.3200       252
    79.3400       258
    79.3600       246
    79.3800       244
    79.4000       278
    79.4200       272
    79.4400       252
    79.4600       268
    79.4800       254
    79.5000       258
    79.5200       248
    79.5400       270
    79.5600       250
    79.5800       270
    79.6000       244
    79.6200       270
    79.6400       250
    79.6600       226
    79.6800       266
    79.7000       268
    79.7200       276
    79.7400       258
    79.7600       220
    79.7800       258
    79.8000       252
    79.8200       258
    79.8400       244
    79.8600       248
    79.8800       262
    79.9000       270
    79.9200       234
    79.9400       240
    79.9600       258
    79.9800       242
    80.0000       268
    80.0200       254
    80.0400       240
    80.0600       240
    80.0800       254
    80.1000       264
    80.1200       254
    80.1400       268
    80.1600       240
    80.1800       276
    80.2000       226
    80.2200       270
    80.2400       252
    80.2600       238
    80.2800       306
    80.3000       260
    80.3200       246
    80.3400       272
    80.3600       262
    80.3800       286
    80.4000       254
    80.4200       282
    80.4400       280
    80.4600       294
    80.4800       296
    80.5000       304
    80.5200       300
    80.5400       282
    80.5600       286
    80.5800       278
    80.6000       290
    80.6200       262
    80.6400       304
    80.6600       300
    80.6800       306
    80.7000       262
    80.7200       278
    80.7400       288
    80.7600       256
    80.7800       262
    80.8000       252
    80.8200       254
    80.8400       260
    80.8600       250
    80.8800       236
    80.9000       244
    80.9200       236
    80.9400       258
    80.9600       246
    80.9800       240
    81.0000       252
    81.0200       258
    81.0400       230
    81.0600       244
    81.0800       234
    81.1000       276
    81.1200       232
    81.1400       226
    81.1600       240
    81.1800       232
    81.2000       234
    81.2200       254
    81.2400       260
    81.2600       236
    81.2800       236
    81.3000       230
    81.3200       256
    81.3400       240
    81.3600       258
    81.3800       282
    81.4000       252
    81.4200       254
    81.4400       244
    81.4600       248
    81.4800       238
    81.5000       244
    81.5200       260
    81.5400       304
    81.5600       244
    81.5800       238
    81.6000       236
    81.6200       266
    81.6400       266
    81.6600       256
    81.6800       258
    81.7000       266
    81.7200       266
    81.7400       254
    81.7600       274
    81.7800       242
    81.8000       258
    81.8200       300
    81.8400       282
    81.8600       302
    81.8800       302
    81.9000       288
    81.9200       318
    81.9400       284
    81.9600       288
    81.9800       286
    82.0000       280
    82.0200       296
    82.0400       316
    82.0600       294
    82.0800       302
    82.1000       324
    82.1200       342
    82.1400       306
    82.1600       312
    82.1800       346
    82.2000       356
    82.2200       316
    82.2400       362
    82.2600       340
    82.2800       338
    82.3000       324
    82.3200       342
    82.3400       380
    82.3600       366
    82.3800       370
    82.4000       370
    82.4200       366
    82.4400       376
    82.4600       396
    82.4800       356
    82.5000       382
    82.5200       386
    82.5400       390
    82.5600       400
    82.5800       382
    82.6000       402
    82.6200       432
    82.6400       414
    82.6600       448
    82.6800       450
    82.7000       490
    82.7200       480
    82.7400       514
    82.7600       490
    82.7800       526
    82.8000       618
    82.8200       572
    82.8400       630
    82.8600       580
    82.8800       634
    82.9000       644
    82.9200       640
    82.9400       644
    82.9600       616
    82.9800       648
    83.0000       584
    83.0200       626
    83.0400       620
    83.0600       620
    83.0800       556
    83.1000       618
    83.1200       622
    83.1400       604
    83.1600       520
    83.1800       544
    83.2000       556
    83.2200       546
    83.2400       540
    83.2600       482
    83.2800       498
    83.3000       462
    83.3200       448
    83.3400       404
    83.3600       488
    83.3800       436
    83.4000       452
    83.4200       380
    83.4400       406
    83.4600       424
    83.4800       396
    83.5000       344
    83.5200       342
    83.5400       380
    83.5600       316
    83.5800       330
    83.6000       290
    83.6200       330
    83.6400       306
    83.6600       312
    83.6800       302
    83.7000       298
    83.7200       272
    83.7400       278
    83.7600       316
    83.7800       292
    83.8000       274
    83.8200       302
    83.8400       290
    83.8600       298
    83.8800       286
    83.9000       320
    83.9200       262
    83.9400       274
    83.9600       272
    83.9800       302
    84.0000       268
    84.0200       308
    84.0400       298
    84.0600       302
    84.0800       300
    84.1000       306
    84.1200       332
    84.1400       268
    84.1600       296
    84.1800       306
    84.2000       284
    84.2200       336
    84.2400       322
    84.2600       298
    84.2800       282
    84.3000       318
    84.3200       318
    84.3400       308
    84.3600       326
    84.3800       292
    84.4000       324
    84.4200       346
    84.4400       310
    84.4600       298
    84.4800       330
    84.5000       280
    84.5200       294
    84.5400       318
    84.5600       290
    84.5800       282
    84.6000       290
    84.6200       288
    84.6400       296
    84.6600       312
    84.6800       280
    84.7000       284
    84.7200       312
    84.7400       296
    84.7600       304
    84.7800       274
    84.8000       296
    84.8200       294
    84.8400       306
    84.8600       282
    84.8800       282
    84.9000       278
    84.9200       272
    84.9400       318
    84.9600       286
    84.9800       266
    85.0000       240
    85.0200       234
    85.0400       250
    85.0600       284
    85.0800       252
    85.1000       246
    85.1200       286
    85.1400       272
    85.1600       274
    85.1800       292
    85.2000       270
    85.2200       272
    85.2400       244
    85.2600       252
    85.2800       250
    85.3000       236
    85.3200       248
    85.3400       286
    85.3600       248
    85.3800       272
    85.4000       284
    85.4200       296
    85.4400       288
    85.4600       276
    85.4800       276
    85.5000       266
    85.5200       274
    85.5400       322
    85.5600       290
    85.5800       312
    85.6000       286
    85.6200       282
    85.6400       278
    85.6600       294
    85.6800       282
    85.7000       302
    85.7200       286
    85.7400       276
    85.7600       276
    85.7800       262
    85.8000       280
    85.8200       252
    85.8400       280
    85.8600       276
    85.8800       244
    85.9000       246
    85.9200       270
    85.9400       270
    85.9600       248
    85.9800       274
    86.0000       264
    86.0200       250
    86.0400       210
    86.0600       248
    86.0800       252
    86.1000       260
    86.1200       244
    86.1400       214
    86.1600       228
    86.1800       260
    86.2000       260
    86.2200       242
    86.2400       246
    86.2600       250
    86.2800       194
    86.3000       222
    86.3200       242
    86.3400       194
    86.3600       226
    86.3800       236
    86.4000       228
    86.4200       238
    86.4400       210
    86.4600       244
    86.4800       218
    86.5000       212
    86.5200       268
    86.5400       238
    86.5600       236
    86.5800       250
    86.6000       240
    86.6200       248
    86.6400       270
    86.6600       244
    86.6800       250
    86.7000       242
    86.7200       294
    86.7400       262
    86.7600       300
    86.7800       302
    86.8000       304
    86.8200       320
    86.8400       338
    86.8600       322
    86.8800       342
    86.9000       338
    86.9200       358
    86.9400       346
    86.9600       372
    86.9800       394
    87.0000       344
    87.0200       382
    87.0400       348
    87.0600       348
    87.0800       360
    87.1000       340
    87.1200       352
    87.1400       316
    87.1600       308
    87.1800       308
    87.2000       336
    87.2200       316
    87.2400       328
    87.2600       338
    87.2800       300
    87.3000       294
    87.3200       274
    87.3400       316
    87.3600       304
    87.3800       286
    87.4000       284
    87.4200       304
    87.4400       278
    87.4600       270
    87.4800       284
    87.5000       250
    87.5200       266
    87.5400       322
    87.5600       306
    87.5800       290
    87.6000       304
    87.6200       304
    87.6400       278
    87.6600       288
    87.6800       318
    87.7000       352
    87.7200       370
    87.7400       346
    87.7600       352
    87.7800       380
    87.8000       352
    87.8200       404
    87.8400       406
    87.8600       412
    87.8800       358
    87.9000       388
    87.9200       418
    87.9400       418
    87.9600       468
    87.9800       396
    88.0000       454
    88.0200       408
    88.0400       394
    88.0600       430
    88.0800       444
    88.1000       422
    88.1200       442
    88.1400       454
    88.1600       378
    88.1800       438
    88.2000       390
    88.2200       368
    88.2400       400
    88.2600       418
    88.2800       394
    88.3000       410
    88.3200       396
    88.3400       404
    88.3600       426
    88.3800       378
    88.4000       420
    88.4200       392
    88.4400       414
    88.4600       418
    88.4800       356
    88.5000       422
    88.5200       358
    88.5400       404
    88.5600       394
    88.5800       390
    88.6000       374
    88.6200       394
    88.6400       370
    88.6600       396
    88.6800       364
    88.7000       398
    88.7200       360
    88.7400       364
    88.7600       370
    88.7800       350
    88.8000       316
    88.8200       334
    88.8400       334
    88.8600       306
    88.8800       334
    88.9000       312
    88.9200       288
    88.9400       302
    88.9600       314
    88.9800       268
    89.0000       272
    89.0200       278
    89.0400       288
    89.0600       258
    89.0800       268
    89.1000       268
    89.1200       286
    89.1400       248
    89.1600       252
    89.1800       276
    89.2000       246
    89.2200       262
    89.2400       244
    89.2600       254
    89.2800       228
    89.3000       266
    89.3200       216
    89.3400       210
    89.3600       246
    89.3800       262
    89.4000       246
    89.4200       254
    89.4400       286
    89.4600       256
    89.4800       240
    89.5000       238
    89.5200       248
    89.5400       248
    89.5600       252
    89.5800       256
    89.6000       260
    89.6200       232
    89.6400       246
    89.6600       264
    89.6800       260
    89.7000       258
    89.7200       252
    89.7400       252
    89.7600       232
    89.7800       266
    89.8000       248
    89.8200       280
    89.8400       284
    89.8600       250
    89.8800       266
    89.9000       258
    89.9200       274
    89.9400       298
    89.9600       268
    89.9800       280
    90.0000       278
