    10.0000       432
    10.0200       418
    10.0400       470
    10.0600       502
    10.0800       474
    10.1000       498
    10.1200       462
    10.1400       450
    10.1600       472
    10.1800       402
    10.2000       392
    10.2200       366
    10.2400       376
    10.2600       362
    10.2800       414
    10.3000       340
    10.3200       386
    10.3400       350
    10.3600       322
    10.3800       360
    10.4000       338
    10.4200       358
    10.4400       356
    10.4600       334
    10.4800       348
    10.5000       338
    10.5200       340
    10.5400       390
    10.5600       378
    10.5800       370
    10.6000       376
    10.6200       326
    10.6400       330
    10.6600       342
    10.6800       350
    10.7000       360
    10.7200       334
    10.7400       312
    10.7600       346
    10.7800       348
    10.8000       348
    10.8200       368
    10.8400       326
    10.8600       348
    10.8800       338
    10.9000       330
    10.9200       332
    10.9400       332
    10.9600       346
    10.9800       322
    11.0000       334
    11.0200       330
    11.0400       332
    11.0600       330
    11.0800       350
    11.1000       304
    11.1200       328
    11.1400       300
    11.1600       362
    11.1800       332
    11.2000       330
    11.2200       306
    11.2400       326
    11.2600       304
    11.2800       340
    11.3000       314
    11.3200       348
    11.3400       290
    11.3600       344
    11.3800       294
    11.4000       336
    11.4200       304
    11.4400       350
    11.4600       326
    11.4800       354
    11.5000       338
    11.5200       340
    11.5400       294
    11.5600       328
    11.5800       318
    11.6000       314
    11.6200       306
    11.6400       304
    11.6600       316
    11.6800       320
    11.7000       346
    11.7200       320
    11.7400       316
    11.7600       330
    11.7800       318
    11.8000       282
    11.8200       314
    11.8400       302
    11.8600       276
    11.8800       318
    11.9000       318
    11.9200       316
    11.9400       328
    11.9600       332
    11.9800       294
    12.0000       290
    12.0200       318
    12.0400       308
    12.0600       324
    12.0800       310
    12.1000       324
    12.1200       326
    12.1400       354
    12.1600       326
    12.1800       296
    12.2000       328
    12.2200       316
    12.2400       320
    12.2600       318
    12.2800       354
    12.3000       306
    12.3200       284
    12.3400       282
    12.3600       316
    12.3800       294
    12.4000       280
    12.4200       294
    12.4400       314
    12.4600       258
    12.4800       270
    12.5000       292
    12.5200       278
    12.5400       256
    12.5600       298
    12.5800       286
    12.6000       294
    12.6200       314
    12.6400       298
    12.6600       266
    12.6800       272
    12.7000       300
    12.7200       284
    12.7400       270
    12.7600       292
    12.7800       296
    12.8000       270
    12.8200       272
    12.8400       272
    12.8600       274
    12.8800       272
    12.9000       278
    12.9200       290
    12.9400       280
    12.9600       244
    12.9800       290
    13.0000       252
    13.0200       276
    13.0400       272
    13.0600       260
    13.0800       262
    13.1000       272
    13.1200       282
    13.1400       270
    13.1600       276
    13.1800       290
    13.2000       264
    13.2200       276
    13.2400       280
    13.2600       268
    13.2800       268
    13.3000       274
    13.3200       260
    13.3400       232
    13.3600       274
    13.3800       242
    13.4000       274
    13.4200       252
    13.4400       272
    13.4600       240
    13.4800       276
    13.5000       246
    13.5200       258
    13.5400       270
    13.5600       308
    13.5800       262
    13.6000       262
    13.6200       258
    13.6400       228
    13.6600       250
    13.6800       228
    13.7000       272
    13.7200       234
    13.7400       266
    13.7600       258
    13.7800       280
    13.8000       248
    13.8200       242
    13.8400       274
    13.8600       218
    13.8800       260
    13.9000       254
    13.9200       242
    13.9400       270
    13.9600       276
    13.9800       252
    14.0000       266
    14.0200       250
    14.0400       282
    14.0600       248
    14.0800       246
    14.1000       234
    14.1200       236
    14.1400       248
    14.1600       248
    14.1800       246
    14.2000       248
    14.2200       254
    14.2400       240
    14.2600       268
    14.2800       230
    14.3000       256
    14.3200       240
    14.3400       234
    14.3600       228
    14.3800       238
    14.4000       250
    14.4200       248
    14.4400       248
    14.4600       232
    14.4800       214
    14.5000       254
    14.5200       218
    14.5400       238
    14.5600       232
    14.5800       236
    14.6000       230
    14.6200       252
    14.6400       272
    14.6600       252
    14.6800       270
    14.7000       246
    14.7200       238
    14.7400       212
    14.7600       238
    14.7800       236
    14.8000       258
    14.8200       216
    14.8400       230
    14.8600       248
    14.8800       268
    14.9000       230
    14.9200       246
    14.9400       264
    14.9600       256
    14.9800       254
    15.0000       278
    15.0200       252
    15.0400       258
    15.0600       256
    15.0800       274
    15.1000       262
    15.1200       252
    15.1400       236
    15.1600       252
    15.1800       234
    15.2000       272
    15.2200       248
    15.2400       258
    15.2600       266
    15.2800       252
    15.3000       264
    15.3200       236
    15.3400       256
    15.3600       260
    15.3800       266
    15.4000       226
    15.4200       238
    15.4400       264
    15.4600       242
    15.4800       288
    15.5000       276
    15.5200       274
    15.5400       300
    15.5600       242
    15.5800       300
    15.6000       298
    15.6200       302
    15.6400       252
    15.6600       276
    15.6800       252
    15.7000       254
    15.7200       238
    15.7400       238
    15.7600       234
    15.7800       244
    15.8000       242
    15.8200       252
    15.8400       222
    15.8600       242
    15.8800       222
    15.9000       226
    15.9200       230
    15.9400       264
    15.9600       224
    15.9800       230
    16.0000       212
    16.0200       236
    16.0400       250
    16.0600       230
    16.0800       216
    16.1000       254
    16.1200       218
    16.1400       226
    16.1600       218
    16.1800       212
    16.2000       212
    16.2200       236
    16.2400       212
    16.2600       242
    16.2800       222
    16.3000       232
    16.3200       254
    16.3400       230
    16.3600       230
    16.3800       230
    16.4000       218
    16.4200       250
    16.4400       236
    16.4600       226
    16.4800       218
    16.5000       228
    16.5200       246
    16.5400       238
    16.5600       226
    16.5800       212
    16.6000       194
    16.6200       246
    16.6400       240
    16.6600       224
    16.6800       208
    16.7000       206
    16.7200       224
    16.7400       224
    16.7600       210
    16.7800       234
    16.8000       224
    16.8200       224
    16.8400       208
    16.8600       232
    16.8800       238
    16.9000       208
    16.9200       240
    16.9400       256
    16.9600       244
    16.9800       234
    17.0000       250
    17.0200       246
    17.0400       254
    17.0600       280
    17.0800       242
    17.1000       252
    17.1200       274
    17.1400       262
    17.1600       264
    17.1800       280
    17.2000       312
    17.2200       284
    17.2400       320
    17.2600       258
    17.2800       290
    17.3000       306
    17.3200       314
    17.3400       326
    17.3600       312
    17.3800       322
    17.4000       318
    17.4200       332
    17.4400       314
    17.4600       284
    17.4800       282
    17.5000       304
    17.5200       266
    17.5400       264
    17.5600       258
    17.5800       244
    17.6000       242
    17.6200       234
    17.6400       258
    17.6600       230
    17.6800       246
    17.7000       236
    17.7200       240
    17.7400       238
    17.7600       242
    17.7800       214
    17.8000       214
    17.8200       208
    17.8400       244
    17.8600       182
    17.8800       234
    17.9000       206
    17.9200       220
    17.9400       244
    17.9600       214
    17.9800       200
    18.0000       202
    18.0200       214
    18.0400       210
    18.0600       188
    18.0800       200
    18.1000       214
    18.1200       184
    18.1400       214
    18.1600       226
    18.1800       240
    18.2000       236
    18.2200       214
    18.2400       214
    18.2600       214
    18.2800       194
    18.3000       202
    18.3200       232
    18.3400       202
    18.3600       198
    18.3800       206
    18.4000       230
    18.4200       226
    18.4400       202
    18.4600       226
    18.4800       220
    18.5000       208
    18.5200       206
    18.5400       204
    18.5600       212
    18.5800       240
    18.6000       232
    18.6200       212
    18.6400       240
    18.6600       204
    18.6800       230
    18.7000       228
    18.7200       206
    18.7400       264
    18.7600       224
    18.7800       240
    18.8000       248
    18.8200       252
    18.8400       272
    18.8600       228
    18.8800       236
    18.9000       242
    18.9200       284
    18.9400       276
    18.9600       300
    18.9800       272
    19.0000       270
    19.0200       306
    19.0400       280
    19.0600       354
    19.0800       336
    19.1000       338
    19.1200       420
    19.1400       418
    19.1600       448
    19.1800       508
    19.2000       486
    19.2200       600
    19.2400       628
    19.2600       680
    19.2800       786
    19.3000       826
    19.3200       976
    19.3400      1060
    19.3600      1276
    19.3800      1416
    19.4000      1652
    19.4200      2008
    19.4400      2284
    19.4600      2640
    19.4800      3116
    19.5000      3486
    19.5200      3814
    19.5400      4032
    19.5600      3870
    19.5800      3568
    19.6000      3052
    19.6200      2396
    19.6400      1970
    19.6600      1654
    19.6800      1396
    19.7000      1282
    19.7200      1176
    19.7400      1152
    19.7600      1256
    19.7800      1334
    19.8000      1382
    19.8200      1676
    19.8400      1782
    19.8600      1986
    19.8800      2226
    19.9000      2484
    19.9200      2802
    19.9400      3120
    19.9600      3136
    19.9800      3296
    20.0000      3190
    20.0200      2962
    20.0400      2526
    20.0600      2186
    20.0800      1838
    20.1000      1472
    20.1200      1232
    20.1400      1056
    20.1600       910
    20.1800       924
    20.2000       988
    20.2200       916
    20.2400       910
    20.2600       946
    20.2800       992
    20.3000       982
    20.3200       914
    20.3400       920
    20.3600       882
    20.3800       820
    20.4000       740
    20.4200       660
    20.4400       564
    20.4600       534
    20.4800       462
    20.5000       408
    20.5200       380
    20.5400       358
    20.5600       328
    20.5800       302
    20.6000       272
    20.6200       292
    20.6400       290
    20.6600       284
    20.6800       272
    20.7000       246
    20.7200       256
    20.7400       220
    20.7600       246
    20.7800       250
    20.8000       224
    20.8200       254
    20.8400       226
    20.8600       242
    20.8800       252
    20.9000       228
    20.9200       238
    20.9400       230
    20.9600       260
    20.9800       240
    21.0000       266
    21.0200       270
    21.0400       262
    21.0600       260
    21.0800       260
    21.1000       268
    21.1200       270
    21.1400       262
    21.1600       254
    21.1800       292
    21.2000       330
    21.2200       272
    21.2400       294
    21.2600       324
    21.2800       284
    21.3000       286
    21.3200       262
    21.3400       240
    21.3600       244
    21.3800       230
    21.4000       248
    21.4200       226
    21.4400       240
    21.4600       218
    21.4800       228
    21.5000       232
    21.5200       222
    21.5400       224
    21.5600       192
    21.5800       248
    21.6000       218
    21.6200       232
    21.6400       228
    21.6600       228
    21.6800       198
    21.7000       232
    21.7200       240
    21.7400       222
    21.7600       228
    21.7800       212
    21.8000       208
    21.8200       206
    21.8400       216
    21.8600       192
    21.8800       228
    21.9000       204
    21.9200       210
    21.9400       240
    21.9600       204
    21.9800       204
    22.0000       232
    22.0200       206
    22.0400       236
    22.0600       220
    22.0800       252
    22.1000       190
    22.1200       200
    22.1400       224
    22.1600       230
    22.1800       252
    22.2000       234
    22.2200       236
    22.2400       250
    22.2600       244
    22.2800       258
    22.3000       286
    22.3200       286
    22.3400       340
    22.3600       298
    22.3800       330
    22.4000       368
    22.4200       402
    22.4400       408
    22.4600       424
    22.4800       498
    22.5000       534
    22.5200       642
    22.5400       628
    22.5600       714
    22.5800       862
    22.6000       902
    22.6200      1138
    22.6400      1286
    22.6600      1432
    22.6800      1702
    22.7000      1912
    22.7200      2240
    22.7400      2770
    22.7600      3242
    22.7800      3824
    22.8000      4216
    22.8200      4864
    22.8400      5282
    22.8600      5374
    22.8800      5192
    22.9000      4766
    22.9200      3996
    22.9400      3380
    22.9600      2578
    22.9800      2080
    23.0000      1592
    23.0200      1318
    23.0400      1042
    23.0600       910
    23.0800       880
    23.1000       746
    23.1200       706
    23.1400       632
    23.1600       644
    23.1800       568
    23.2000       514
    23.2200       540
    23.2400       482
    23.2600       444
    23.2800       468
    23.3000       424
    23.3200       374
    23.3400       366
    23.3600       366
    23.3800       352
    23.4000       336
    23.4200       352
    23.4400       322
    23.4600       308
    23.4800       316
    23.5000       286
    23.5200       316
    23.5400       314
    23.5600       290
    23.5800       308
    23.6000       310
    23.6200       322
    23.6400       302
    23.6600       312
    23.6800       314
    23.7000       330
    23.7200       386
    23.7400       338
    23.7600       352
    23.7800       326
    23.8000       338
    23.8200       344
    23.8400       330
    23.8600       350
    23.8800       328
    23.9000       336
    23.9200       342
    23.9400       302
    23.9600       358
    23.9800       368
    24.0000       344
    24.0200       366
    24.0400       358
    24.0600       368
    24.0800       400
    24.1000       402
    24.1200       390
    24.1400       392
    24.1600       444
    24.1800       440
    24.2000       468
    24.2200       462
    24.2400       522
    24.2600       574
    24.2800       686
    24.3000       772
    24.3200       864
    24.3400       970
    24.3600      1136
    24.3800      1318
    24.4000      1364
    24.4200      1624
    24.4400      1724
    24.4600      1868
    24.4800      1838
    24.5000      1802
    24.5200      1652
    24.5400      1538
    24.5600      1302
    24.5800      1098
    24.6000       916
    24.6200       734
    24.6400       640
    24.6600       552
    24.6800       470
    24.7000       424
    24.7200       362
    24.7400       336
    24.7600       308
    24.7800       320
    24.8000       300
    24.8200       298
    24.8400       258
    24.8600       278
    24.8800       282
    24.9000       266
    24.9200       228
    24.9400       258
    24.9600       280
    24.9800       252
    25.0000       266
    25.0200       244
    25.0400       228
    25.0600       250
    25.0800       232
    25.1000       256
    25.1200       228
    25.1400       278
    25.1600       254
    25.1800       244
    25.2000       280
    25.2200       286
    25.2400       284
    25.2600       324
    25.2800       316
    25.3000       348
    25.3200       390
    25.3400       332
    25.3600       438
    25.3800       428
    25.4000       478
    25.4200       532
    25.4400       624
    25.4600       700
    25.4800       768
    25.5000       820
    25.5200       988
    25.5400      1058
    25.5600      1184
    25.5800      1194
    25.6000      1240
    25.6200      1224
    25.6400      1112
    25.6600       980
    25.6800       812
    25.7000       786
    25.7200       622
    25.7400       562
    25.7600       478
    25.7800       398
    25.8000       384
    25.8200       342
    25.8400       318
    25.8600       318
    25.8800       316
    25.9000       292
    25.9200       302
    25.9400       286
    25.9600       298
    25.9800       256
    26.0000       322
    26.0200       330
    26.0400       368
    26.0600       350
    26.0800       310
    26.1000       378
    26.1200       378
    26.1400       388
    26.1600       454
    26.1800       486
    26.2000       502
    26.2200       532
    26.2400       632
    26.2600       714
    26.2800       754
    26.3000       898
    26.3200       988
    26.3400      1110
    26.3600      1196
    26.3800      1198
    26.4000      1280
    26.4200      1270
    26.4400      1364
    26.4600      1530
    26.4800      1508
    26.5000      1500
    26.5200      1572
    26.5400      1620
    26.5600      1582
    26.5800      1688
    26.6000      1714
    26.6200      1746
    26.6400      1820
    26.6600      1820
    26.6800      1822
    26.7000      1698
    26.7200      1646
    26.7400      1470
    26.7600      1354
    26.7800      1256
    26.8000      1070
    26.8200       932
    26.8400       776
    26.8600       704
    26.8800       674
    26.9000       570
    26.9200       586
    26.9400       540
    26.9600       484
    26.9800       492
    27.0000       466
    27.0200       466
    27.0400       458
    27.0600       486
    27.0800       476
    27.1000       476
    27.1200       472
    27.1400       478
    27.1600       470
    27.1800       480
    27.2000       456
    27.2200       378
    27.2400       384
    27.2600       372
    27.2800       370
    27.3000       384
    27.3200       298
    27.3400       322
    27.3600       308
    27.3800       316
    27.4000       286
    27.4200       300
    27.4400       316
    27.4600       300
    27.4800       268
    27.5000       284
    27.5200       250
    27.5400       272
    27.5600       236
    27.5800       244
    27.6000       262
    27.6200       258
    27.6400       254
    27.6600       264
    27.6800       246
    27.7000       252
    27.7200       236
    27.7400       274
    27.7600       262
    27.7800       276
    27.8000       260
    27.8200       258
    27.8400       290
    27.8600       288
    27.8800       286
    27.9000       328
    27.9200       324
    27.9400       334
    27.9600       372
    27.9800       336
    28.0000       408
    28.0200       414
    28.0400       464
    28.0600       452
    28.0800       524
    28.1000       574
    28.1200       656
    28.1400       728
    28.1600       820
    28.1800       944
    28.2000      1062
    28.2200      1174
    28.2400      1260
    28.2600      1366
    28.2800      1346
    28.3000      1300
    28.3200      1184
    28.3400      1048
    28.3600       914
    28.3800       772
    28.4000       650
    28.4200       532
    28.4400       474
    28.4600       386
    28.4800       364
    28.5000       320
    28.5200       350
    28.5400       312
    28.5600       286
    28.5800       262
    28.6000       280
    28.6200       266
    28.6400       246
    28.6600       258
    28.6800       236
    28.7000       218
    28.7200       230
    28.7400       236
    28.7600       240
    28.7800       246
    28.8000       212
    28.8200       244
    28.8400       254
    28.8600       230
    28.8800       202
    28.9000       256
    28.9200       210
    28.9400       192
    28.9600       212
    28.9800       216
    29.0000       202
    29.0200       230
    29.0400       248
    29.0600       220
    29.0800       218
    29.1000       222
    29.1200       238
    29.1400       226
    29.1600       228
    29.1800       218
    29.2000       230
    29.2200       210
    29.2400       258
    29.2600       228
    29.2800       236
    29.3000       234
    29.3200       280
    29.3400       256
    29.3600       276
    29.3800       290
    29.4000       306
    29.4200       314
    29.4400       350
    29.4600       362
    29.4800       342
    29.5000       350
    29.5200       366
    29.5400       358
    29.5600       340
    29.5800       356
    29.6000       338
    29.6200       366
    29.6400       320
    29.6600       296
    29.6800       264
    29.7000       282
    29.7200       290
    29.7400       266
    29.7600       242
    29.7800       244
    29.8000       262
    29.8200       242
    29.8400       238
    29.8600       258
    29.8800       214
    29.9000       234
    29.9200       258
    29.9400       242
    29.9600       226
    29.9800       244
    30.0000       240
    30.0200       246
    30.0400       262
    30.0600       266
    30.0800       266
    30.1000       258
    30.1200       292
    30.1400       290
    30.1600       296
    30.1800       346
    30.2000       354
    30.2200       266
    30.2400       312
    30.2600       322
    30.2800       336
    30.3000       334
    30.3200       302
    30.3400       300
    30.3600       314
    30.3800       330
    30.4000       342
    30.4200       318
    30.4400       320
    30.4600       348
    30.4800       362
    30.5000       358
    30.5200       378
    30.5400       394
    30.5600       406
    30.5800       434
    30.6000       458
    30.6200       470
    30.6400       470
    30.6600       518
    30.6800       464
    30.7000       456
    30.7200       466
    30.7400       458
    30.7600       438
    30.7800       412
    30.8000       398
    30.8200       376
    30.8400       358
    30.8600       350
    30.8800       306
    30.9000       334
    30.9200       342
    30.9400       304
    30.9600       298
    30.9800       294
    31.0000       274
    31.0200       266
    31.0400       260
    31.0600       270
    31.0800       286
    31.1000       278
    31.1200       266
    31.1400       252
    31.1600       280
    31.1800       248
    31.2000       276
    31.2200       264
    31.2400       302
    31.2600       322
    31.2800       302
    31.3000       320
    31.3200       296
    31.3400       298
    31.3600       306
    31.3800       312
    31.4000       342
    31.4200       354
    31.4400       354
    31.4600       370
    31.4800       406
    31.5000       424
    31.5200       442
    31.5400       500
    31.5600       506
    31.5800       552
    31.6000       624
    31.6200       650
    31.6400       722
    31.6600       798
    31.6800       870
    31.7000       938
    31.7200      1074
    31.7400      1138
    31.7600      1204
    31.7800      1298
    31.8000      1384
    31.8200      1508
    31.8400      1598
    31.8600      1758
    31.8800      1956
    31.9000      2152
    31.9200      2404
    31.9400      2604
    31.9600      2918
    31.9800      3156
    32.0000      3170
    32.0200      3028
    32.0400      2952
    32.0600      2724
    32.0800      2434
    32.1000      2204
    32.1200      2072
    32.1400      1900
    32.1600      1766
    32.1800      1638
    32.2000      1752
    32.2200      1776
    32.2400      1792
    32.2600      1912
    32.2800      2204
    32.3000      2242
    32.3200      2552
    32.3400      2834
    32.3600      3110
    32.3800      3464
    32.4000      4170
    32.4200      4722
    32.4400      5372
    32.4600      6170
    32.4800      7252
    32.5000      8032
    32.5200      8474
    32.5400      9014
    32.5600      8916
    32.5800      8710
    32.6000      8212
    32.6200      7522
    32.6400      6686
    32.6600      5668
    32.6800      4796
    32.7000      4000
    32.7200      3436
    32.7400      2852
    32.7600      2346
    32.7800      2000
    32.8000      1790
    32.8200      1596
    32.8400      1506
    32.8600      1402
    32.8800      1322
    32.9000      1276
    32.9200      1312
    32.9400      1302
    32.9600      1284
    32.9800      1424
    33.0000      1546
    33.0200      1598
    33.0400      1828
    33.0600      1900
    33.0800      1854
    33.1000      1932
    33.1200      1788
    33.1400      1644
    33.1600      1482
    33.1800      1304
    33.2000      1222
    33.2200      1084
    33.2400       876
    33.2600       852
    33.2800       656
    33.3000       606
    33.3200       582
    33.3400       504
    33.3600       496
    33.3800       444
    33.4000       396
    33.4200       388
    33.4400       382
    33.4600       340
    33.4800       336
    33.5000       358
    33.5200       292
    33.5400       308
    33.5600       304
    33.5800       274
    33.6000       288
    33.6200       288
    33.6400       262
    33.6600       274
    33.6800       302
    33.7000       252
    33.7200       274
    33.7400       270
    33.7600       268
    33.7800       244
    33.8000       222
    33.8200       254
    33.8400       238
    33.8600       226
    33.8800       246
    33.9000       208
    33.9200       258
    33.9400       270
    33.9600       250
    33.9800       244
    34.0000       214
    34.0200       252
    34.0400       274
    34.0600       260
    34.0800       264
    34.1000       272
    34.1200       244
    34.1400       264
    34.1600       294
    34.1800       276
    34.2000       236
    34.2200       252
    34.2400       252
    34.2600       238
    34.2800       272
    34.3000       262
    34.3200       270
    34.3400       260
    34.3600       260
    34.3800       268
    34.4000       238
    34.4200       294
    34.4400       296
    34.4600       292
    34.4800       308
    34.5000       328
    34.5200       288
    34.5400       340
    34.5600       320
    34.5800       314
    34.6000       324
    34.6200       326
    34.6400       298
    34.6600       330
    34.6800       322
    34.7000       310
    34.7200       302
    34.7400       332
    34.7600       264
    34.7800       308
    34.8000       290
    34.8200       310
    34.8400       296
    34.8600       292
    34.8800       286
    34.9000       312
    34.9200       278
    34.9400       334
    34.9600       310
    34.9800       356
    35.0000       352
    35.0200       358
    35.0400       346
    35.0600       364
    35.0800       374
    35.1000       394
    35.1200       432
    35.1400       402
    35.1600       410
    35.1800       364
    35.2000       348
    35.2200       344
    35.2400       326
    35.2600       332
    35.2800       296
    35.3000       304
    35.3200       298
    35.3400       296
    35.3600       312
    35.3800       308
    35.4000       322
    35.4200       278
    35.4400       290
    35.4600       326
    35.4800       282
    35.5000       332
    35.5200       316
    35.5400       314
    35.5600       316
    35.5800       336
    35.6000       338
    35.6200       402
    35.6400       420
    35.6600       434
    35.6800       414
    35.7000       454
    35.7200       464
    35.7400       476
    35.7600       576
    35.7800       522
    35.8000       530
    35.8200       538
    35.8400       532
    35.8600       538
    35.8800       512
    35.9000       526
    35.9200       548
    35.9400       560
    35.9600       610
    35.9800       616
    36.0000       612
    36.0200       618
    36.0400       672
    36.0600       694
    36.0800       748
    36.1000       810
    36.1200       854
    36.1400       868
    36.1600       826
    36.1800       816
    36.2000       778
    36.2200       692
    36.2400       662
    36.2600       660
    36.2800       600
    36.3000       550
    36.3200       528
    36.3400       490
    36.3600       456
    36.3800       450
    36.4000       432
    36.4200       460
    36.4400       452
    36.4600       476
    36.4800       504
    36.5000       490
    36.5200       526
    36.5400       546
    36.5600       540
    36.5800       580
    36.6000       660
    36.6200       676
    36.6400       756
    36.6600       782
    36.6800       902
    36.7000       976
    36.7200      1052
    36.7400      1202
    36.7600      1312
    36.7800      1518
    36.8000      1704
    36.8200      1884
    36.8400      2068
    36.8600      2248
    36.8800      2346
    36.9000      2304
    36.9200      2260
    36.9400      2208
    36.9600      2020
    36.9800      1852
    37.0000      1664
    37.0200      1472
    37.0400      1296
    37.0600      1176
    37.0800      1010
    37.1000       948
    37.1200       850
    37.1400       870
    37.1600       808
    37.1800       770
    37.2000       748
    37.2200       692
    37.2400       710
    37.2600       682
    37.2800       670
    37.3000       616
    37.3200       606
    37.3400       628
    37.3600       620
    37.3800       642
    37.4000       600
    37.4200       600
    37.4400       674
    37.4600       636
    37.4800       680
    37.5000       656
    37.5200       690
    37.5400       718
    37.5600       716
    37.5800       726
    37.6000       688
    37.6200       726
    37.6400       804
    37.6600       852
    37.6800       822
    37.7000       802
    37.7200       854
    37.7400       878
    37.7600       958
    37.7800       958
    37.8000      1096
    37.8200      1134
    37.8400      1196
    37.8600      1270
    37.8800      1432
    37.9000      1588
    37.9200      1698
    37.9400      1860
    37.9600      2134
    37.9800      2312
    38.0000      2400
    38.0200      2510
    38.0400      2482
    38.0600      2498
    38.0800      2342
    38.1000      2246
    38.1200      2174
    38.1400      2020
    38.1600      1846
    38.1800      1762
    38.2000      1692
    38.2200      1712
    38.2400      1646
    38.2600      1774
    38.2800      1834
    38.3000      2068
    38.3200      2076
    38.3400      2296
    38.3600      2618
    38.3800      2966
    38.4000      3230
    38.4200      3606
    38.4400      3914
    38.4600      4050
    38.4800      4294
    38.5000      4394
    38.5200      4348
    38.5400      4286
    38.5600      4172
    38.5800      4044
    38.6000      3986
    38.6200      3896
    38.6400      3856
    38.6600      3832
    38.6800      3818
    38.7000      3708
    38.7200      3776
    38.7400      3660
    38.7600      3568
    38.7800      3282
    38.8000      2930
    38.8200      2664
    38.8400      2440
    38.8600      2130
    38.8800      1986
    38.9000      1726
    38.9200      1542
    38.9400      1350
    38.9600      1210
    38.9800      1062
    39.0000       970
    39.0200       894
    39.0400       816
    39.0600       768
    39.0800       754
    39.1000       730
    39.1200       690
    39.1400       626
    39.1600       630
    39.1800       632
    39.2000       646
    39.2200       666
    39.2400       652
    39.2600       608
    39.2800       636
    39.3000       600
    39.3200       652
    39.3400       666
    39.3600       708
    39.3800       738
    39.4000       742
    39.4200       782
    39.4400       858
    39.4600       876
    39.4800       942
    39.5000      1070
    39.5200      1196
    39.5400      1326
    39.5600      1490
    39.5800      1636
    39.6000      1802
    39.6200      2046
    39.6400      2340
    39.6600      2500
    39.6800      2576
    39.7000      2596
    39.7200      2474
    39.7400      2578
    39.7600      2256
    39.7800      2102
    39.8000      1856
    39.8200      1752
    39.8400      1582
    39.8600      1358
    39.8800      1194
    39.9000      1032
    39.9200       954
    39.9400       854
    39.9600       806
    39.9800       768
    40.0000       740
    40.0200       692
    40.0400       692
    40.0600       658
    40.0800       624
    40.1000       636
    40.1200       576
    40.1400       614
    40.1600       602
    40.1800       596
    40.2000       572
    40.2200       558
    40.2400       612
    40.2600       626
    40.2800       616
    40.3000       652
    40.3200       728
    40.3400       742
    40.3600       772
    40.3800       798
    40.4000       858
    40.4200       926
    40.4400      1032
    40.4600      1130
    40.4800      1202
    40.5000      1314
    40.5200      1356
    40.5400      1442
    40.5600      1476
    40.5800      1672
    40.6000      1536
    40.6200      1516
    40.6400      1448
    40.6600      1398
    40.6800      1352
    40.7000      1306
    40.7200      1224
    40.7400      1096
    40.7600      1050
    40.7800       886
    40.8000       760
    40.8200       740
    40.8400       756
    40.8600       682
    40.8800       644
    40.9000       564
    40.9200       624
    40.9400       544
    40.9600       584
    40.9800       636
    41.0000       554
    41.0200       536
    41.0400       562
    41.0600       578
    41.0800       588
    41.1000       604
    41.1200       560
    41.1400       566
    41.1600       562
    41.1800       566
    41.2000       556
    41.2200       618
    41.2400       658
    41.2600       674
    41.2800       662
    41.3000       674
    41.3200       634
    41.3400       676
    41.3600       678
    41.3800       680
    41.4000       674
    41.4200       734
    41.4400       686
    41.4600       698
    41.4800       682
    41.5000       750
    41.5200       752
    41.5400       684
    41.5600       766
    41.5800       744
    41.6000       806
    41.6200       798
    41.6400       880
    41.6600       832
    41.6800       952
    41.7000       986
    41.7200      1104
    41.7400      1184
    41.7600      1296
    41.7800      1366
    41.8000      1610
    41.8200      1732
    41.8400      1840
    41.8600      1906
    41.8800      2012
    41.9000      2006
    41.9200      2020
    41.9400      1980
    41.9600      1852
    41.9800      1744
    42.0000      1624
    42.0200      1588
    42.0400      1384
    42.0600      1174
    42.0800      1154
    42.1000      1028
    42.1200       982
    42.1400       810
    42.1600       798
    42.1800       816
    42.2000       746
    42.2200       742
    42.2400       720
    42.2600       728
    42.2800       698
    42.3000       682
    42.3200       652
    42.3400       610
    42.3600       586
    42.3800       624
    42.4000       628
    42.4200       550
    42.4400       556
    42.4600       540
    42.4800       516
    42.5000       570
    42.5200       506
    42.5400       506
    42.5600       508
    42.5800       450
    42.6000       474
    42.6200       434
    42.6400       454
    42.6600       452
    42.6800       468
    42.7000       434
    42.7200       458
    42.7400       438
    42.7600       514
    42.7800       502
    42.8000       476
    42.8200       444
    42.8400       494
    42.8600       520
    42.8800       554
    42.9000       610
    42.9200       642
    42.9400       672
    42.9600       656
    42.9800       844
    43.0000       860
    43.0200       922
    43.0400       970
    43.0600      1176
    43.0800      1324
    43.1000      1452
    43.1200      1626
    43.1400      1792
    43.1600      1876
    43.1800      1962
    43.2000      1974
    43.2200      2040
    43.2400      1998
    43.2600      1796
    43.2800      1820
    43.3000      1638
    43.3200      1484
    43.3400      1374
    43.3600      1248
    43.3800      1108
    43.4000      1046
    43.4200       926
    43.4400       856
    43.4600       742
    43.4800       718
    43.5000       602
    43.5200       632
    43.5400       582
    43.5600       608
    43.5800       528
    43.6000       598
    43.6200       530
    43.6400       564
    43.6600       594
    43.6800       618
    43.7000       632
    43.7200       692
    43.7400       702
    43.7600       768
    43.7800       726
    43.8000       786
    43.8200       820
    43.8400       826
    43.8600       838
    43.8800       746
    43.9000       770
    43.9200       726
    43.9400       726
    43.9600       654
    43.9800       682
    44.0000       698
    44.0200       676
    44.0400       608
    44.0600       638
    44.0800       630
    44.1000       638
    44.1200       586
    44.1400       576
    44.1600       624
    44.1800       660
    44.2000       676
    44.2200       672
    44.2400       680
    44.2600       678
    44.2800       702
    44.3000       724
    44.3200       690
    44.3400       730
    44.3600       746
    44.3800       700
    44.4000       626
    44.4200       662
    44.4400       676
    44.4600       692
    44.4800       656
    44.5000       652
    44.5200       634
    44.5400       616
    44.5600       588
    44.5800       552
    44.6000       570
    44.6200       522
    44.6400       506
    44.6600       518
    44.6800       508
    44.7000       438
    44.7200       476
    44.7400       498
    44.7600       464
    44.7800       442
    44.8000       436
    44.8200       390
    44.8400       452
    44.8600       448
    44.8800       394
    44.9000       416
    44.9200       400
    44.9400       442
    44.9600       416
    44.9800       486
    45.0000       450
    45.0200       468
    45.0400       482
    45.0600       450
    45.0800       492
    45.1000       488
    45.1200       464
    45.1400       466
    45.1600       516
    45.1800       502
    45.2000       510
    45.2200       522
    45.2400       496
    45.2600       490
    45.2800       468
    45.3000       550
    45.3200       494
    45.3400       480
    45.3600       488
    45.3800       534
    45.4000       524
    45.4200       514
    45.4400       518
    45.4600       480
    45.4800       540
    45.5000       522
    45.5200       540
    45.5400       504
    45.5600       480
    45.5800       570
    45.6000       552
    45.6200       498
    45.6400       550
    45.6600       590
    45.6800       560
    45.7000       544
    45.7200       602
    45.7400       604
    45.7600       686
    45.7800       682
    45.8000       678
    45.8200       682
    45.8400       692
    45.8600       656
    45.8800       688
    45.9000       726
    45.9200       750
    45.9400       724
    45.9600       754
    45.9800       728
    46.0000       792
    46.0200       716
    46.0400       760
    46.0600       750
    46.0800       782
    46.1000       784
    46.1200       794
    46.1400       802
    46.1600       836
    46.1800       832
    46.2000       930
    46.2200       956
    46.2400       972
    46.2600      1038
    46.2800      1044
    46.3000      1182
    46.3200      1178
    46.3400      1354
    46.3600      1478
    46.3800      1614
    46.4000      1760
    46.4200      1944
    46.4400      2224
    46.4600      2448
    46.4800      2642
    46.5000      3000
    46.5200      3504
    46.5400      3912
    46.5600      4496
    46.5800      5106
    46.6000      5790
    46.6200      6578
    46.6400      7456
    46.6600      7974
    46.6800      8372
    46.7000      8676
    46.7200      8854
    46.7400      8540
    46.7600      8238
    46.7800      7926
    46.8000      7470
    46.8200      6914
    46.8400      6494
    46.8600      5856
    46.8800      5268
    46.9000      4774
    46.9200      4388
    46.9400      3914
    46.9600      3658
    46.9800      3284
    47.0000      2992
    47.0200      2994
    47.0400      2598
    47.0600      2434
    47.0800      2224
    47.1000      2046
    47.1200      1854
    47.1400      1840
    47.1600      1628
    47.1800      1466
    47.2000      1366
    47.2200      1162
    47.2400      1148
    47.2600      1038
    47.2800      1012
    47.3000       968
    47.3200       884
    47.3400       854
    47.3600       784
    47.3800       718
    47.4000       750
    47.4200       748
    47.4400       738
    47.4600       688
    47.4800       652
    47.5000       672
    47.5200       620
    47.5400       658
    47.5600       672
    47.5800       694
    47.6000       684
    47.6200       700
    47.6400       716
    47.6600       748
    47.6800       808
    47.7000       788
    47.7200       834
    47.7400       866
    47.7600      1006
    47.7800       924
    47.8000      1060
    47.8200      1214
    47.8400      1174
    47.8600      1182
    47.8800      1272
    47.9000      1172
    47.9200      1198
    47.9400      1180
    47.9600      1118
    47.9800      1146
    48.0000      1090
    48.0200      1112
    48.0400      1162
    48.0600      1082
    48.0800      1206
    48.1000      1154
    48.1200      1228
    48.1400      1158
    48.1600      1092
    48.1800      1200
    48.2000      1176
    48.2200      1160
    48.2400      1140
    48.2600      1106
    48.2800      1058
    48.3000      1110
    48.3200       972
    48.3400       960
    48.3600       872
    48.3800       810
    48.4000       814
    48.4200       690
    48.4400       658
    48.4600       598
    48.4800       598
    48.5000       534
    48.5200       534
    48.5400       526
    48.5600       470
    48.5800       476
    48.6000       498
    48.6200       448
    48.6400       412
    48.6600       448
    48.6800       398
    48.7000       390
    48.7200       380
    48.7400       392
    48.7600       356
    48.7800       366
    48.8000       378
    48.8200       380
    48.8400       390
    48.8600       356
    48.8800       382
    48.9000       368
    48.9200       346
    48.9400       352
    48.9600       296
    48.9800       328
    49.0000       360
    49.0200       340
    49.0400       336
    49.0600       344
    49.0800       326
    49.1000       352
    49.1200       328
    49.1400       314
    49.1600       336
    49.1800       320
    49.2000       308
    49.2200       346
    49.2400       366
    49.2600       318
    49.2800       346
    49.3000       312
    49.3200       292
    49.3400       326
    49.3600       304
    49.3800       318
    49.4000       302
    49.4200       316
    49.4400       296
    49.4600       312
    49.4800       376
    49.5000       328
    49.5200       336
    49.5400       332
    49.5600       334
    49.5800       362
    49.6000       328
    49.6200       340
    49.6400       342
    49.6600       346
    49.6800       332
    49.7000       360
    49.7200       370
    49.7400       360
    49.7600       352
    49.7800       360
    49.8000       410
    49.8200       404
    49.8400       418
    49.8600       428
    49.8800       418
    49.9000       520
    49.9200       518
    49.9400       560
    49.9600       574
    49.9800       646
    50.0000       706
    50.0200       726
    50.0400       762
    50.0600       884
    50.0800       886
    50.1000       980
    50.1200       924
    50.1400      1024
    50.1600      1036
    50.1800      1078
    50.2000      1094
    50.2200      1118
    50.2400      1074
    50.2600      1010
    50.2800      1026
    50.3000       976
    50.3200      1002
    50.3400       928
    50.3600       936
    50.3800       814
    50.4000       778
    50.4200       678
    50.4400       690
    50.4600       632
    50.4800       640
    50.5000       592
    50.5200       556
    50.5400       548
    50.5600       524
    50.5800       510
    50.6000       514
    50.6200       504
    50.6400       522
    50.6600       548
    50.6800       504
    50.7000       542
    50.7200       520
    50.7400       566
    50.7600       544
    50.7800       634
    50.8000       646
    50.8200       732
    50.8400       718
    50.8600       764
    50.8800       774
    50.9000       818
    50.9200       854
    50.9400       824
    50.9600       874
    50.9800       824
    51.0000       816
    51.0200       786
    51.0400       764
    51.0600       810
    51.0800       778
    51.1000       714
    51.1200       722
    51.1400       714
    51.1600       696
    51.1800       732
    51.2000       696
    51.2200       738
    51.2400       728
    51.2600       764
    51.2800       754
    51.3000       750
    51.3200       794
    51.3400       792
    51.3600       820
    51.3800       826
    51.4000       878
    51.4200       888
    51.4400       856
    51.4600       792
    51.4800       842
    51.5000       738
    51.5200       790
    51.5400       768
    51.5600       710
    51.5800       716
    51.6000       770
    51.6200       702
    51.6400       660
    51.6600       680
    51.6800       722
    51.7000       748
    51.7200       766
    51.7400       816
    51.7600       838
    51.7800       880
    51.8000       962
    51.8200       962
    51.8400      1066
    51.8600      1058
    51.8800      1086
    51.9000      1084
    51.9200      1076
    51.9400      1014
    51.9600      1012
    51.9800      1044
    52.0000       976
    52.0200       982
    52.0400       910
    52.0600       864
    52.0800       846
    52.1000       766
    52.1200       764
    52.1400       716
    52.1600       750
    52.1800       638
    52.2000       722
    52.2200       672
    52.2400       648
    52.2600       666
    52.2800       694
    52.3000       704
    52.3200       700
    52.3400       718
    52.3600       730
    52.3800       836
    52.4000       790
    52.4200       894
    52.4400       992
    52.4600      1010
    52.4800      1182
    52.5000      1254
    52.5200      1318
    52.5400      1424
    52.5600      1440
    52.5800      1540
    52.6000      1514
    52.6200      1492
    52.6400      1534
    52.6600      1528
    52.6800      1466
    52.7000      1394
    52.7200      1356
    52.7400      1258
    52.7600      1164
    52.7800      1124
    52.8000      1110
    52.8200      1032
    52.8400      1006
    52.8600       934
    52.8800       854
    52.9000       810
    52.9200       764
    52.9400       766
    52.9600       802
    52.9800       772
    53.0000       860
    53.0200       846
    53.0400       890
    53.0600       900
    53.0800      1024
    53.1000      1118
    53.1200      1138
    53.1400      1230
    53.1600      1380
    53.1800      1472
    53.2000      1620
    53.2200      1704
    53.2400      1844
    53.2600      1850
    53.2800      1856
    53.3000      1814
    53.3200      1834
    53.3400      1716
    53.3600      1552
    53.3800      1536
    53.4000      1386
    53.4200      1378
    53.4400      1230
    53.4600      1136
    53.4800       990
    53.5000       960
    53.5200       822
    53.5400       696
    53.5600       674
    53.5800       644
    53.6000       548
    53.6200       552
    53.6400       496
    53.6600       504
    53.6800       414
    53.7000       464
    53.7200       394
    53.7400       390
    53.7600       398
    53.7800       376
    53.8000       354
    53.8200       364
    53.8400       370
    53.8600       360
    53.8800       398
    53.9000       364
    53.9200       350
    53.9400       322
    53.9600       348
    53.9800       356
    54.0000       348
    54.0200       356
    54.0400       302
    54.0600       352
    54.0800       360
    54.1000       380
    54.1200       362
    54.1400       380
    54.1600       348
    54.1800       362
    54.2000       338
    54.2200       380
    54.2400       368
    54.2600       398
    54.2800       402
    54.3000       352
    54.3200       354
    54.3400       376
    54.3600       378
    54.3800       420
    54.4000       430
    54.4200       474
    54.4400       458
    54.4600       516
    54.4800       478
    54.5000       566
    54.5200       550
    54.5400       626
    54.5600       588
    54.5800       594
    54.6000       728
    54.6200       696
    54.6400       740
    54.6600       820
    54.6800       820
    54.7000       882
    54.7200       842
    54.7400       924
    54.7600       870
    54.7800       868
    54.8000       860
    54.8200       906
    54.8400       848
    54.8600       742
    54.8800       764
    54.9000       754
    54.9200       680
    54.9400       682
    54.9600       646
    54.9800       638
    55.0000       612
    55.0200       582
    55.0400       528
    55.0600       484
    55.0800       514
    55.1000       518
    55.1200       480
    55.1400       470
    55.1600       484
    55.1800       526
    55.2000       492
    55.2200       484
    55.2400       444
    55.2600       440
    55.2800       472
    55.3000       416
    55.3200       484
    55.3400       432
    55.3600       484
    55.3800       428
    55.4000       436
    55.4200       422
    55.4400       450
    55.4600       440
    55.4800       446
    55.5000       460
    55.5200       474
    55.5400       460
    55.5600       482
    55.5800       506
    55.6000       556
    55.6200       510
    55.6400       564
    55.6600       556
    55.6800       610
    55.7000       608
    55.7200       614
    55.7400       690
    55.7600       682
    55.7800       616
    55.8000       640
    55.8200       666
    55.8400       686
    55.8600       640
    55.8800       658
    55.9000       628
    55.9200       612
    55.9400       568
    55.9600       566
    55.9800       576
    56.0000       540
    56.0200       564
    56.0400       488
    56.0600       540
    56.0800       518
    56.1000       422
    56.1200       482
    56.1400       464
    56.1600       442
    56.1800       410
    56.2000       416
    56.2200       374
    56.2400       394
    56.2600       388
    56.2800       374
    56.3000       358
    56.3200       404
    56.3400       374
    56.3600       352
    56.3800       336
    56.4000       336
    56.4200       358
    56.4400       326
    56.4600       328
    56.4800       332
    56.5000       356
    56.5200       304
    56.5400       306
    56.5600       312
    56.5800       310
    56.6000       310
    56.6200       334
    56.6400       344
    56.6600       344
    56.6800       350
    56.7000       356
    56.7200       360
    56.7400       378
    56.7600       390
    56.7800       352
    56.8000       378
    56.8200       408
    56.8400       468
    56.8600       424
    56.8800       456
    56.9000       432
    56.9200       500
    56.9400       460
    56.9600       524
    56.9800       552
    57.0000       582
    57.0200       590
    57.0400       630
    57.0600       622
    57.0800       658
    57.1000       670
    57.1200       744
    57.1400       836
    57.1600       880
    57.1800       978
    57.2000      1056
    57.2200      1104
    57.2400      1270
    57.2600      1438
    57.2800      1490
    57.3000      1628
    57.3200      1720
    57.3400      1732
    57.3600      1978
    57.3800      2024
    57.4000      1996
    57.4200      1982
    57.4400      1896
    57.4600      1854
    57.4800      1930
    57.5000      1824
    57.5200      1798
    57.5400      1736
    57.5600      1698
    57.5800      1802
    57.6000      1744
    57.6200      1824
    57.6400      1872
    57.6600      1858
    57.6800      1892
    57.7000      2002
    57.7200      1972
    57.7400      2068
    57.7600      1934
    57.7800      1914
    57.8000      1880
    57.8200      1676
    57.8400      1706
    57.8600      1610
    57.8800      1562
    57.9000      1448
    57.9200      1356
    57.9400      1372
    57.9600      1268
    57.9800      1148
    58.0000      1148
    58.0200      1016
    58.0400      1004
    58.0600       992
    58.0800       990
    58.1000       930
    58.1200       948
    58.1400       916
    58.1600       926
    58.1800       918
    58.2000       976
    58.2200      1036
    58.2400      1062
    58.2600      1150
    58.2800      1262
    58.3000      1286
    58.3200      1326
    58.3400      1406
    58.3600      1430
    58.3800      1658
    58.4000      1642
    58.4200      1796
    58.4400      1918
    58.4600      2128
    58.4800      2142
    58.5000      2346
    58.5200      2402
    58.5400      2598
    58.5600      2714
    58.5800      2726
    58.6000      2840
    58.6200      3024
    58.6400      3188
    58.6600      3196
    58.6800      3242
    58.7000      3314
    58.7200      3432
    58.7400      3368
    58.7600      3474
    58.7800      3260
    58.8000      3288
    58.8200      3146
    58.8400      2982
    58.8600      2898
    58.8800      2766
    58.9000      2596
    58.9200      2298
    58.9400      2178
    58.9600      1960
    58.9800      1832
    59.0000      1714
    59.0200      1528
    59.0400      1374
    59.0600      1262
    59.0800      1174
    59.1000      1062
    59.1200       966
    59.1400       866
    59.1600       852
    59.1800       778
    59.2000       716
    59.2200       670
    59.2400       638
    59.2600       596
    59.2800       582
    59.3000       600
    59.3200       568
    59.3400       524
    59.3600       520
    59.3800       516
    59.4000       510
    59.4200       484
    59.4400       420
    59.4600       442
    59.4800       460
    59.5000       454
    59.5200       452
    59.5400       406
    59.5600       446
    59.5800       428
    59.6000       406
    59.6200       368
    59.6400       408
    59.6600       394
    59.6800       390
    59.7000       354
    59.7200       402
    59.7400       384
    59.7600       374
    59.7800       364
    59.8000       388
    59.8200       370
    59.8400       380
    59.8600       384
    59.8800       396
    59.9000       354
    59.9200       362
    59.9400       338
    59.9600       412
    59.9800       386
    60.0000       398
    60.0200       400
    60.0400       398
    60.0600       374
    60.0800       376
    60.1000       390
    60.1200       400
    60.1400       352
    60.1600       388
    60.1800       412
    60.2000       368
    60.2200       442
    60.2400       382
    60.2600       406
    60.2800       418
    60.3000       458
    60.3200       446
    60.3400       432
    60.3600       422
    60.3800       440
    60.4000       450
    60.4200       432
    60.4400       460
    60.4600       484
    60.4800       484
    60.5000       468
    60.5200       482
    60.5400       486
    60.5600       476
    60.5800       480
    60.6000       508
    60.6200       476
    60.6400       504
    60.6600       468
    60.6800       502
    60.7000       508
    60.7200       552
    60.7400       452
    60.7600       502
    60.7800       468
    60.8000       518
    60.8200       504
    60.8400       472
    60.8600       512
    60.8800       548
    60.9000       494
    60.9200       496
    60.9400       532
    60.9600       526
    60.9800       546
    61.0000       570
    61.0200       568
    61.0400       536
    61.0600       530
    61.0800       608
    61.1000       560
    61.1200       622
    61.1400       602
    61.1600       594
    61.1800       588
    61.2000       626
    61.2200       576
    61.2400       600
    61.2600       592
    61.2800       566
    61.3000       588
    61.3200       550
    61.3400       566
    61.3600       604
    61.3800       584
    61.4000       600
    61.4200       602
    61.4400       562
    61.4600       596
    61.4800       596
    61.5000       618
    61.5200       586
    61.5400       628
    61.5600       584
    61.5800       600
    61.6000       576
    61.6200       564
    61.6400       534
    61.6600       508
    61.6800       556
    61.7000       574
    61.7200       544
    61.7400       536
    61.7600       586
    61.7800       556
    61.8000       486
    61.8200       570
    61.8400       500
    61.8600       528
    61.8800       552
    61.9000       558
    61.9200       600
    61.9400       522
    61.9600       588
    61.9800       568
    62.0000       648
    62.0200       574
    62.0400       592
    62.0600       620
    62.0800       602
    62.1000       590
    62.1200       614
    62.1400       574
    62.1600       562
    62.1800       640
    62.2000       614
    62.2200       650
    62.2400       606
    62.2600       544
    62.2800       608
    62.3000       626
    62.3200       562
    62.3400       578
    62.3600       644
    62.3800       564
    62.4000       542
    62.4200       544
    62.4400       564
    62.4600       498
    62.4800       546
    62.5000       534
    62.5200       522
    62.5400       466
    62.5600       482
    62.5800       524
    62.6000       458
    62.6200       482
    62.6400       438
    62.6600       416
    62.6800       432
    62.7000       420
    62.7200       410
    62.7400       384
    62.7600       356
    62.7800       368
    62.8000       360
    62.8200       298
    62.8400       354
    62.8600       300
    62.8800       348
    62.9000       318
    62.9200       304
    62.9400       324
    62.9600       288
    62.9800       304
    63.0000       304
    63.0200       280
    63.0400       262
    63.0600       278
    63.0800       272
    63.1000       304
    63.1200       250
    63.1400       230
    63.1600       248
    63.1800       248
    63.2000       234
    63.2200       226
    63.2400       238
    63.2600       258
    63.2800       236
    63.3000       254
    63.3200       250
    63.3400       252
    63.3600       262
    63.3800       250
    63.4000       240
    63.4200       260
    63.4400       254
    63.4600       220
    63.4800       280
    63.5000       240
    63.5200       320
    63.5400       274
    63.5600       298
    63.5800       274
    63.6000       288
    63.6200       316
    63.6400       318
    63.6600       338
    63.6800       328
    63.7000       356
    63.7200       338
    63.7400       430
    63.7600       444
    63.7800       454
    63.8000       402
    63.8200       462
    63.8400       500
    63.8600       496
    63.8800       482
    63.9000       478
    63.9200       502
    63.9400       472
    63.9600       446
    63.9800       422
    64.0000       412
    64.0200       448
    64.0400       404
    64.0600       400
    64.0800       386
    64.1000       346
    64.1200       340
    64.1400       346
    64.1600       328
    64.1800       312
    64.2000       268
    64.2200       290
    64.2400       290
    64.2600       286
    64.2800       242
    64.3000       244
    64.3200       230
    64.3400       220
    64.3600       238
    64.3800       254
    64.4000       254
    64.4200       216
    64.4400       230
    64.4600       226
    64.4800       258
    64.5000       238
    64.5200       242
    64.5400       240
    64.5600       244
    64.5800       212
    64.6000       200
    64.6200       214
    64.6400       218
    64.6600       216
    64.6800       236
    64.7000       224
    64.7200       230
    64.7400       216
    64.7600       222
    64.7800       228
    64.8000       250
    64.8200       240
    64.8400       260
    64.8600       220
    64.8800       214
    64.9000       268
    64.9200       236
    64.9400       246
    64.9600       260
    64.9800       258
    65.0000       306
    65.0200       260
    65.0400       300
    65.0600       316
    65.0800       330
    65.1000       320
    65.1200       362
    65.1400       360
    65.1600       372
    65.1800       382
    65.2000       414
    65.2200       406
    65.2400       424
    65.2600       422
    65.2800       444
    65.3000       418
    65.3200       470
    65.3400       458
    65.3600       436
    65.3800       452
    65.4000       462
    65.4200       440
    65.4400       418
    65.4600       406
    65.4800       370
    65.5000       412
    65.5200       372
    65.5400       330
    65.5600       348
    65.5800       312
    65.6000       340
    65.6200       300
    65.6400       344
    65.6600       300
    65.6800       322
    65.7000       300
    65.7200       288
    65.7400       258
    65.7600       278
    65.7800       246
    65.8000       286
    65.8200       282
    65.8400       260
    65.8600       262
    65.8800       248
    65.9000       248
    65.9200       238
    65.9400       228
    65.9600       258
    65.9800       260
    66.0000       260
    66.0200       234
    66.0400       292
    66.0600       276
    66.0800       282
    66.1000       288
    66.1200       280
    66.1400       274
    66.1600       270
    66.1800       286
    66.2000       298
    66.2200       320
    66.2400       300
    66.2600       320
    66.2800       322
    66.3000       330
    66.3200       334
    66.3400       352
    66.3600       340
    66.3800       378
    66.4000       382
    66.4200       394
    66.4400       458
    66.4600       442
    66.4800       438
    66.5000       470
    66.5200       516
    66.5400       506
    66.5600       530
    66.5800       580
    66.6000       566
    66.6200       594
    66.6400       602
    66.6600       618
    66.6800       658
    66.7000       668
    66.7200       724
    66.7400       826
    66.7600       818
    66.7800       830
    66.8000       864
    66.8200       836
    66.8400       906
    66.8600       888
    66.8800       914
    66.9000       892
    66.9200       944
    66.9400       966
    66.9600       922
    66.9800       884
    67.0000       880
    67.0200       862
    67.0400       778
    67.0600       808
    67.0800       724
    67.1000       728
    67.1200       686
    67.1400       650
    67.1600       670
    67.1800       618
    67.2000       616
    67.2200       588
    67.2400       590
    67.2600       588
    67.2800       578
    67.3000       522
    67.3200       518
    67.3400       474
    67.3600       460
    67.3800       452
    67.4000       466
    67.4200       460
    67.4400       418
    67.4600       388
    67.4800       436
    67.5000       438
    67.5200       426
    67.5400       440
    67.5600       416
    67.5800       396
    67.6000       380
    67.6200       470
    67.6400       398
    67.6600       418
    67.6800       476
    67.7000       446
    67.7200       420
    67.7400       422
    67.7600       456
    67.7800       448
    67.8000       450
    67.8200       512
    67.8400       498
    67.8600       574
    67.8800       576
    67.9000       628
    67.9200       612
    67.9400       694
    67.9600       700
    67.9800       770
    68.0000       856
    68.0200       922
    68.0400       956
    68.0600      1086
    68.0800      1066
    68.1000      1160
    68.1200      1248
    68.1400      1278
    68.1600      1266
    68.1800      1266
    68.2000      1276
    68.2200      1276
    68.2400      1292
    68.2600      1274
    68.2800      1268
    68.3000      1168
    68.3200      1212
    68.3400      1112
    68.3600      1040
    68.3800       972
    68.4000       988
    68.4200       944
    68.4400       874
    68.4600       808
    68.4800       742
    68.5000       688
    68.5200       668
    68.5400       692
    68.5600       654
    68.5800       598
    68.6000       558
    68.6200       552
    68.6400       490
    68.6600       524
    68.6800       458
    68.7000       442
    68.7200       472
    68.7400       404
    68.7600       408
    68.7800       430
    68.8000       394
    68.8200       364
    68.8400       424
    68.8600       408
    68.8800       414
    68.9000       368
    68.9200       374
    68.9400       342
    68.9600       364
    68.9800       396
    69.0000       370
    69.0200       372
    69.0400       404
    69.0600       398
    69.0800       372
    69.1000       366
    69.1200       402
    69.1400       374
    69.1600       398
    69.1800       414
    69.2000       432
    69.2200       402
    69.2400       436
    69.2600       448
    69.2800       504
    69.3000       520
    69.3200       540
    69.3400       548
    69.3600       582
    69.3800       558
    69.4000       564
    69.4200       594
    69.4400       576
    69.4600       562
    69.4800       558
    69.5000       572
    69.5200       552
    69.5400       516
    69.5600       548
    69.5800       486
    69.6000       452
    69.6200       456
    69.6400       436
    69.6600       424
    69.6800       446
    69.7000       402
    69.7200       392
    69.7400       356
    69.7600       352
    69.7800       362
    69.8000       330
    69.8200       298
    69.8400       304
    69.8600       318
    69.8800       310
    69.9000       308
    69.9200       272
    69.9400       268
    69.9600       292
    69.9800       266
    70.0000       256
    70.0200       250
    70.0400       262
    70.0600       248
    70.0800       236
    70.1000       240
    70.1200       226
    70.1400       230
    70.1600       204
    70.1800       226
    70.2000       238
    70.2200       256
    70.2400       226
    70.2600       252
    70.2800       218
    70.3000       246
    70.3200       220
    70.3400       230
    70.3600       230
    70.3800       224
    70.4000       206
    70.4200       248
    70.4400       242
    70.4600       240
    70.4800       234
    70.5000       270
    70.5200       262
    70.5400       274
    70.5600       274
    70.5800       242
    70.6000       258
    70.6200       272
    70.6400       250
    70.6600       236
    70.6800       278
    70.7000       268
    70.7200       244
    70.7400       280
    70.7600       258
    70.7800       244
    70.8000       262
    70.8200       242
    70.8400       268
    70.8600       232
    70.8800       246
    70.9000       264
    70.9200       244
    70.9400       252
    70.9600       234
    70.9800       262
    71.0000       270
    71.0200       276
    71.0400       264
    71.0600       272
    71.0800       286
    71.1000       284
    71.1200       288
    71.1400       284
    71.1600       332
    71.1800       332
    71.2000       322
    71.2200       344
    71.2400       360
    71.2600       404
    71.2800       382
    71.3000       452
    71.3200       430
    71.3400       472
    71.3600       476
    71.3800       520
    71.4000       546
    71.4200       542
    71.4400       552
    71.4600       640
    71.4800       658
    71.5000       648
    71.5200       656
    71.5400       692
    71.5600       718
    71.5800       622
    71.6000       654
    71.6200       656
    71.6400       694
    71.6600       588
    71.6800       606
    71.7000       690
    71.7200       646
    71.7400       648
    71.7600       562
    71.7800       608
    71.8000       586
    71.8200       522
    71.8400       550
    71.8600       540
    71.8800       516
    71.9000       534
    71.9200       522
    71.9400       510
    71.9600       474
    71.9800       504
    72.0000       504
    72.0200       460
    72.0400       458
    72.0600       476
    72.0800       418
    72.1000       484
    72.1200       448
    72.1400       508
    72.1600       440
    72.1800       504
    72.2000       494
    72.2200       470
    72.2400       444
    72.2600       516
    72.2800       452
    72.3000       480
    72.3200       452
    72.3400       474
    72.3600       416
    72.3800       472
    72.4000       484
    72.4200       440
    72.4400       478
    72.4600       444
    72.4800       432
    72.5000       374
    72.5200       412
    72.5400       368
    72.5600       366
    72.5800       376
    72.6000       346
    72.6200       340
    72.6400       300
    72.6600       300
    72.6800       344
    72.7000       302
    72.7200       304
    72.7400       252
    72.7600       294
    72.7800       284
    72.8000       312
    72.8200       322
    72.8400       290
    72.8600       312
    72.8800       262
    72.9000       284
    72.9200       310
    72.9400       278
    72.9600       290
    72.9800       296
    73.0000       284
    73.0200       312
    73.0400       238
    73.0600       304
    73.0800       278
    73.1000       248
    73.1200       280
    73.1400       272
    73.1600       254
    73.1800       264
    73.2000       202
    73.2200       240
    73.2400       256
    73.2600       216
    73.2800       212
    73.3000       226
    73.3200       226
    73.3400       226
    73.3600       210
    73.3800       196
    73.4000       216
    73.4200       230
    73.4400       224
    73.4600       200
    73.4800       198
    73.5000       208
    73.5200       208
    73.5400       214
    73.5600       190
    73.5800       222
    73.6000       208
    73.6200       220
    73.6400       218
    73.6600       252
    73.6800       220
    73.7000       238
    73.7200       226
    73.7400       218
    73.7600       236
    73.7800       240
    73.8000       210
    73.8200       240
    73.8400       260
    73.8600       234
    73.8800       244
    73.9000       246
    73.9200       258
    73.9400       280
    73.9600       326
    73.9800       278
    74.0000       266
    74.0200       300
    74.0400       338
    74.0600       290
    74.0800       286
    74.1000       336
    74.1200       306
    74.1400       294
    74.1600       280
    74.1800       330
    74.2000       324
    74.2200       300
    74.2400       340
    74.2600       300
    74.2800       276
    74.3000       300
    74.3200       310
    74.3400       274
    74.3600       302
    74.3800       330
    74.4000       306
    74.4200       254
    74.4400       268
    74.4600       250
    74.4800       254
    74.5000       258
    74.5200       242
    74.5400       272
    74.5600       270
    74.5800       240
    74.6000       230
    74.6200       252
    74.6400       224
    74.6600       208
    74.6800       224
    74.7000       230
    74.7200       240
    74.7400       184
    74.7600       224
    74.7800       240
    74.8000       212
    74.8200       198
    74.8400       186
    74.8600       240
    74.8800       204
    74.9000       216
    74.9200       200
    74.9400       202
    74.9600       196
    74.9800       204
    75.0000       208
    75.0200       206
    75.0400       194
    75.0600       226
    75.0800       196
    75.1000       198
    75.1200       192
    75.1400       198
    75.1600       188
    75.1800       212
    75.2000       206
    75.2200       238
    75.2400       212
    75.2600       184
    75.2800       184
    75.3000       210
    75.3200       202
    75.3400       194
    75.3600       188
    75.3800       214
    75.4000       204
    75.4200       216
    75.4400       226
    75.4600       230
    75.4800       220
    75.5000       236
    75.5200       238
    75.5400       218
    75.5600       252
    75.5800       222
    75.6000       218
    75.6200       228
    75.6400       244
    75.6600       218
    75.6800       246
    75.7000       266
    75.7200       264
    75.7400       254
    75.7600       276
    75.7800       304
    75.8000       274
    75.8200       304
    75.8400       310
    75.8600       278
    75.8800       308
    75.9000       284
    75.9200       266
    75.9400       290
    75.9600       264
    75.9800       270
    76.0000       284
    76.0200       268
    76.0400       242
    76.0600       270
    76.0800       278
    76.1000       266
    76.1200       292
    76.1400       292
    76.1600       256
    76.1800       264
    76.2000       276
    76.2200       288
    76.2400       268
    76.2600       316
    76.2800       300
    76.3000       356
    76.3200       312
    76.3400       340
    76.3600       320
    76.3800       326
    76.4000       348
    76.4200       348
    76.4400       334
    76.4600       338
    76.4800       332
    76.5000       384
    76.5200       364
    76.5400       356
    76.5600       376
    76.5800       342
    76.6000       394
    76.6200       412
    76.6400       400
    76.6600       390
    76.6800       394
    76.7000       424
    76.7200       428
    76.7400       408
    76.7600       372
    76.7800       384
    76.8000       384
    76.8200       418
    76.8400       382
    76.8600       402
    76.8800       366
    76.9000       402
    76.9200       380
    76.9400       398
    76.9600       384
    76.9800       364
    77.0000       384
    77.0200       328
    77.0400       324
    77.0600       320
    77.0800       338
    77.1000       328
    77.1200       358
    77.1400       338
    77.1600       358
    77.1800       366
    77.2000       366
    77.2200       362
    77.2400       410
    77.2600       430
    77.2800       418
    77.3000       420
    77.3200       416
    77.3400       466
    77.3600       466
    77.3800       488
    77.4000       536
    77.4200       558
    77.4400       604
    77.4600       600
    77.4800       680
    77.5000       680
    77.5200       766
    77.5400       834
    77.5600       794
    77.5800       838
    77.6000       824
    77.6200       868
    77.6400       852
    77.6600       888
    77.6800       846
    77.7000       886
    77.7200       830
    77.7400       830
    77.7600       848
    77.7800       790
    77.8000       766
    77.8200       720
    77.8400       790
    77.8600       708
    77.8800       718
    77.9000       708
    77.9200       642
    77.9400       592
    77.9600       572
    77.9800       566
    78.0000       576
    78.0200       494
    78.0400       480
    78.0600       456
    78.0800       418
    78.1000       428
    78.1200       456
    78.1400       404
    78.1600       424
    78.1800       370
    78.2000       420
    78.2200       380
    78.2400       366
    78.2600       408
    78.2800       360
    78.3000       364
    78.3200       384
    78.3400       408
    78.3600       428
    78.3800       412
    78.4000       370
    78.4200       418
    78.4400       410
    78.4600       442
    78.4800       456
    78.5000       426
    78.5200       456
    78.5400       428
    78.5600       442
    78.5800       456
    78.6000       406
    78.6200       448
    78.6400       400
    78.6600       426
    78.6800       480
    78.7000       442
    78.7200       444
    78.7400       448
    78.7600       454
    78.7800       440
    78.8000       426
    78.8200       408
    78.8400       416
    78.8600       394
    78.8800       374
    78.9000       396
    78.9200       382
    78.9400       364
    78.9600       382
    78.9800       354
    79.0000       348
    79.0200       346
    79.0400       322
    79.0600       316
    79.0800       328
    79.1000       320
    79.1200       288
    79.1400       294
    79.1600       308
    79.1800       284
    79.2000       296
    79.2200       272
    79.2400       282
    79.2600       252
    79.2800       242
    79.3000       252
    79.3200       264
    79.3400       272
    79.3600       256
    79.3800       288
    79.4000       256
    79.4200       236
    79.4400       254
    79.4600       272
    79.4800       270
    79.5000       260
    79.5200       272
    79.5400       282
    79.5600       312
    79.5800       314
    79.6000       278
    79.6200       260
    79.6400       296
    79.6600       286
    79.6800       270
    79.7000       308
    79.7200       310
    79.7400       310
    79.7600       292
    79.7800       290
    79.8000       278
    79.8200       304
    79.8400       300
    79.8600       298
    79.8800       284
    79.9000       306
    79.9200       278
    79.9400       278
    79.9600       278
    79.9800       262
    80.0000       280
    80.0200       276
    80.0400       246
    80.0600       260
    80.0800       258
    80.1000       252
    80.1200       260
    80.1400       264
    80.1600       250
    80.1800       272
    80.2000       246
    80.2200       246
    80.2400       248
    80.2600       274
    80.2800       258
    80.3000       246
    80.3200       248
    80.3400       242
    80.3600       230
    80.3800       232
    80.4000       242
    80.4200       214
    80.4400       238
    80.4600       230
    80.4800       242
    80.5000       264
    80.5200       222
    80.5400       222
    80.5600       252
    80.5800       210
    80.6000       218
    80.6200       192
    80.6400       230
    80.6600       224
    80.6800       216
    80.7000       188
    80.7200       200
    80.7400       198
    80.7600       212
    80.7800       214
    80.8000       192
    80.8200       214
    80.8400       218
    80.8600       230
    80.8800       222
    80.9000       204
    80.9200       214
    80.9400       190
    80.9600       198
    80.9800       196
    81.0000       210
    81.0200       224
    81.0400       230
    81.0600       218
    81.0800       228
    81.1000       220
    81.1200       226
    81.1400       252
    81.1600       250
    81.1800       244
    81.2000       246
    81.2200       248
    81.2400       260
    81.2600       282
    81.2800       296
    81.3000       298
    81.3200       284
    81.3400       250
    81.3600       258
    81.3800       246
    81.4000       280
    81.4200       278
    81.4400       288
    81.4600       266
    81.4800       280
    81.5000       274
    81.5200       266
    81.5400       236
    81.5600       258
    81.5800       284
    81.6000       268
    81.6200       264
    81.6400       278
    81.6600       272
    81.6800       252
    81.7000       260
    81.7200       260
    81.7400       260
    81.7600       286
    81.7800       258
    81.8000       276
    81.8200       280
    81.8400       240
    81.8600       262
    81.8800       234
    81.9000       290
    81.9200       308
    81.9400       266
    81.9600       290
    81.9800       326
    82.0000       280
    82.0200       256
    82.0400       290
    82.0600       286
    82.0800       276
    82.1000       274
    82.1200       312
    82.1400       306
    82.1600       294
    82.1800       284
    82.2000       290
    82.2200       326
    82.2400       294
    82.2600       310
    82.2800       326
    82.3000       336
    82.3200       318
    82.3400       312
    82.3600       328
    82.3800       300
    82.4000       316
    82.4200       334
    82.4400       322
    82.4600       324
    82.4800       342
    82.5000       324
    82.5200       350
    82.5400       302
    82.5600       336
    82.5800       306
    82.6000       386
    82.6200       384
    82.6400       334
    82.6600       356
    82.6800       394
    82.7000       384
    82.7200       398
    82.7400       402
    82.7600       400
    82.7800       362
    82.8000       356
    82.8200       442
    82.8400       352
    82.8600       404
    82.8800       400
    82.9000       356
    82.9200       380
    82.9400       364
    82.9600       388
    82.9800       378
    83.0000       372
    83.0200       364
    83.0400       352
    83.0600       392
    83.0800       356
    83.1000       386
    83.1200       372
    83.1400       398
    83.1600       406
    83.1800       408
    83.2000       402
    83.2200       342
    83.2400       390
    83.2600       376
    83.2800       388
    83.3000       340
    83.3200       368
    83.3400       374
    83.3600       360
    83.3800       406
    83.4000       336
    83.4200       362
    83.4400       368
    83.4600       322
    83.4800       332
    83.5000       366
    83.5200       346
    83.5400       340
    83.5600       324
    83.5800       308
    83.6000       316
    83.6200       300
    83.6400       276
    83.6600       304
    83.6800       318
    83.7000       290
    83.7200       290
    83.7400       312
    83.7600       306
    83.7800       268
    83.8000       308
    83.8200       300
    83.8400       330
    83.8600       294
    83.8800       320
    83.9000       256
    83.9200       314
    83.9400       276
    83.9600       306
    83.9800       270
    84.0000       270
    84.0200       304
    84.0400       288
    84.0600       292
    84.0800       296
    84.1000       296
    84.1200       302
    84.1400       294
    84.1600       286
    84.1800       276
    84.2000       234
    84.2200       288
    84.2400       274
    84.2600       286
    84.2800       246
    84.3000       254
    84.3200       266
    84.3400       250
    84.3600       276
    84.3800       254
    84.4000       238
    84.4200       248
    84.4400       246
    84.4600       242
    84.4800       224
    84.5000       230
    84.5200       218
    84.5400       230
    84.5600       230
    84.5800       228
    84.6000       236
    84.6200       232
    84.6400       258
    84.6600       242
    84.6800       244
    84.7000       208
    84.7200       238
    84.7400       214
    84.7600       248
    84.7800       244
    84.8000       230
    84.8200       244
    84.8400       204
    84.8600       214
    84.8800       224
    84.9000       216
    84.9200       230
    84.9400       208
    84.9600       218
    84.9800       206
    85.0000       198
    85.0200       208
    85.0400       224
    85.0600       212
    85.0800       212
    85.1000       228
    85.1200       224
    85.1400       232
    85.1600       240
    85.1800       206
    85.2000       240
    85.2200       210
    85.2400       212
    85.2600       230
    85.2800       222
    85.3000       236
    85.3200       252
    85.3400       238
    85.3600       240
    85.3800       266
    85.4000       240
    85.4200       254
    85.4400       256
    85.4600       256
    85.4800       250
    85.5000       244
    85.5200       274
    85.5400       268
    85.5600       268
    85.5800       280
    85.6000       264
    85.6200       272
    85.6400       274
    85.6600       248
    85.6800       260
    85.7000       252
    85.7200       256
    85.7400       256
    85.7600       252
    85.7800       226
    85.8000       212
    85.8200       234
    85.8400       254
    85.8600       254
    85.8800       240
    85.9000       228
    85.9200       224
    85.9400       204
    85.9600       210
    85.9800       194
    86.0000       210
    86.0200       190
    86.0400       200
    86.0600       214
    86.0800       200
    86.1000       202
    86.1200       178
    86.1400       198
    86.1600       196
    86.1800       226
    86.2000       174
    86.2200       188
    86.2400       202
    86.2600       230
    86.2800       202
    86.3000       190
    86.3200       208
    86.3400       196
    86.3600       208
    86.3800       190
    86.4000       216
    86.4200       194
    86.4400       178
    86.4600       240
    86.4800       188
    86.5000       194
    86.5200       224
    86.5400       218
    86.5600       226
    86.5800       228
    86.6000       218
    86.6200       244
    86.6400       256
    86.6600       240
    86.6800       244
    86.7000       214
    86.7200       256
    86.7400       274
    86.7600       272
    86.7800       278
    86.8000       278
    86.8200       292
    86.8400       282
    86.8600       284
    86.8800       304
    86.9000       326
    86.9200       302
    86.9400       310
    86.9600       334
    86.9800       342
    87.0000       310
    87.0200       318
    87.0400       308
    87.0600       340
    87.0800       364
    87.1000       306
    87.1200       340
    87.1400       346
    87.1600       344
    87.1800       378
    87.2000       334
    87.2200       370
    87.2400       348
    87.2600       358
    87.2800       354
    87.3000       394
    87.3200       394
    87.3400       392
    87.3600       396
    87.3800       338
    87.4000       388
    87.4200       368
    87.4400       364
    87.4600       362
    87.4800       370
    87.5000       368
    87.5200       368
    87.5400       352
    87.5600       416
    87.5800       330
    87.6000       354
    87.6200       380
    87.6400       366
    87.6600       392
    87.6800       392
    87.7000       388
    87.7200       374
    87.7400       348
    87.7600       364
    87.7800       356
    87.8000       356
    87.8200       362
    87.8400       364
    87.8600       404
    87.8800       366
    87.9000       358
    87.9200       378
    87.9400       330
    87.9600       340
    87.9800       376
    88.0000       364
    88.0200       306
    88.0400       322
    88.0600       340
    88.0800       318
    88.1000       326
    88.1200       282
    88.1400       286
    88.1600       324
    88.1800       286
    88.2000       278
    88.2200       326
    88.2400       298
    88.2600       306
    88.2800       292
    88.3000       304
    88.3200       284
    88.3400       260
    88.3600       260
    88.3800       282
    88.4000       286
    88.4200       276
    88.4400       282
    88.4600       280
    88.4800       256
    88.5000       244
    88.5200       266
    88.5400       264
    88.5600       266
    88.5800       280
    88.6000       266
    88.6200       300
    88.6400       264
    88.6600       242
    88.6800       260
    88.7000       254
    88.7200       288
    88.7400       236
    88.7600       258
    88.7800       264
    88.8000       252
    88.8200       252
    88.8400       242
    88.8600       264
    88.8800       256
    88.9000       242
    88.9200       274
    88.9400       270
    88.9600       280
    88.9800       266
    89.0000       224
    89.0200       248
    89.0400       236
    89.0600       250
    89.0800       224
    89.1000       224
    89.1200       232
    89.1400       246
    89.1600       220
    89.1800       258
    89.2000       226
    89.2200       264
    89.2400       260
    89.2600       222
    89.2800       230
    89.3000       246
    89.3200       260
    89.3400       254
    89.3600       264
    89.3800       248
    89.4000       226
    89.4200       272
    89.4400       276
    89.4600       268
    89.4800       278
    89.5000       250
    89.5200       276
    89.5400       288
    89.5600       268
    89.5800       284
    89.6000       286
    89.6200       276
    89.6400       290
    89.6600       296
    89.6800       314
    89.7000       300
    89.7200       290
    89.7400       302
    89.7600       264
    89.7800       270
    89.8000       330
    89.8200       304
    89.8400       280
    89.8600       316
    89.8800       294
    89.9000       280
    89.9200       294
    89.9400       344
    89.9600       332
    89.9800       302
    90.0000       310
