    10.0000       386
    10.0200       364
    10.0400       356
    10.0600       358
    10.0800       338
    10.1000       352
    10.1200       390
    10.1400       326
    10.1600       380
    10.1800       368
    10.2000       332
    10.2200       362
    10.2400       364
    10.2600       342
    10.2800       372
    10.3000       394
    10.3200       326
    10.3400       362
    10.3600       376
    10.3800       352
    10.4000       346
    10.4200       318
    10.4400       328
    10.4600       328
    10.4800       352
    10.5000       310
    10.5200       354
    10.5400       374
    10.5600       350
    10.5800       340
    10.6000       352
    10.6200       368
    10.6400       348
    10.6600       352
    10.6800       350
    10.7000       324
    10.7200       322
    10.7400       346
    10.7600       340
    10.7800       322
    10.8000       356
    10.8200       358
    10.8400       338
    10.8600       316
    10.8800       326
    10.9000       290
    10.9200       330
    10.9400       356
    10.9600       344
    10.9800       308
    11.0000       310
    11.0200       314
    11.0400       332
    11.0600       360
    11.0800       348
    11.1000       320
    11.1200       330
    11.1400       360
    11.1600       360
    11.1800       340
    11.2000       322
    11.2200       342
    11.2400       344
    11.2600       334
    11.2800       326
    11.3000       324
    11.3200       328
    11.3400       326
    11.3600       344
    11.3800       294
    11.4000       316
    11.4200       336
    11.4400       368
    11.4600       320
    11.4800       342
    11.5000       298
    11.5200       330
    11.5400       306
    11.5600       342
    11.5800       338
    11.6000       344
    11.6200       322
    11.6400       334
    11.6600       348
    11.6800       358
    11.7000       302
    11.7200       326
    11.7400       338
    11.7600       372
    11.7800       352
    11.8000       330
    11.8200       394
    11.8400       358
    11.8600       362
    11.8800       378
    11.9000       386
    11.9200       376
    11.9400       398
    11.9600       464
    11.9800       432
    12.0000       446
    12.0200       494
    12.0400       466
    12.0600       520
    12.0800       546
    12.1000       644
    12.1200       686
    12.1400       726
    12.1600       790
    12.1800       868
    12.2000       864
    12.2200       888
    12.2400       816
    12.2600       708
    12.2800       642
    12.3000       564
    12.3200       474
    12.3400       378
    12.3600       380
    12.3800       348
    12.4000       326
    12.4200       396
    12.4400       300
    12.4600       330
    12.4800       314
    12.5000       306
    12.5200       322
    12.5400       312
    12.5600       296
    12.5800       336
    12.6000       286
    12.6200       296
    12.6400       310
    12.6600       296
    12.6800       266
    12.7000       278
    12.7200       270
    12.7400       324
    12.7600       264
    12.7800       290
    12.8000       262
    12.8200       302
    12.8400       276
    12.8600       274
    12.8800       300
    12.9000       292
    12.9200       254
    12.9400       306
    12.9600       286
    12.9800       294
    13.0000       268
    13.0200       298
    13.0400       260
    13.0600       266
    13.0800       252
    13.1000       276
    13.1200       292
    13.1400       276
    13.1600       294
    13.1800       264
    13.2000       276
    13.2200       270
    13.2400       304
    13.2600       246
    13.2800       326
    13.3000       266
    13.3200       268
    13.3400       260
    13.3600       250
    13.3800       238
    13.4000       284
    13.4200       258
    13.4400       264
    13.4600       272
    13.4800       240
    13.5000       294
    13.5200       248
    13.5400       264
    13.5600       262
    13.5800       258
    13.6000       270
    13.6200       240
    13.6400       252
    13.6600       262
    13.6800       246
    13.7000       262
    13.7200       274
    13.7400       256
    13.7600       268
    13.7800       246
    13.8000       276
    13.8200       236
    13.8400       250
    13.8600       282
    13.8800       246
    13.9000       276
    13.9200       252
    13.9400       246
    13.9600       256
    13.9800       242
    14.0000       224
    14.0200       242
    14.0400       252
    14.0600       264
    14.0800       236
    14.1000       256
    14.1200       224
    14.1400       256
    14.1600       268
    14.1800       240
    14.2000       234
    14.2200       248
    14.2400       252
    14.2600       224
    14.2800       238
    14.3000       218
    14.3200       242
    14.3400       250
    14.3600       260
    14.3800       230
    14.4000       244
    14.4200       244
    14.4400       276
    14.4600       234
    14.4800       228
    14.5000       240
    14.5200       278
    14.5400       254
    14.5600       246
    14.5800       264
    14.6000       272
    14.6200       284
    14.6400       256
    14.6600       272
    14.6800       274
    14.7000       320
    14.7200       316
    14.7400       298
    14.7600       364
    14.7800       336
    14.8000       332
    14.8200       384
    14.8400       404
    14.8600       384
    14.8800       414
    14.9000       442
    14.9200       514
    14.9400       508
    14.9600       564
    14.9800       636
    15.0000       692
    15.0200       716
    15.0400       778
    15.0600       876
    15.0800       972
    15.1000       948
    15.1200       978
    15.1400      1120
    15.1600      1172
    15.1800      1204
    15.2000      1306
    15.2200      1276
    15.2400      1142
    15.2600       936
    15.2800       800
    15.3000       652
    15.3200       512
    15.3400       452
    15.3600       376
    15.3800       342
    15.4000       302
    15.4200       330
    15.4400       312
    15.4600       302
    15.4800       276
    15.5000       284
    15.5200       296
    15.5400       276
    15.5600       264
    15.5800       272
    15.6000       224
    15.6200       250
    15.6400       276
    15.6600       232
    15.6800       254
    15.7000       232
    15.7200       234
    15.7400       218
    15.7600       248
    15.7800       260
    15.8000       250
    15.8200       232
    15.8400       234
    15.8600       226
    15.8800       258
    15.9000       252
    15.9200       242
    15.9400       232
    15.9600       232
    15.9800       224
    16.0000       242
    16.0200       274
    16.0400       234
    16.0600       234
    16.0800       244
    16.1000       244
    16.1200       284
    16.1400       254
    16.1600       268
    16.1800       222
    16.2000       232
    16.2200       248
    16.2400       284
    16.2600       278
    16.2800       244
    16.3000       296
    16.3200       240
    16.3400       270
    16.3600       274
    16.3800       238
    16.4000       238
    16.4200       236
    16.4400       262
    16.4600       294
    16.4800       270
    16.5000       256
    16.5200       258
    16.5400       256
    16.5600       278
    16.5800       308
    16.6000       322
    16.6200       282
    16.6400       304
    16.6600       312
    16.6800       314
    16.7000       360
    16.7200       352
    16.7400       352
    16.7600       406
    16.7800       460
    16.8000       456
    16.8200       494
    16.8400       528
    16.8600       564
    16.8800       636
    16.9000       688
    16.9200       778
    16.9400       888
    16.9600       964
    16.9800      1162
    17.0000      1330
    17.0200      1446
    17.0400      1728
    17.0600      1860
    17.0800      1798
    17.1000      1732
    17.1200      1504
    17.1400      1326
    17.1600      1144
    17.1800      1076
    17.2000      1090
    17.2200      1042
    17.2400       974
    17.2600       906
    17.2800       944
    17.3000       874
    17.3200       792
    17.3400       746
    17.3600       676
    17.3800       658
    17.4000       628
    17.4200       628
    17.4400       594
    17.4600       566
    17.4800       540
    17.5000       536
    17.5200       528
    17.5400       460
    17.5600       450
    17.5800       434
    17.6000       430
    17.6200       422
    17.6400       440
    17.6600       484
    17.6800       450
    17.7000       538
    17.7200       562
    17.7400       560
    17.7600       576
    17.7800       652
    17.8000       636
    17.8200       698
    17.8400       702
    17.8600       652
    17.8800       612
    17.9000       512
    17.9200       442
    17.9400       382
    17.9600       336
    17.9800       280
    18.0000       296
    18.0200       300
    18.0400       252
    18.0600       262
    18.0800       216
    18.1000       244
    18.1200       232
    18.1400       226
    18.1600       248
    18.1800       196
    18.2000       234
    18.2200       218
    18.2400       212
    18.2600       224
    18.2800       214
    18.3000       214
    18.3200       236
    18.3400       208
    18.3600       218
    18.3800       200
    18.4000       212
    18.4200       216
    18.4400       192
    18.4600       234
    18.4800       234
    18.5000       244
    18.5200       206
    18.5400       242
    18.5600       236
    18.5800       216
    18.6000       222
    18.6200       230
    18.6400       218
    18.6600       206
    18.6800       238
    18.7000       220
    18.7200       226
    18.7400       238
    18.7600       208
    18.7800       212
    18.8000       204
    18.8200       226
    18.8400       206
    18.8600       218
    18.8800       208
    18.9000       242
    18.9200       238
    18.9400       236
    18.9600       230
    18.9800       244
    19.0000       268
    19.0200       230
    19.0400       264
    19.0600       274
    19.0800       258
    19.1000       300
    19.1200       318
    19.1400       328
    19.1600       370
    19.1800       372
    19.2000       366
    19.2200       382
    19.2400       384
    19.2600       532
    19.2800       532
    19.3000       572
    19.3200       596
    19.3400       702
    19.3600       782
    19.3800       900
    19.4000      1118
    19.4200      1258
    19.4400      1422
    19.4600      1728
    19.4800      1966
    19.5000      2308
    19.5200      2598
    19.5400      2914
    19.5600      2724
    19.5800      2638
    19.6000      2314
    19.6200      1858
    19.6400      1496
    19.6600      1194
    19.6800       902
    19.7000       858
    19.7200       772
    19.7400       744
    19.7600       766
    19.7800       800
    19.8000       770
    19.8200       900
    19.8400       972
    19.8600      1096
    19.8800      1314
    19.9000      1440
    19.9200      1682
    19.9400      1856
    19.9600      2086
    19.9800      2238
    20.0000      2156
    20.0200      2070
    20.0400      1848
    20.0600      1580
    20.0800      1290
    20.1000       970
    20.1200       766
    20.1400       562
    20.1600       470
    20.1800       452
    20.2000       418
    20.2200       370
    20.2400       346
    20.2600       340
    20.2800       320
    20.3000       302
    20.3200       280
    20.3400       280
    20.3600       292
    20.3800       294
    20.4000       284
    20.4200       276
    20.4400       256
    20.4600       266
    20.4800       274
    20.5000       254
    20.5200       270
    20.5400       252
    20.5600       250
    20.5800       222
    20.6000       218
    20.6200       284
    20.6400       240
    20.6600       240
    20.6800       272
    20.7000       298
    20.7200       256
    20.7400       290
    20.7600       286
    20.7800       352
    20.8000       322
    20.8200       314
    20.8400       386
    20.8600       386
    20.8800       428
    20.9000       454
    20.9200       514
    20.9400       544
    20.9600       560
    20.9800       668
    21.0000       754
    21.0200       864
    21.0400       922
    21.0600      1136
    21.0800      1220
    21.1000      1426
    21.1200      1586
    21.1400      1876
    21.1600      2120
    21.1800      2342
    21.2000      2422
    21.2200      2688
    21.2400      2518
    21.2600      2434
    21.2800      2272
    21.3000      1912
    21.3200      1600
    21.3400      1296
    21.3600      1076
    21.3800       932
    21.4000       732
    21.4200       664
    21.4400       552
    21.4600       438
    21.4800       398
    21.5000       382
    21.5200       358
    21.5400       326
    21.5600       326
    21.5800       290
    21.6000       292
    21.6200       288
    21.6400       254
    21.6600       258
    21.6800       276
    21.7000       242
    21.7200       216
    21.7400       224
    21.7600       206
    21.7800       238
    21.8000       236
    21.8200       232
    21.8400       236
    21.8600       208
    21.8800       218
    21.9000       184
    21.9200       240
    21.9400       206
    21.9600       214
    21.9800       234
    22.0000       200
    22.0200       230
    22.0400       212
    22.0600       214
    22.0800       216
    22.1000       194
    22.1200       200
    22.1400       238
    22.1600       202
    22.1800       208
    22.2000       216
    22.2200       248
    22.2400       218
    22.2600       228
    22.2800       230
    22.3000       232
    22.3200       234
    22.3400       238
    22.3600       254
    22.3800       262
    22.4000       256
    22.4200       280
    22.4400       326
    22.4600       326
    22.4800       372
    22.5000       402
    22.5200       438
    22.5400       430
    22.5600       526
    22.5800       540
    22.6000       588
    22.6200       706
    22.6400       764
    22.6600       834
    22.6800      1032
    22.7000      1198
    22.7200      1362
    22.7400      1694
    22.7600      1972
    22.7800      2366
    22.8000      2738
    22.8200      3262
    22.8400      3866
    22.8600      4016
    22.8800      4102
    22.9000      3736
    22.9200      3230
    22.9400      2776
    22.9600      2072
    22.9800      1624
    23.0000      1248
    23.0200       968
    23.0400       840
    23.0600       704
    23.0800       592
    23.1000       550
    23.1200       560
    23.1400       508
    23.1600       488
    23.1800       418
    23.2000       386
    23.2200       370
    23.2400       350
    23.2600       360
    23.2800       330
    23.3000       296
    23.3200       268
    23.3400       254
    23.3600       274
    23.3800       258
    23.4000       240
    23.4200       242
    23.4400       250
    23.4600       240
    23.4800       240
    23.5000       256
    23.5200       240
    23.5400       244
    23.5600       264
    23.5800       210
    23.6000       238
    23.6200       224
    23.6400       228
    23.6600       248
    23.6800       250
    23.7000       242
    23.7200       234
    23.7400       246
    23.7600       254
    23.7800       238
    23.8000       242
    23.8200       220
    23.8400       240
    23.8600       230
    23.8800       248
    23.9000       232
    23.9200       248
    23.9400       286
    23.9600       240
    23.9800       236
    24.0000       240
    24.0200       286
    24.0400       270
    24.0600       254
    24.0800       264
    24.1000       296
    24.1200       288
    24.1400       276
    24.1600       326
    24.1800       304
    24.2000       342
    24.2200       338
    24.2400       328
    24.2600       426
    24.2800       420
    24.3000       450
    24.3200       478
    24.3400       584
    24.3600       616
    24.3800       740
    24.4000       782
    24.4200       886
    24.4400       946
    24.4600      1102
    24.4800      1246
    24.5000      1376
    24.5200      1526
    24.5400      1470
    24.5600      1610
    24.5800      1592
    24.6000      1468
    24.6200      1488
    24.6400      1226
    24.6600      1136
    24.6800      1064
    24.7000       978
    24.7200       872
    24.7400       830
    24.7600       764
    24.7800       730
    24.8000       716
    24.8200       700
    24.8400       622
    24.8600       570
    24.8800       520
    24.9000       478
    24.9200       504
    24.9400       474
    24.9600       450
    24.9800       490
    25.0000       490
    25.0200       528
    25.0400       538
    25.0600       542
    25.0800       516
    25.1000       548
    25.1200       540
    25.1400       550
    25.1600       564
    25.1800       634
    25.2000       650
    25.2200       710
    25.2400       768
    25.2600       810
    25.2800       858
    25.3000       932
    25.3200       994
    25.3400       954
    25.3600       984
    25.3800       854
    25.4000       860
    25.4200       806
    25.4400       722
    25.4600       660
    25.4800       738
    25.5000       698
    25.5200       712
    25.5400       860
    25.5600       900
    25.5800       940
    25.6000      1038
    25.6200      1000
    25.6400       966
    25.6600       882
    25.6800       778
    25.7000       704
    25.7200       586
    25.7400       474
    25.7600       412
    25.7800       396
    25.8000       378
    25.8200       344
    25.8400       292
    25.8600       324
    25.8800       316
    25.9000       320
    25.9200       298
    25.9400       270
    25.9600       284
    25.9800       266
    26.0000       238
    26.0200       282
    26.0400       282
    26.0600       260
    26.0800       286
    26.1000       308
    26.1200       260
    26.1400       270
    26.1600       264
    26.1800       276
    26.2000       262
    26.2200       260
    26.2400       262
    26.2600       268
    26.2800       300
    26.3000       298
    26.3200       294
    26.3400       294
    26.3600       300
    26.3800       330
    26.4000       318
    26.4200       336
    26.4400       316
    26.4600       332
    26.4800       314
    26.5000       314
    26.5200       334
    26.5400       314
    26.5600       346
    26.5800       310
    26.6000       370
    26.6200       336
    26.6400       346
    26.6600       334
    26.6800       342
    26.7000       332
    26.7200       316
    26.7400       298
    26.7600       332
    26.7800       328
    26.8000       258
    26.8200       274
    26.8400       282
    26.8600       292
    26.8800       276
    26.9000       288
    26.9200       260
    26.9400       260
    26.9600       274
    26.9800       294
    27.0000       274
    27.0200       246
    27.0400       278
    27.0600       276
    27.0800       296
    27.1000       274
    27.1200       330
    27.1400       338
    27.1600       364
    27.1800       362
    27.2000       412
    27.2200       470
    27.2400       510
    27.2600       494
    27.2800       548
    27.3000       630
    27.3200       744
    27.3400       814
    27.3600       936
    27.3800      1050
    27.4000      1172
    27.4200      1268
    27.4400      1316
    27.4600      1504
    27.4800      1588
    27.5000      1520
    27.5200      1510
    27.5400      1504
    27.5600      1368
    27.5800      1218
    27.6000      1188
    27.6200      1054
    27.6400       930
    27.6600       876
    27.6800       774
    27.7000       646
    27.7200       592
    27.7400       564
    27.7600       456
    27.7800       438
    27.8000       386
    27.8200       382
    27.8400       338
    27.8600       294
    27.8800       312
    27.9000       304
    27.9200       294
    27.9400       268
    27.9600       236
    27.9800       292
    28.0000       292
    28.0200       272
    28.0400       238
    28.0600       250
    28.0800       244
    28.1000       260
    28.1200       230
    28.1400       230
    28.1600       244
    28.1800       264
    28.2000       226
    28.2200       192
    28.2400       262
    28.2600       256
    28.2800       278
    28.3000       246
    28.3200       250
    28.3400       268
    28.3600       250
    28.3800       254
    28.4000       252
    28.4200       248
    28.4400       256
    28.4600       256
    28.4800       262
    28.5000       268
    28.5200       230
    28.5400       264
    28.5600       262
    28.5800       262
    28.6000       286
    28.6200       330
    28.6400       312
    28.6600       308
    28.6800       314
    28.7000       336
    28.7200       362
    28.7400       366
    28.7600       362
    28.7800       380
    28.8000       316
    28.8200       318
    28.8400       332
    28.8600       326
    28.8800       294
    28.9000       276
    28.9200       272
    28.9400       274
    28.9600       286
    28.9800       284
    29.0000       280
    29.0200       266
    29.0400       268
    29.0600       268
    29.0800       266
    29.1000       266
    29.1200       258
    29.1400       280
    29.1600       332
    29.1800       314
    29.2000       294
    29.2200       322
    29.2400       334
    29.2600       334
    29.2800       344
    29.3000       368
    29.3200       368
    29.3400       380
    29.3600       396
    29.3800       468
    29.4000       444
    29.4200       502
    29.4400       544
    29.4600       550
    29.4800       600
    29.5000       644
    29.5200       680
    29.5400       684
    29.5600       762
    29.5800       806
    29.6000       832
    29.6200       926
    29.6400       954
    29.6600      1044
    29.6800      1028
    29.7000       982
    29.7200       896
    29.7400       866
    29.7600       808
    29.7800       718
    29.8000       728
    29.8200       632
    29.8400       570
    29.8600       564
    29.8800       616
    29.9000       634
    29.9200       686
    29.9400       660
    29.9600       678
    29.9800       836
    30.0000       920
    30.0200       962
    30.0400      1142
    30.0600      1304
    30.0800      1528
    30.1000      1720
    30.1200      1980
    30.1400      2174
    30.1600      2440
    30.1800      2566
    30.2000      2718
    30.2200      2708
    30.2400      2668
    30.2600      2658
    30.2800      2524
    30.3000      2412
    30.3200      2336
    30.3400      2144
    30.3600      2008
    30.3800      2066
    30.4000      1964
    30.4200      1840
    30.4400      1896
    30.4600      1972
    30.4800      1994
    30.5000      2162
    30.5200      2356
    30.5400      2450
    30.5600      2748
    30.5800      3058
    30.6000      3436
    30.6200      3896
    30.6400      4400
    30.6600      4740
    30.6800      5102
    30.7000      5074
    30.7200      5154
    30.7400      4752
    30.7600      4150
    30.7800      3718
    30.8000      3222
    30.8200      2654
    30.8400      2112
    30.8600      1730
    30.8800      1474
    30.9000      1238
    30.9200      1112
    30.9400      1036
    30.9600      1028
    30.9800       926
    31.0000       918
    31.0200       910
    31.0400       876
    31.0600       880
    31.0800       756
    31.1000       730
    31.1200       602
    31.1400       596
    31.1600       544
    31.1800       512
    31.2000       426
    31.2200       406
    31.2400       352
    31.2600       378
    31.2800       332
    31.3000       302
    31.3200       340
    31.3400       328
    31.3600       330
    31.3800       288
    31.4000       300
    31.4200       300
    31.4400       272
    31.4600       290
    31.4800       284
    31.5000       284
    31.5200       294
    31.5400       320
    31.5600       294
    31.5800       336
    31.6000       332
    31.6200       322
    31.6400       378
    31.6600       368
    31.6800       378
    31.7000       416
    31.7200       426
    31.7400       456
    31.7600       536
    31.7800       546
    31.8000       584
    31.8200       644
    31.8400       716
    31.8600       828
    31.8800       936
    31.9000      1170
    31.9200      1318
    31.9400      1520
    31.9600      1806
    31.9800      1946
    32.0000      2032
    32.0200      2096
    32.0400      1930
    32.0600      1762
    32.0800      1590
    32.1000      1462
    32.1200      1380
    32.1400      1164
    32.1600      1086
    32.1800       962
    32.2000       924
    32.2200       998
    32.2400       984
    32.2600       972
    32.2800      1082
    32.3000      1232
    32.3200      1428
    32.3400      1590
    32.3600      1732
    32.3800      2134
    32.4000      2406
    32.4200      2870
    32.4400      3456
    32.4600      3924
    32.4800      4816
    32.5000      5496
    32.5200      6208
    32.5400      6786
    32.5600      6896
    32.5800      6866
    32.6000      6630
    32.6200      6206
    32.6400      5620
    32.6600      4804
    32.6800      4134
    32.7000      3570
    32.7200      2980
    32.7400      2496
    32.7600      2052
    32.7800      1778
    32.8000      1538
    32.8200      1330
    32.8400      1182
    32.8600      1126
    32.8800      1042
    32.9000       940
    32.9200       976
    32.9400       932
    32.9600      1020
    32.9800      1022
    33.0000      1044
    33.0200      1196
    33.0400      1256
    33.0600      1446
    33.0800      1464
    33.1000      1492
    33.1200      1430
    33.1400      1330
    33.1600      1172
    33.1800      1070
    33.2000       966
    33.2200       864
    33.2400       790
    33.2600       614
    33.2800       522
    33.3000       512
    33.3200       388
    33.3400       396
    33.3600       346
    33.3800       326
    33.4000       344
    33.4200       330
    33.4400       302
    33.4600       324
    33.4800       304
    33.5000       270
    33.5200       246
    33.5400       226
    33.5600       246
    33.5800       254
    33.6000       264
    33.6200       236
    33.6400       234
    33.6600       232
    33.6800       230
    33.7000       216
    33.7200       208
    33.7400       204
    33.7600       222
    33.7800       202
    33.8000       236
    33.8200       234
    33.8400       238
    33.8600       236
    33.8800       220
    33.9000       232
    33.9200       224
    33.9400       210
    33.9600       238
    33.9800       228
    34.0000       224
    34.0200       246
    34.0400       244
    34.0600       230
    34.0800       208
    34.1000       218
    34.1200       212
    34.1400       220
    34.1600       252
    34.1800       264
    34.2000       256
    34.2200       228
    34.2400       260
    34.2600       234
    34.2800       282
    34.3000       262
    34.3200       278
    34.3400       334
    34.3600       306
    34.3800       338
    34.4000       344
    34.4200       410
    34.4400       374
    34.4600       402
    34.4800       476
    34.5000       482
    34.5200       520
    34.5400       488
    34.5600       488
    34.5800       458
    34.6000       460
    34.6200       444
    34.6400       390
    34.6600       384
    34.6800       344
    34.7000       340
    34.7200       326
    34.7400       316
    34.7600       310
    34.7800       326
    34.8000       306
    34.8200       298
    34.8400       300
    34.8600       304
    34.8800       336
    34.9000       296
    34.9200       290
    34.9400       304
    34.9600       270
    34.9800       268
    35.0000       252
    35.0200       254
    35.0400       284
    35.0600       242
    35.0800       252
    35.1000       264
    35.1200       248
    35.1400       252
    35.1600       246
    35.1800       220
    35.2000       260
    35.2200       256
    35.2400       238
    35.2600       290
    35.2800       242
    35.3000       258
    35.3200       256
    35.3400       248
    35.3600       262
    35.3800       250
    35.4000       236
    35.4200       248
    35.4400       264
    35.4600       248
    35.4800       234
    35.5000       274
    35.5200       270
    35.5400       252
    35.5600       246
    35.5800       260
    35.6000       290
    35.6200       274
    35.6400       294
    35.6600       246
    35.6800       272
    35.7000       270
    35.7200       272
    35.7400       300
    35.7600       276
    35.7800       324
    35.8000       312
    35.8200       336
    35.8400       360
    35.8600       348
    35.8800       394
    35.9000       370
    35.9200       410
    35.9400       420
    35.9600       498
    35.9800       526
    36.0000       544
    36.0200       590
    36.0400       664
    36.0600       684
    36.0800       752
    36.1000       874
    36.1200       918
    36.1400       950
    36.1600       922
    36.1800       886
    36.2000       832
    36.2200       748
    36.2400       728
    36.2600       652
    36.2800       586
    36.3000       516
    36.3200       482
    36.3400       424
    36.3600       400
    36.3800       384
    36.4000       352
    36.4200       368
    36.4400       346
    36.4600       350
    36.4800       370
    36.5000       358
    36.5200       306
    36.5400       338
    36.5600       386
    36.5800       408
    36.6000       424
    36.6200       464
    36.6400       474
    36.6600       508
    36.6800       542
    36.7000       628
    36.7200       616
    36.7400       798
    36.7600       870
    36.7800      1004
    36.8000      1132
    36.8200      1320
    36.8400      1446
    36.8600      1596
    36.8800      1746
    36.9000      1768
    36.9200      1756
    36.9400      1772
    36.9600      1626
    36.9800      1508
    37.0000      1432
    37.0200      1316
    37.0400      1248
    37.0600      1160
    37.0800      1058
    37.1000      1032
    37.1200       996
    37.1400       946
    37.1600       972
    37.1800       946
    37.2000       946
    37.2200       924
    37.2400       902
    37.2600       874
    37.2800       784
    37.3000       796
    37.3200       734
    37.3400       690
    37.3600       668
    37.3800       668
    37.4000       586
    37.4200       574
    37.4400       518
    37.4600       526
    37.4800       530
    37.5000       530
    37.5200       496
    37.5400       456
    37.5600       440
    37.5800       464
    37.6000       416
    37.6200       448
    37.6400       446
    37.6600       532
    37.6800       490
    37.7000       472
    37.7200       508
    37.7400       514
    37.7600       582
    37.7800       608
    37.8000       578
    37.8200       666
    37.8400       742
    37.8600       794
    37.8800       832
    37.9000       936
    37.9200      1084
    37.9400      1256
    37.9600      1428
    37.9800      1644
    38.0000      1798
    38.0200      1866
    38.0400      1840
    38.0600      1854
    38.0800      1770
    38.1000      1698
    38.1200      1528
    38.1400      1442
    38.1600      1382
    38.1800      1304
    38.2000      1234
    38.2200      1302
    38.2400      1274
    38.2600      1288
    38.2800      1334
    38.3000      1340
    38.3200      1514
    38.3400      1720
    38.3600      1884
    38.3800      2258
    38.4000      2592
    38.4200      2902
    38.4400      3248
    38.4600      3542
    38.4800      3846
    38.5000      4062
    38.5200      4172
    38.5400      4286
    38.5600      4502
    38.5800      4536
    38.6000      4502
    38.6200      4758
    38.6400      4824
    38.6600      4900
    38.6800      4826
    38.7000      4784
    38.7200      4760
    38.7400      4524
    38.7600      4372
    38.7800      4108
    38.8000      3654
    38.8200      3180
    38.8400      2852
    38.8600      2534
    38.8800      2272
    38.9000      1980
    38.9200      1742
    38.9400      1560
    38.9600      1386
    38.9800      1296
    39.0000      1164
    39.0200      1024
    39.0400      1072
    39.0600      1070
    39.0800      1058
    39.1000      1064
    39.1200      1112
    39.1400      1098
    39.1600      1132
    39.1800      1174
    39.2000      1170
    39.2200      1218
    39.2400      1188
    39.2600      1194
    39.2800      1200
    39.3000      1166
    39.3200      1186
    39.3400      1192
    39.3600      1258
    39.3800      1218
    39.4000      1206
    39.4200      1180
    39.4400      1130
    39.4600      1094
    39.4800      1178
    39.5000      1190
    39.5200      1164
    39.5400      1100
    39.5600      1244
    39.5800      1336
    39.6000      1414
    39.6200      1616
    39.6400      1724
    39.6600      1936
    39.6800      1922
    39.7000      1958
    39.7200      2032
    39.7400      1942
    39.7600      1900
    39.7800      1732
    39.8000      1532
    39.8200      1458
    39.8400      1246
    39.8600      1070
    39.8800       914
    39.9000       854
    39.9200       778
    39.9400       680
    39.9600       656
    39.9800       650
    40.0000       630
    40.0200       618
    40.0400       658
    40.0600       662
    40.0800       642
    40.1000       728
    40.1200       714
    40.1400       658
    40.1600       828
    40.1800       822
    40.2000       832
    40.2200       836
    40.2400       832
    40.2600       786
    40.2800       844
    40.3000       858
    40.3200       890
    40.3400       812
    40.3600       870
    40.3800       880
    40.4000       906
    40.4200       988
    40.4400      1012
    40.4600      1098
    40.4800      1202
    40.5000      1322
    40.5200      1338
    40.5400      1454
    40.5600      1528
    40.5800      1524
    40.6000      1520
    40.6200      1552
    40.6400      1490
    40.6600      1460
    40.6800      1308
    40.7000      1240
    40.7200      1172
    40.7400      1032
    40.7600       954
    40.7800       832
    40.8000       812
    40.8200       734
    40.8400       700
    40.8600       658
    40.8800       604
    40.9000       670
    40.9200       568
    40.9400       580
    40.9600       640
    40.9800       584
    41.0000       660
    41.0200       700
    41.0400       732
    41.0600       750
    41.0800       822
    41.1000       960
    41.1200       972
    41.1400      1100
    41.1600      1256
    41.1800      1348
    41.2000      1444
    41.2200      1600
    41.2400      1728
    41.2600      1720
    41.2800      1982
    41.3000      1984
    41.3200      1958
    41.3400      1884
    41.3600      2006
    41.3800      2020
    41.4000      1956
    41.4200      1854
    41.4400      1916
    41.4600      1902
    41.4800      1820
    41.5000      1828
    41.5200      1712
    41.5400      1608
    41.5600      1694
    41.5800      1456
    41.6000      1384
    41.6200      1298
    41.6400      1286
    41.6600      1144
    41.6800      1088
    41.7000      1138
    41.7200      1050
    41.7400      1058
    41.7600      1108
    41.7800      1204
    41.8000      1240
    41.8200      1390
    41.8400      1450
    41.8600      1500
    41.8800      1722
    41.9000      1684
    41.9200      1694
    41.9400      1660
    41.9600      1526
    41.9800      1396
    42.0000      1312
    42.0200      1262
    42.0400      1138
    42.0600      1036
    42.0800       932
    42.1000       810
    42.1200       760
    42.1400       600
    42.1600       608
    42.1800       596
    42.2000       488
    42.2200       470
    42.2400       432
    42.2600       440
    42.2800       406
    42.3000       356
    42.3200       412
    42.3400       394
    42.3600       404
    42.3800       372
    42.4000       356
    42.4200       366
    42.4400       354
    42.4600       388
    42.4800       340
    42.5000       392
    42.5200       354
    42.5400       340
    42.5600       346
    42.5800       338
    42.6000       350
    42.6200       358
    42.6400       350
    42.6600       346
    42.6800       366
    42.7000       344
    42.7200       314
    42.7400       368
    42.7600       322
    42.7800       368
    42.8000       340
    42.8200       370
    42.8400       402
    42.8600       436
    42.8800       394
    42.9000       448
    42.9200       428
    42.9400       462
    42.9600       526
    42.9800       562
    43.0000       570
    43.0200       666
    43.0400       726
    43.0600       860
    43.0800       950
    43.1000      1090
    43.1200      1226
    43.1400      1308
    43.1600      1412
    43.1800      1604
    43.2000      1626
    43.2200      1688
    43.2400      1570
    43.2600      1542
    43.2800      1544
    43.3000      1354
    43.3200      1368
    43.3400      1172
    43.3600      1018
    43.3800       930
    43.4000       820
    43.4200       754
    43.4400       650
    43.4600       622
    43.4800       530
    43.5000       498
    43.5200       516
    43.5400       476
    43.5600       494
    43.5800       466
    43.6000       466
    43.6200       448
    43.6400       476
    43.6600       470
    43.6800       444
    43.7000       502
    43.7200       546
    43.7400       540
    43.7600       602
    43.7800       598
    43.8000       666
    43.8200       642
    43.8400       634
    43.8600       634
    43.8800       648
    43.9000       620
    43.9200       656
    43.9400       526
    43.9600       534
    43.9800       584
    44.0000       502
    44.0200       462
    44.0400       484
    44.0600       424
    44.0800       426
    44.1000       380
    44.1200       384
    44.1400       390
    44.1600       412
    44.1800       400
    44.2000       396
    44.2200       410
    44.2400       410
    44.2600       378
    44.2800       414
    44.3000       424
    44.3200       430
    44.3400       404
    44.3600       464
    44.3800       444
    44.4000       390
    44.4200       466
    44.4400       430
    44.4600       422
    44.4800       450
    44.5000       466
    44.5200       412
    44.5400       446
    44.5600       414
    44.5800       390
    44.6000       430
    44.6200       460
    44.6400       430
    44.6600       490
    44.6800       490
    44.7000       508
    44.7200       514
    44.7400       576
    44.7600       550
    44.7800       642
    44.8000       674
    44.8200       718
    44.8400       812
    44.8600       940
    44.8800       990
    44.9000      1098
    44.9200      1180
    44.9400      1378
    44.9600      1408
    44.9800      1586
    45.0000      1730
    45.0200      1784
    45.0400      1890
    45.0600      2076
    45.0800      2128
    45.1000      2082
    45.1200      2258
    45.1400      2158
    45.1600      2228
    45.1800      2272
    45.2000      2266
    45.2200      2256
    45.2400      2194
    45.2600      2248
    45.2800      2172
    45.3000      2084
    45.3200      1904
    45.3400      1756
    45.3600      1718
    45.3800      1614
    45.4000      1570
    45.4200      1530
    45.4400      1364
    45.4600      1366
    45.4800      1374
    45.5000      1262
    45.5200      1200
    45.5400      1144
    45.5600      1122
    45.5800       970
    45.6000       906
    45.6200       908
    45.6400       894
    45.6600       846
    45.6800       736
    45.7000       730
    45.7200       768
    45.7400       728
    45.7600       678
    45.7800       670
    45.8000       704
    45.8200       640
    45.8400       602
    45.8600       628
    45.8800       656
    45.9000       636
    45.9200       682
    45.9400       574
    45.9600       600
    45.9800       618
    46.0000       594
    46.0200       610
    46.0400       604
    46.0600       650
    46.0800       658
    46.1000       656
    46.1200       626
    46.1400       658
    46.1600       630
    46.1800       730
    46.2000       646
    46.2200       714
    46.2400       766
    46.2600       790
    46.2800       806
    46.3000       878
    46.3200       902
    46.3400       930
    46.3600      1040
    46.3800      1140
    46.4000      1132
    46.4200      1304
    46.4400      1492
    46.4600      1558
    46.4800      1858
    46.5000      2120
    46.5200      2282
    46.5400      2666
    46.5600      2960
    46.5800      3478
    46.6000      3946
    46.6200      4568
    46.6400      5088
    46.6600      5820
    46.6800      6252
    46.7000      6620
    46.7200      6850
    46.7400      6652
    46.7600      6418
    46.7800      6096
    46.8000      5618
    46.8200      5362
    46.8400      4636
    46.8600      4188
    46.8800      3822
    46.9000      3414
    46.9200      2772
    46.9400      2344
    46.9600      1942
    46.9800      1718
    47.0000      1508
    47.0200      1320
    47.0400      1184
    47.0600      1052
    47.0800       972
    47.1000       920
    47.1200       780
    47.1400       784
    47.1600       736
    47.1800       686
    47.2000       638
    47.2200       612
    47.2400       564
    47.2600       570
    47.2800       562
    47.3000       470
    47.3200       518
    47.3400       494
    47.3600       516
    47.3800       468
    47.4000       448
    47.4200       424
    47.4400       442
    47.4600       462
    47.4800       436
    47.5000       458
    47.5200       428
    47.5400       454
    47.5600       428
    47.5800       408
    47.6000       442
    47.6200       418
    47.6400       470
    47.6600       426
    47.6800       480
    47.7000       478
    47.7200       522
    47.7400       570
    47.7600       612
    47.7800       646
    47.8000       652
    47.8200       680
    47.8400       722
    47.8600       750
    47.8800       714
    47.9000       706
    47.9200       672
    47.9400       724
    47.9600       664
    47.9800       650
    48.0000       598
    48.0200       592
    48.0400       586
    48.0600       564
    48.0800       620
    48.1000       618
    48.1200       628
    48.1400       662
    48.1600       682
    48.1800       788
    48.2000       810
    48.2200       800
    48.2400       866
    48.2600       858
    48.2800       842
    48.3000       816
    48.3200       826
    48.3400       822
    48.3600       884
    48.3800       898
    48.4000       924
    48.4200       990
    48.4400       980
    48.4600       990
    48.4800      1098
    48.5000      1086
    48.5200      1220
    48.5400      1212
    48.5600      1302
    48.5800      1292
    48.6000      1302
    48.6200      1372
    48.6400      1348
    48.6600      1344
    48.6800      1250
    48.7000      1168
    48.7200      1266
    48.7400      1174
    48.7600      1114
    48.7800      1042
    48.8000      1036
    48.8200       960
    48.8400       888
    48.8600       834
    48.8800       750
    48.9000       692
    48.9200       698
    48.9400       690
    48.9600       616
    48.9800       582
    49.0000       576
    49.0200       472
    49.0400       528
    49.0600       496
    49.0800       414
    49.1000       448
    49.1200       388
    49.1400       374
    49.1600       372
    49.1800       402
    49.2000       368
    49.2200       384
    49.2400       350
    49.2600       368
    49.2800       342
    49.3000       322
    49.3200       336
    49.3400       340
    49.3600       328
    49.3800       332
    49.4000       310
    49.4200       288
    49.4400       326
    49.4600       324
    49.4800       304
    49.5000       314
    49.5200       326
    49.5400       286
    49.5600       330
    49.5800       322
    49.6000       338
    49.6200       340
    49.6400       306
    49.6600       348
    49.6800       360
    49.7000       340
    49.7200       340
    49.7400       352
    49.7600       356
    49.7800       356
    49.8000       404
    49.8200       390
    49.8400       408
    49.8600       384
    49.8800       400
    49.9000       382
    49.9200       446
    49.9400       460
    49.9600       494
    49.9800       474
    50.0000       546
    50.0200       566
    50.0400       596
    50.0600       632
    50.0800       716
    50.1000       752
    50.1200       774
    50.1400       832
    50.1600       954
    50.1800      1014
    50.2000      1096
    50.2200      1184
    50.2400      1292
    50.2600      1268
    50.2800      1358
    50.3000      1436
    50.3200      1572
    50.3400      1472
    50.3600      1476
    50.3800      1560
    50.4000      1476
    50.4200      1464
    50.4400      1456
    50.4600      1470
    50.4800      1450
    50.5000      1352
    50.5200      1334
    50.5400      1348
    50.5600      1236
    50.5800      1244
    50.6000      1258
    50.6200      1230
    50.6400      1200
    50.6600      1200
    50.6800      1304
    50.7000      1316
    50.7200      1424
    50.7400      1454
    50.7600      1502
    50.7800      1702
    50.8000      1782
    50.8200      1716
    50.8400      1770
    50.8600      1762
    50.8800      1720
    50.9000      1666
    50.9200      1676
    50.9400      1714
    50.9600      1632
    50.9800      1442
    51.0000      1366
    51.0200      1356
    51.0400      1198
    51.0600      1088
    51.0800      1068
    51.1000       952
    51.1200       956
    51.1400       866
    51.1600       832
    51.1800       830
    51.2000       848
    51.2200       832
    51.2400       842
    51.2600       838
    51.2800       834
    51.3000       930
    51.3200       916
    51.3400       984
    51.3600       908
    51.3800       948
    51.4000       940
    51.4200       988
    51.4400       962
    51.4600       990
    51.4800      1002
    51.5000       898
    51.5200       908
    51.5400       860
    51.5600       880
    51.5800       854
    51.6000       850
    51.6200       884
    51.6400       858
    51.6600       854
    51.6800       916
    51.7000       924
    51.7200       938
    51.7400       988
    51.7600      1050
    51.7800      1190
    51.8000      1258
    51.8200      1284
    51.8400      1346
    51.8600      1388
    51.8800      1488
    51.9000      1480
    51.9200      1602
    51.9400      1624
    51.9600      1752
    51.9800      1742
    52.0000      1816
    52.0200      1800
    52.0400      1726
    52.0600      1578
    52.0800      1588
    52.1000      1400
    52.1200      1396
    52.1400      1336
    52.1600      1164
    52.1800      1112
    52.2000      1008
    52.2200       912
    52.2400       824
    52.2600       850
    52.2800       756
    52.3000       722
    52.3200       702
    52.3400       676
    52.3600       682
    52.3800       680
    52.4000       736
    52.4200       728
    52.4400       790
    52.4600       842
    52.4800       878
    52.5000       948
    52.5200      1056
    52.5400      1112
    52.5600      1190
    52.5800      1180
    52.6000      1254
    52.6200      1312
    52.6400      1348
    52.6600      1290
    52.6800      1328
    52.7000      1208
    52.7200      1216
    52.7400      1244
    52.7600      1194
    52.7800      1060
    52.8000      1036
    52.8200       964
    52.8400       964
    52.8600       806
    52.8800       820
    52.9000       816
    52.9200       806
    52.9400       780
    52.9600       712
    52.9800       692
    53.0000       732
    53.0200       648
    53.0400       726
    53.0600       748
    53.0800       756
    53.1000       830
    53.1200       858
    53.1400       952
    53.1600      1048
    53.1800      1172
    53.2000      1188
    53.2200      1342
    53.2400      1452
    53.2600      1462
    53.2800      1518
    53.3000      1534
    53.3200      1514
    53.3400      1394
    53.3600      1314
    53.3800      1246
    53.4000      1208
    53.4200      1104
    53.4400      1020
    53.4600      1026
    53.4800      1002
    53.5000       796
    53.5200       798
    53.5400       708
    53.5600       682
    53.5800       670
    53.6000       612
    53.6200       580
    53.6400       606
    53.6600       546
    53.6800       550
    53.7000       594
    53.7200       534
    53.7400       514
    53.7600       502
    53.7800       560
    53.8000       524
    53.8200       510
    53.8400       456
    53.8600       482
    53.8800       492
    53.9000       436
    53.9200       460
    53.9400       436
    53.9600       462
    53.9800       452
    54.0000       446
    54.0200       432
    54.0400       470
    54.0600       430
    54.0800       442
    54.1000       448
    54.1200       462
    54.1400       458
    54.1600       430
    54.1800       470
    54.2000       518
    54.2200       504
    54.2400       510
    54.2600       522
    54.2800       570
    54.3000       520
    54.3200       586
    54.3400       606
    54.3600       628
    54.3800       566
    54.4000       584
    54.4200       612
    54.4400       628
    54.4600       706
    54.4800       692
    54.5000       696
    54.5200       694
    54.5400       744
    54.5600       768
    54.5800       786
    54.6000       782
    54.6200       778
    54.6400       740
    54.6600       816
    54.6800       828
    54.7000       824
    54.7200       820
    54.7400       854
    54.7600       888
    54.7800       908
    54.8000       906
    54.8200       844
    54.8400       830
    54.8600       816
    54.8800       854
    54.9000       808
    54.9200       802
    54.9400       830
    54.9600       828
    54.9800       868
    55.0000       850
    55.0200       862
    55.0400       898
    55.0600       892
    55.0800       964
    55.1000       962
    55.1200      1002
    55.1400      1044
    55.1600      1022
    55.1800      1066
    55.2000      1076
    55.2200      1060
    55.2400       994
    55.2600      1096
    55.2800      1092
    55.3000      1016
    55.3200      1024
    55.3400       962
    55.3600       936
    55.3800       886
    55.4000       898
    55.4200       836
    55.4400       774
    55.4600       790
    55.4800       712
    55.5000       686
    55.5200       680
    55.5400       610
    55.5600       588
    55.5800       556
    55.6000       536
    55.6200       514
    55.6400       472
    55.6600       426
    55.6800       398
    55.7000       390
    55.7200       422
    55.7400       390
    55.7600       368
    55.7800       396
    55.8000       340
    55.8200       318
    55.8400       322
    55.8600       300
    55.8800       304
    55.9000       314
    55.9200       314
    55.9400       308
    55.9600       306
    55.9800       296
    56.0000       256
    56.0200       290
    56.0400       326
    56.0600       292
    56.0800       304
    56.1000       290
    56.1200       268
    56.1400       288
    56.1600       330
    56.1800       280
    56.2000       294
    56.2200       326
    56.2400       332
    56.2600       286
    56.2800       290
    56.3000       322
    56.3200       330
    56.3400       312
    56.3600       310
    56.3800       318
    56.4000       326
    56.4200       318
    56.4400       326
    56.4600       328
    56.4800       308
    56.5000       326
    56.5200       332
    56.5400       360
    56.5600       394
    56.5800       350
    56.6000       406
    56.6200       400
    56.6400       420
    56.6600       442
    56.6800       456
    56.7000       426
    56.7200       494
    56.7400       476
    56.7600       514
    56.7800       538
    56.8000       562
    56.8200       600
    56.8400       526
    56.8600       530
    56.8800       576
    56.9000       520
    56.9200       490
    56.9400       574
    56.9600       530
    56.9800       560
    57.0000       516
    57.0200       542
    57.0400       500
    57.0600       498
    57.0800       492
    57.1000       550
    57.1200       522
    57.1400       512
    57.1600       582
    57.1800       644
    57.2000       690
    57.2200       782
    57.2400       730
    57.2600       844
    57.2800       912
    57.3000      1000
    57.3200      1066
    57.3400      1234
    57.3600      1350
    57.3800      1346
    57.4000      1362
    57.4200      1288
    57.4400      1266
    57.4600      1254
    57.4800      1282
    57.5000      1182
    57.5200      1196
    57.5400      1164
    57.5600      1190
    57.5800      1118
    57.6000      1160
    57.6200      1104
    57.6400      1164
    57.6600      1168
    57.6800      1222
    57.7000      1296
    57.7200      1340
    57.7400      1412
    57.7600      1312
    57.7800      1384
    57.8000      1340
    57.8200      1250
    57.8400      1252
    57.8600      1190
    57.8800      1096
    57.9000      1108
    57.9200       980
    57.9400       936
    57.9600       874
    57.9800       832
    58.0000       748
    58.0200       732
    58.0400       694
    58.0600       696
    58.0800       678
    58.1000       614
    58.1200       642
    58.1400       628
    58.1600       638
    58.1800       646
    58.2000       736
    58.2200       768
    58.2400       822
    58.2600       792
    58.2800       828
    58.3000       888
    58.3200       860
    58.3400      1056
    58.3600      1020
    58.3800      1166
    58.4000      1182
    58.4200      1212
    58.4400      1362
    58.4600      1472
    58.4800      1582
    58.5000      1610
    58.5200      1692
    58.5400      1838
    58.5600      1938
    58.5800      1976
    58.6000      2050
    58.6200      2188
    58.6400      2186
    58.6600      2368
    58.6800      2416
    58.7000      2632
    58.7200      2626
    58.7400      2730
    58.7600      2684
    58.7800      2588
    58.8000      2518
    58.8200      2440
    58.8400      2350
    58.8600      2314
    58.8800      2110
    58.9000      2126
    58.9200      1948
    58.9400      1744
    58.9600      1660
    58.9800      1450
    59.0000      1422
    59.0200      1252
    59.0400      1208
    59.0600      1112
    59.0800      1042
    59.1000       962
    59.1200       930
    59.1400       808
    59.1600       848
    59.1800       800
    59.2000       778
    59.2200       800
    59.2400       772
    59.2600       840
    59.2800       864
    59.3000       850
    59.3200       898
    59.3400       976
    59.3600      1044
    59.3800      1088
    59.4000      1114
    59.4200      1198
    59.4400      1272
    59.4600      1236
    59.4800      1324
    59.5000      1388
    59.5200      1292
    59.5400      1334
    59.5600      1318
    59.5800      1312
    59.6000      1302
    59.6200      1242
    59.6400      1262
    59.6600      1210
    59.6800      1156
    59.7000      1148
    59.7200      1100
    59.7400      1198
    59.7600      1048
    59.7800      1052
    59.8000      1044
    59.8200      1028
    59.8400      1000
    59.8600       986
    59.8800      1010
    59.9000       928
    59.9200       964
    59.9400       926
    59.9600       866
    59.9800       870
    60.0000       796
    60.0200       808
    60.0400       766
    60.0600       772
    60.0800       686
    60.1000       690
    60.1200       656
    60.1400       692
    60.1600       580
    60.1800       562
    60.2000       542
    60.2200       530
    60.2400       494
    60.2600       526
    60.2800       488
    60.3000       468
    60.3200       428
    60.3400       460
    60.3600       434
    60.3800       442
    60.4000       438
    60.4200       388
    60.4400       456
    60.4600       404
    60.4800       350
    60.5000       374
    60.5200       396
    60.5400       394
    60.5600       414
    60.5800       384
    60.6000       386
    60.6200       378
    60.6400       372
    60.6600       382
    60.6800       360
    60.7000       360
    60.7200       444
    60.7400       388
    60.7600       454
    60.7800       388
    60.8000       416
    60.8200       444
    60.8400       426
    60.8600       448
    60.8800       460
    60.9000       466
    60.9200       490
    60.9400       474
    60.9600       494
    60.9800       522
    61.0000       578
    61.0200       598
    61.0400       620
    61.0600       634
    61.0800       670
    61.1000       658
    61.1200       744
    61.1400       760
    61.1600       722
    61.1800       752
    61.2000       718
    61.2200       784
    61.2400       768
    61.2600       802
    61.2800       820
    61.3000       840
    61.3200       820
    61.3400       836
    61.3600       816
    61.3800       862
    61.4000       918
    61.4200       900
    61.4400       940
    61.4600      1012
    61.4800      1100
    61.5000      1108
    61.5200      1074
    61.5400      1092
    61.5600      1152
    61.5800      1152
    61.6000      1152
    61.6200      1174
    61.6400      1156
    61.6600      1138
    61.6800      1100
    61.7000      1074
    61.7200      1016
    61.7400      1012
    61.7600       938
    61.7800       896
    61.8000       874
    61.8200       834
    61.8400       820
    61.8600       736
    61.8800       750
    61.9000       658
    61.9200       670
    61.9400       602
    61.9600       592
    61.9800       600
    62.0000       580
    62.0200       596
    62.0400       596
    62.0600       552
    62.0800       546
    62.1000       528
    62.1200       564
    62.1400       532
    62.1600       562
    62.1800       514
    62.2000       532
    62.2200       518
    62.2400       450
    62.2600       470
    62.2800       456
    62.3000       438
    62.3200       474
    62.3400       432
    62.3600       438
    62.3800       456
    62.4000       432
    62.4200       392
    62.4400       450
    62.4600       412
    62.4800       406
    62.5000       372
    62.5200       386
    62.5400       388
    62.5600       388
    62.5800       388
    62.6000       430
    62.6200       342
    62.6400       378
    62.6600       382
    62.6800       378
    62.7000       418
    62.7200       372
    62.7400       368
    62.7600       354
    62.7800       392
    62.8000       396
    62.8200       418
    62.8400       424
    62.8600       370
    62.8800       370
    62.9000       340
    62.9200       374
    62.9400       344
    62.9600       366
    62.9800       354
    63.0000       338
    63.0200       330
    63.0400       344
    63.0600       336
    63.0800       322
    63.1000       296
    63.1200       290
    63.1400       314
    63.1600       282
    63.1800       284
    63.2000       264
    63.2200       272
    63.2400       264
    63.2600       272
    63.2800       272
    63.3000       286
    63.3200       252
    63.3400       278
    63.3600       278
    63.3800       286
    63.4000       282
    63.4200       274
    63.4400       282
    63.4600       286
    63.4800       290
    63.5000       322
    63.5200       308
    63.5400       316
    63.5600       276
    63.5800       328
    63.6000       350
    63.6200       356
    63.6400       382
    63.6600       364
    63.6800       364
    63.7000       428
    63.7200       430
    63.7400       482
    63.7600       520
    63.7800       548
    63.8000       550
    63.8200       630
    63.8400       648
    63.8600       630
    63.8800       648
    63.9000       718
    63.9200       672
    63.9400       702
    63.9600       648
    63.9800       666
    64.0000       630
    64.0200       630
    64.0400       602
    64.0600       564
    64.0800       582
    64.1000       524
    64.1200       500
    64.1400       508
    64.1600       484
    64.1800       440
    64.2000       448
    64.2200       412
    64.2400       378
    64.2600       372
    64.2800       380
    64.3000       328
    64.3200       346
    64.3400       306
    64.3600       318
    64.3800       304
    64.4000       322
    64.4200       322
    64.4400       308
    64.4600       286
    64.4800       280
    64.5000       310
    64.5200       278
    64.5400       278
    64.5600       242
    64.5800       268
    64.6000       252
    64.6200       268
    64.6400       242
    64.6600       242
    64.6800       264
    64.7000       272
    64.7200       242
    64.7400       282
    64.7600       260
    64.7800       244
    64.8000       228
    64.8200       246
    64.8400       230
    64.8600       250
    64.8800       274
    64.9000       276
    64.9200       306
    64.9400       264
    64.9600       298
    64.9800       264
    65.0000       264
    65.0200       276
    65.0400       288
    65.0600       290
    65.0800       294
    65.1000       322
    65.1200       308
    65.1400       302
    65.1600       336
    65.1800       360
    65.2000       348
    65.2200       386
    65.2400       412
    65.2600       418
    65.2800       438
    65.3000       402
    65.3200       418
    65.3400       448
    65.3600       410
    65.3800       434
    65.4000       414
    65.4200       450
    65.4400       400
    65.4600       430
    65.4800       402
    65.5000       414
    65.5200       370
    65.5400       438
    65.5600       398
    65.5800       394
    65.6000       402
    65.6200       388
    65.6400       350
    65.6600       344
    65.6800       364
    65.7000       322
    65.7200       368
    65.7400       338
    65.7600       334
    65.7800       354
    65.8000       330
    65.8200       328
    65.8400       308
    65.8600       314
    65.8800       264
    65.9000       316
    65.9200       326
    65.9400       274
    65.9600       274
    65.9800       240
    66.0000       272
    66.0200       278
    66.0400       260
    66.0600       268
    66.0800       232
    66.1000       260
    66.1200       274
    66.1400       310
    66.1600       270
    66.1800       292
    66.2000       262
    66.2200       260
    66.2400       232
    66.2600       260
    66.2800       252
    66.3000       288
    66.3200       248
    66.3400       274
    66.3600       270
    66.3800       292
    66.4000       284
    66.4200       296
    66.4400       306
    66.4600       316
    66.4800       316
    66.5000       326
    66.5200       306
    66.5400       336
    66.5600       302
    66.5800       330
    66.6000       346
    66.6200       366
    66.6400       358
    66.6600       412
    66.6800       444
    66.7000       430
    66.7200       446
    66.7400       462
    66.7600       494
    66.7800       526
    66.8000       630
    66.8200       588
    66.8400       668
    66.8600       684
    66.8800       704
    66.9000       748
    66.9200       770
    66.9400       764
    66.9600       786
    66.9800       760
    67.0000       736
    67.0200       724
    67.0400       710
    67.0600       716
    67.0800       686
    67.1000       662
    67.1200       618
    67.1400       636
    67.1600       638
    67.1800       568
    67.2000       534
    67.2200       538
    67.2400       528
    67.2600       532
    67.2800       470
    67.3000       458
    67.3200       450
    67.3400       462
    67.3600       422
    67.3800       392
    67.4000       392
    67.4200       368
    67.4400       372
    67.4600       352
    67.4800       330
    67.5000       350
    67.5200       346
    67.5400       300
    67.5600       308
    67.5800       328
    67.6000       338
    67.6200       344
    67.6400       318
    67.6600       292
    67.6800       344
    67.7000       332
    67.7200       330
    67.7400       308
    67.7600       336
    67.7800       350
    67.8000       346
    67.8200       380
    67.8400       366
    67.8600       370
    67.8800       450
    67.9000       418
    67.9200       414
    67.9400       492
    67.9600       522
    67.9800       532
    68.0000       616
    68.0200       604
    68.0400       704
    68.0600       748
    68.0800       882
    68.1000       910
    68.1200       886
    68.1400       952
    68.1600       976
    68.1800       918
    68.2000       986
    68.2200       982
    68.2400      1044
    68.2600      1042
    68.2800       992
    68.3000      1004
    68.3200       914
    68.3400       932
    68.3600       896
    68.3800       876
    68.4000       780
    68.4200       730
    68.4400       770
    68.4600       728
    68.4800       648
    68.5000       608
    68.5200       612
    68.5400       632
    68.5600       550
    68.5800       502
    68.6000       500
    68.6200       490
    68.6400       462
    68.6600       438
    68.6800       446
    68.7000       410
    68.7200       442
    68.7400       390
    68.7600       360
    68.7800       346
    68.8000       400
    68.8200       340
    68.8400       360
    68.8600       314
    68.8800       322
    68.9000       326
    68.9200       290
    68.9400       318
    68.9600       312
    68.9800       302
    69.0000       332
    69.0200       300
    69.0400       302
    69.0600       342
    69.0800       292
    69.1000       342
    69.1200       326
    69.1400       348
    69.1600       350
    69.1800       384
    69.2000       354
    69.2200       414
    69.2400       392
    69.2600       430
    69.2800       450
    69.3000       464
    69.3200       444
    69.3400       464
    69.3600       522
    69.3800       486
    69.4000       514
    69.4200       494
    69.4400       492
    69.4600       490
    69.4800       488
    69.5000       504
    69.5200       458
    69.5400       452
    69.5600       416
    69.5800       436
    69.6000       434
    69.6200       446
    69.6400       404
    69.6600       386
    69.6800       350
    69.7000       376
    69.7200       360
    69.7400       346
    69.7600       394
    69.7800       360
    69.8000       366
    69.8200       344
    69.8400       360
    69.8600       334
    69.8800       368
    69.9000       342
    69.9200       380
    69.9400       364
    69.9600       324
    69.9800       338
    70.0000       350
    70.0200       322
    70.0400       412
    70.0600       276
    70.0800       312
    70.1000       312
    70.1200       298
    70.1400       318
    70.1600       272
    70.1800       276
    70.2000       280
    70.2200       286
    70.2400       274
    70.2600       268
    70.2800       246
    70.3000       268
    70.3200       240
    70.3400       238
    70.3600       222
    70.3800       284
    70.4000       272
    70.4200       248
    70.4400       210
    70.4600       262
    70.4800       236
    70.5000       292
    70.5200       276
    70.5400       244
    70.5600       234
    70.5800       288
    70.6000       248
    70.6200       256
    70.6400       278
    70.6600       276
    70.6800       248
    70.7000       272
    70.7200       256
    70.7400       252
    70.7600       244
    70.7800       222
    70.8000       216
    70.8200       222
    70.8400       212
    70.8600       222
    70.8800       186
    70.9000       232
    70.9200       216
    70.9400       216
    70.9600       202
    70.9800       196
    71.0000       234
    71.0200       174
    71.0400       228
    71.0600       226
    71.0800       228
    71.1000       224
    71.1200       244
    71.1400       224
    71.1600       220
    71.1800       256
    71.2000       260
    71.2200       268
    71.2400       264
    71.2600       290
    71.2800       324
    71.3000       326
    71.3200       332
    71.3400       338
    71.3600       338
    71.3800       384
    71.4000       404
    71.4200       408
    71.4400       436
    71.4600       508
    71.4800       472
    71.5000       488
    71.5200       552
    71.5400       526
    71.5600       582
    71.5800       510
    71.6000       540
    71.6200       518
    71.6400       522
    71.6600       520
    71.6800       540
    71.7000       516
    71.7200       566
    71.7400       506
    71.7600       504
    71.7800       472
    71.8000       464
    71.8200       482
    71.8400       438
    71.8600       466
    71.8800       438
    71.9000       424
    71.9200       448
    71.9400       406
    71.9600       380
    71.9800       410
    72.0000       380
    72.0200       422
    72.0400       398
    72.0600       368
    72.0800       378
    72.1000       382
    72.1200       384
    72.1400       438
    72.1600       414
    72.1800       430
    72.2000       436
    72.2200       410
    72.2400       464
    72.2600       462
    72.2800       478
    72.3000       532
    72.3200       472
    72.3400       478
    72.3600       476
    72.3800       514
    72.4000       482
    72.4200       454
    72.4400       502
    72.4600       468
    72.4800       526
    72.5000       466
    72.5200       480
    72.5400       490
    72.5600       504
    72.5800       480
    72.6000       498
    72.6200       500
    72.6400       478
    72.6600       524
    72.6800       500
    72.7000       522
    72.7200       512
    72.7400       462
    72.7600       500
    72.7800       574
    72.8000       500
    72.8200       524
    72.8400       520
    72.8600       506
    72.8800       534
    72.9000       482
    72.9200       478
    72.9400       494
    72.9600       470
    72.9800       450
    73.0000       442
    73.0200       444
    73.0400       384
    73.0600       412
    73.0800       404
    73.1000       390
    73.1200       384
    73.1400       366
    73.1600       334
    73.1800       336
    73.2000       334
    73.2200       342
    73.2400       300
    73.2600       290
    73.2800       298
    73.3000       274
    73.3200       256
    73.3400       262
    73.3600       270
    73.3800       248
    73.4000       252
    73.4200       262
    73.4400       262
    73.4600       254
    73.4800       260
    73.5000       236
    73.5200       234
    73.5400       206
    73.5600       254
    73.5800       266
    73.6000       236
    73.6200       224
    73.6400       248
    73.6600       246
    73.6800       246
    73.7000       242
    73.7200       252
    73.7400       256
    73.7600       264
    73.7800       244
    73.8000       228
    73.8200       238
    73.8400       266
    73.8600       276
    73.8800       256
    73.9000       234
    73.9200       270
    73.9400       258
    73.9600       272
    73.9800       252
    74.0000       296
    74.0200       284
    74.0400       304
    74.0600       252
    74.0800       290
    74.1000       304
    74.1200       312
    74.1400       284
    74.1600       288
    74.1800       270
    74.2000       264
    74.2200       288
    74.2400       254
    74.2600       270
    74.2800       274
    74.3000       250
    74.3200       264
    74.3400       254
    74.3600       252
    74.3800       252
    74.4000       222
    74.4200       206
    74.4400       232
    74.4600       234
    74.4800       216
    74.5000       240
    74.5200       200
    74.5400       240
    74.5600       206
    74.5800       218
    74.6000       186
    74.6200       188
    74.6400       212
    74.6600       184
    74.6800       226
    74.7000       184
    74.7200       194
    74.7400       170
    74.7600       218
    74.7800       210
    74.8000       212
    74.8200       186
    74.8400       168
    74.8600       172
    74.8800       208
    74.9000       198
    74.9200       200
    74.9400       200
    74.9600       224
    74.9800       192
    75.0000       218
    75.0200       218
    75.0400       224
    75.0600       220
    75.0800       214
    75.1000       226
    75.1200       190
    75.1400       232
    75.1600       232
    75.1800       252
    75.2000       206
    75.2200       224
    75.2400       238
    75.2600       248
    75.2800       222
    75.3000       234
    75.3200       246
    75.3400       260
    75.3600       220
    75.3800       224
    75.4000       234
    75.4200       240
    75.4400       240
    75.4600       260
    75.4800       242
    75.5000       254
    75.5200       250
    75.5400       232
    75.5600       236
    75.5800       252
    75.6000       248
    75.6200       238
    75.6400       232
    75.6600       270
    75.6800       262
    75.7000       262
    75.7200       280
    75.7400       244
    75.7600       252
    75.7800       278
    75.8000       222
    75.8200       220
    75.8400       254
    75.8600       260
    75.8800       268
    75.9000       274
    75.9200       248
    75.9400       254
    75.9600       248
    75.9800       218
    76.0000       246
    76.0200       242
    76.0400       224
    76.0600       250
    76.0800       232
    76.1000       274
    76.1200       280
    76.1400       270
    76.1600       252
    76.1800       246
    76.2000       266
    76.2200       262
    76.2400       306
    76.2600       244
    76.2800       288
    76.3000       284
    76.3200       310
    76.3400       310
    76.3600       342
    76.3800       304
    76.4000       312
    76.4200       374
    76.4400       340
    76.4600       390
    76.4800       346
    76.5000       374
    76.5200       370
    76.5400       398
    76.5600       356
    76.5800       404
    76.6000       390
    76.6200       430
    76.6400       450
    76.6600       416
    76.6800       446
    76.7000       394
    76.7200       394
    76.7400       424
    76.7600       434
    76.7800       392
    76.8000       408
    76.8200       358
    76.8400       362
    76.8600       362
    76.8800       338
    76.9000       370
    76.9200       310
    76.9400       344
    76.9600       352
    76.9800       334
    77.0000       310
    77.0200       348
    77.0400       314
    77.0600       298
    77.0800       304
    77.1000       276
    77.1200       306
    77.1400       274
    77.1600       304
    77.1800       328
    77.2000       350
    77.2200       310
    77.2400       344
    77.2600       354
    77.2800       306
    77.3000       346
    77.3200       382
    77.3400       384
    77.3600       402
    77.3800       394
    77.4000       444
    77.4200       414
    77.4400       438
    77.4600       500
    77.4800       496
    77.5000       506
    77.5200       554
    77.5400       616
    77.5600       608
    77.5800       684
    77.6000       656
    77.6200       708
    77.6400       756
    77.6600       746
    77.6800       724
    77.7000       724
    77.7200       718
    77.7400       714
    77.7600       720
    77.7800       682
    77.8000       684
    77.8200       686
    77.8400       624
    77.8600       610
    77.8800       602
    77.9000       594
    77.9200       576
    77.9400       564
    77.9600       544
    77.9800       506
    78.0000       478
    78.0200       494
    78.0400       444
    78.0600       406
    78.0800       408
    78.1000       396
    78.1200       416
    78.1400       398
    78.1600       360
    78.1800       348
    78.2000       342
    78.2200       356
    78.2400       360
    78.2600       326
    78.2800       302
    78.3000       316
    78.3200       316
    78.3400       340
    78.3600       314
    78.3800       316
    78.4000       368
    78.4200       360
    78.4400       328
    78.4600       320
    78.4800       394
    78.5000       360
    78.5200       376
    78.5400       374
    78.5600       378
    78.5800       368
    78.6000       368
    78.6200       432
    78.6400       380
    78.6600       402
    78.6800       422
    78.7000       404
    78.7200       402
    78.7400       402
    78.7600       408
    78.7800       386
    78.8000       394
    78.8200       344
    78.8400       346
    78.8600       404
    78.8800       360
    78.9000       366
    78.9200       348
    78.9400       322
    78.9600       368
    78.9800       306
    79.0000       308
    79.0200       334
    79.0400       314
    79.0600       308
    79.0800       282
    79.1000       280
    79.1200       298
    79.1400       318
    79.1600       284
    79.1800       304
    79.2000       266
    79.2200       250
    79.2400       256
    79.2600       286
    79.2800       242
    79.3000       278
    79.3200       250
    79.3400       232
    79.3600       250
    79.3800       258
    79.4000       252
    79.4200       298
    79.4400       258
    79.4600       234
    79.4800       260
    79.5000       266
    79.5200       242
    79.5400       234
    79.5600       234
    79.5800       222
    79.6000       268
    79.6200       248
    79.6400       234
    79.6600       246
    79.6800       270
    79.7000       262
    79.7200       250
    79.7400       266
    79.7600       264
    79.7800       262
    79.8000       244
    79.8200       262
    79.8400       238
    79.8600       246
    79.8800       238
    79.9000       234
    79.9200       254
    79.9400       254
    79.9600       234
    79.9800       280
    80.0000       244
    80.0200       262
    80.0400       262
    80.0600       262
    80.0800       246
    80.1000       240
    80.1200       228
    80.1400       240
    80.1600       258
    80.1800       252
    80.2000       242
    80.2200       240
    80.2400       260
    80.2600       258
    80.2800       260
    80.3000       246
    80.3200       242
    80.3400       270
    80.3600       304
    80.3800       282
    80.4000       266
    80.4200       290
    80.4400       264
    80.4600       274
    80.4800       264
    80.5000       286
    80.5200       300
    80.5400       290
    80.5600       280
    80.5800       272
    80.6000       294
    80.6200       276
    80.6400       292
    80.6600       286
    80.6800       246
    80.7000       290
    80.7200       258
    80.7400       274
    80.7600       252
    80.7800       264
    80.8000       296
    80.8200       256
    80.8400       274
    80.8600       240
    80.8800       242
    80.9000       232
    80.9200       250
    80.9400       236
    80.9600       236
    80.9800       246
    81.0000       248
    81.0200       244
    81.0400       240
    81.0600       212
    81.0800       234
    81.1000       224
    81.1200       228
    81.1400       216
    81.1600       258
    81.1800       264
    81.2000       230
    81.2200       270
    81.2400       272
    81.2600       262
    81.2800       246
    81.3000       244
    81.3200       270
    81.3400       254
    81.3600       264
    81.3800       282
    81.4000       242
    81.4200       276
    81.4400       254
    81.4600       274
    81.4800       264
    81.5000       230
    81.5200       258
    81.5400       284
    81.5600       274
    81.5800       260
    81.6000       318
    81.6200       294
    81.6400       272
    81.6600       260
    81.6800       278
    81.7000       274
    81.7200       258
    81.7400       288
    81.7600       274
    81.7800       302
    81.8000       286
    81.8200       278
    81.8400       294
    81.8600       296
    81.8800       330
    81.9000       310
    81.9200       288
    81.9400       306
    81.9600       306
    81.9800       328
    82.0000       308
    82.0200       292
    82.0400       306
    82.0600       316
    82.0800       322
    82.1000       328
    82.1200       308
    82.1400       356
    82.1600       360
    82.1800       346
    82.2000       324
    82.2200       340
    82.2400       350
    82.2600       326
    82.2800       362
    82.3000       372
    82.3200       362
    82.3400       350
    82.3600       344
    82.3800       402
    82.4000       378
    82.4200       350
    82.4400       386
    82.4600       364
    82.4800       392
    82.5000       346
    82.5200       416
    82.5400       392
    82.5600       446
    82.5800       410
    82.6000       398
    82.6200       428
    82.6400       472
    82.6600       420
    82.6800       468
    82.7000       480
    82.7200       538
    82.7400       524
    82.7600       566
    82.7800       552
    82.8000       584
    82.8200       560
    82.8400       630
    82.8600       576
    82.8800       576
    82.9000       630
    82.9200       638
    82.9400       610
    82.9600       602
    82.9800       622
    83.0000       574
    83.0200       630
    83.0400       556
    83.0600       592
    83.0800       578
    83.1000       594
    83.1200       568
    83.1400       556
    83.1600       590
    83.1800       514
    83.2000       478
    83.2200       490
    83.2400       516
    83.2600       520
    83.2800       428
    83.3000       490
    83.3200       494
    83.3400       458
    83.3600       440
    83.3800       426
    83.4000       432
    83.4200       444
    83.4400       386
    83.4600       384
    83.4800       374
    83.5000       382
    83.5200       390
    83.5400       346
    83.5600       330
    83.5800       322
    83.6000       314
    83.6200       344
    83.6400       322
    83.6600       324
    83.6800       328
    83.7000       302
    83.7200       294
    83.7400       312
    83.7600       326
    83.7800       266
    83.8000       310
    83.8200       290
    83.8400       306
    83.8600       278
    83.8800       300
    83.9000       306
    83.9200       312
    83.9400       310
    83.9600       308
    83.9800       316
    84.0000       348
    84.0200       330
    84.0400       312
    84.0600       298
    84.0800       350
    84.1000       332
    84.1200       294
    84.1400       336
    84.1600       344
    84.1800       308
    84.2000       332
    84.2200       332
    84.2400       332
    84.2600       346
    84.2800       358
    84.3000       338
    84.3200       346
    84.3400       332
    84.3600       312
    84.3800       306
    84.4000       312
    84.4200       300
    84.4400       324
    84.4600       328
    84.4800       304
    84.5000       314
    84.5200       314
    84.5400       276
    84.5600       318
    84.5800       288
    84.6000       310
    84.6200       318
    84.6400       302
    84.6600       310
    84.6800       292
    84.7000       244
    84.7200       280
    84.7400       312
    84.7600       312
    84.7800       288
    84.8000       294
    84.8200       296
    84.8400       318
    84.8600       278
    84.8800       290
    84.9000       284
    84.9200       280
    84.9400       290
    84.9600       276
    84.9800       266
    85.0000       234
    85.0200       282
    85.0400       282
    85.0600       254
    85.0800       242
    85.1000       262
    85.1200       240
    85.1400       280
    85.1600       254
    85.1800       250
    85.2000       258
    85.2200       232
    85.2400       248
    85.2600       264
    85.2800       284
    85.3000       236
    85.3200       240
    85.3400       270
    85.3600       256
    85.3800       268
    85.4000       244
    85.4200       298
    85.4400       242
    85.4600       254
    85.4800       302
    85.5000       282
    85.5200       318
    85.5400       300
    85.5600       282
    85.5800       322
    85.6000       266
    85.6200       288
    85.6400       272
    85.6600       288
    85.6800       292
    85.7000       276
    85.7200       274
    85.7400       288
    85.7600       278
    85.7800       248
    85.8000       266
    85.8200       294
    85.8400       260
    85.8600       280
    85.8800       264
    85.9000       272
    85.9200       266
    85.9400       262
    85.9600       298
    85.9800       270
    86.0000       276
    86.0200       234
    86.0400       252
    86.0600       244
    86.0800       262
    86.1000       244
    86.1200       248
    86.1400       244
    86.1600       246
    86.1800       228
    86.2000       254
    86.2200       260
    86.2400       246
    86.2600       230
    86.2800       226
    86.3000       230
    86.3200       232
    86.3400       238
    86.3600       220
    86.3800       222
    86.4000       222
    86.4200       218
    86.4400       180
    86.4600       252
    86.4800       230
    86.5000       248
    86.5200       228
    86.5400       238
    86.5600       226
    86.5800       248
    86.6000       246
    86.6200       252
    86.6400       250
    86.6600       254
    86.6800       292
    86.7000       284
    86.7200       272
    86.7400       254
    86.7600       294
    86.7800       306
    86.8000       302
    86.8200       318
    86.8400       350
    86.8600       342
    86.8800       388
    86.9000       382
    86.9200       346
    86.9400       388
    86.9600       350
    86.9800       356
    87.0000       358
    87.0200       376
    87.0400       346
    87.0600       342
    87.0800       352
    87.1000       356
    87.1200       326
    87.1400       328
    87.1600       356
    87.1800       330
    87.2000       328
    87.2200       348
    87.2400       318
    87.2600       336
    87.2800       318
    87.3000       340
    87.3200       308
    87.3400       270
    87.3600       280
    87.3800       310
    87.4000       276
    87.4200       270
    87.4400       306
    87.4600       290
    87.4800       310
    87.5000       304
    87.5200       288
    87.5400       290
    87.5600       292
    87.5800       320
    87.6000       308
    87.6200       330
    87.6400       348
    87.6600       346
    87.6800       352
    87.7000       370
    87.7200       368
    87.7400       370
    87.7600       368
    87.7800       354
    87.8000       392
    87.8200       386
    87.8400       394
    87.8600       386
    87.8800       400
    87.9000       402
    87.9200       420
    87.9400       374
    87.9600       420
    87.9800       412
    88.0000       408
    88.0200       404
    88.0400       412
    88.0600       382
    88.0800       424
    88.1000       444
    88.1200       432
    88.1400       450
    88.1600       398
    88.1800       412
    88.2000       404
    88.2200       422
    88.2400       424
    88.2600       416
    88.2800       414
    88.3000       390
    88.3200       420
    88.3400       384
    88.3600       396
    88.3800       372
    88.4000       384
    88.4200       402
    88.4400       388
    88.4600       390
    88.4800       412
    88.5000       414
    88.5200       396
    88.5400       380
    88.5600       366
    88.5800       404
    88.6000       376
    88.6200       412
    88.6400       370
    88.6600       366
    88.6800       356
    88.7000       404
    88.7200       360
    88.7400       340
    88.7600       340
    88.7800       336
    88.8000       336
    88.8200       324
    88.8400       312
    88.8600       312
    88.8800       296
    88.9000       310
    88.9200       288
    88.9400       326
    88.9600       312
    88.9800       318
    89.0000       266
    89.0200       294
    89.0400       250
    89.0600       248
    89.0800       278
    89.1000       236
    89.1200       248
    89.1400       258
    89.1600       236
    89.1800       254
    89.2000       256
    89.2200       238
    89.2400       230
    89.2600       240
    89.2800       232
    89.3000       250
    89.3200       238
    89.3400       236
    89.3600       256
    89.3800       244
    89.4000       246
    89.4200       250
    89.4400       266
    89.4600       260
    89.4800       246
    89.5000       232
    89.5200       262
    89.5400       238
    89.5600       270
    89.5800       244
    89.6000       268
    89.6200       304
    89.6400       250
    89.6600       266
    89.6800       280
    89.7000       250
    89.7200       266
    89.7400       286
    89.7600       280
    89.7800       282
    89.8000       274
    89.8200       252
    89.8400       300
    89.8600       268
    89.8800       274
    89.9000       286
    89.9200       288
    89.9400       278
    89.9600       260
    89.9800       284
    90.0000       274
