    10.0000       338
    10.0200       374
    10.0400       386
    10.0600       358
    10.0800       328
    10.1000       362
    10.1200       340
    10.1400       356
    10.1600       390
    10.1800       324
    10.2000       346
    10.2200       348
    10.2400       344
    10.2600       350
    10.2800       358
    10.3000       338
    10.3200       348
    10.3400       336
    10.3600       342
    10.3800       360
    10.4000       368
    10.4200       334
    10.4400       294
    10.4600       340
    10.4800       372
    10.5000       330
    10.5200       354
    10.5400       344
    10.5600       358
    10.5800       350
    10.6000       350
    10.6200       298
    10.6400       338
    10.6600       356
    10.6800       306
    10.7000       270
    10.7200       350
    10.7400       388
    10.7600       328
    10.7800       338
    10.8000       344
    10.8200       324
    10.8400       368
    10.8600       312
    10.8800       308
    10.9000       318
    10.9200       350
    10.9400       304
    10.9600       342
    10.9800       350
    11.0000       356
    11.0200       322
    11.0400       330
    11.0600       348
    11.0800       322
    11.1000       330
    11.1200       320
    11.1400       324
    11.1600       330
    11.1800       350
    11.2000       348
    11.2200       340
    11.2400       362
    11.2600       320
    11.2800       312
    11.3000       316
    11.3200       324
    11.3400       322
    11.3600       316
    11.3800       328
    11.4000       332
    11.4200       338
    11.4400       318
    11.4600       292
    11.4800       330
    11.5000       348
    11.5200       324
    11.5400       310
    11.5600       326
    11.5800       350
    11.6000       364
    11.6200       360
    11.6400       318
    11.6600       336
    11.6800       326
    11.7000       360
    11.7200       308
    11.7400       368
    11.7600       358
    11.7800       336
    11.8000       360
    11.8200       348
    11.8400       380
    11.8600       384
    11.8800       386
    11.9000       414
    11.9200       412
    11.9400       414
    11.9600       436
    11.9800       458
    12.0000       460
    12.0200       474
    12.0400       562
    12.0600       566
    12.0800       632
    12.1000       638
    12.1200       668
    12.1400       688
    12.1600       754
    12.1800       762
    12.2000       810
    12.2200       834
    12.2400       732
    12.2600       702
    12.2800       626
    12.3000       528
    12.3200       450
    12.3400       430
    12.3600       352
    12.3800       362
    12.4000       330
    12.4200       302
    12.4400       336
    12.4600       298
    12.4800       310
    12.5000       294
    12.5200       306
    12.5400       322
    12.5600       302
    12.5800       316
    12.6000       310
    12.6200       316
    12.6400       272
    12.6600       292
    12.6800       286
    12.7000       298
    12.7200       276
    12.7400       256
    12.7600       282
    12.7800       278
    12.8000       256
    12.8200       270
    12.8400       288
    12.8600       306
    12.8800       268
    12.9000       302
    12.9200       272
    12.9400       276
    12.9600       288
    12.9800       296
    13.0000       268
    13.0200       258
    13.0400       242
    13.0600       260
    13.0800       292
    13.1000       260
    13.1200       258
    13.1400       260
    13.1600       300
    13.1800       272
    13.2000       260
    13.2200       264
    13.2400       302
    13.2600       292
    13.2800       264
    13.3000       290
    13.3200       274
    13.3400       286
    13.3600       250
    13.3800       264
    13.4000       274
    13.4200       260
    13.4400       276
    13.4600       258
    13.4800       288
    13.5000       264
    13.5200       262
    13.5400       258
    13.5600       284
    13.5800       224
    13.6000       282
    13.6200       270
    13.6400       270
    13.6600       280
    13.6800       282
    13.7000       266
    13.7200       264
    13.7400       272
    13.7600       232
    13.7800       270
    13.8000       230
    13.8200       242
    13.8400       234
    13.8600       264
    13.8800       274
    13.9000       276
    13.9200       252
    13.9400       280
    13.9600       282
    13.9800       266
    14.0000       266
    14.0200       260
    14.0400       254
    14.0600       264
    14.0800       260
    14.1000       274
    14.1200       236
    14.1400       258
    14.1600       242
    14.1800       268
    14.2000       280
    14.2200       294
    14.2400       270
    14.2600       266
    14.2800       264
    14.3000       280
    14.3200       254
    14.3400       238
    14.3600       258
    14.3800       282
    14.4000       280
    14.4200       254
    14.4400       240
    14.4600       264
    14.4800       262
    14.5000       268
    14.5200       284
    14.5400       266
    14.5600       282
    14.5800       286
    14.6000       274
    14.6200       306
    14.6400       298
    14.6600       290
    14.6800       282
    14.7000       336
    14.7200       318
    14.7400       332
    14.7600       340
    14.7800       324
    14.8000       364
    14.8200       378
    14.8400       388
    14.8600       398
    14.8800       462
    14.9000       496
    14.9200       502
    14.9400       528
    14.9600       558
    14.9800       592
    15.0000       670
    15.0200       742
    15.0400       796
    15.0600       830
    15.0800       862
    15.1000       932
    15.1200      1020
    15.1400      1016
    15.1600      1134
    15.1800      1162
    15.2000      1112
    15.2200      1248
    15.2400      1124
    15.2600       956
    15.2800       786
    15.3000       622
    15.3200       466
    15.3400       438
    15.3600       400
    15.3800       442
    15.4000       328
    15.4200       306
    15.4400       292
    15.4600       300
    15.4800       284
    15.5000       288
    15.5200       264
    15.5400       260
    15.5600       264
    15.5800       264
    15.6000       278
    15.6200       244
    15.6400       264
    15.6600       242
    15.6800       268
    15.7000       236
    15.7200       240
    15.7400       244
    15.7600       246
    15.7800       266
    15.8000       234
    15.8200       258
    15.8400       242
    15.8600       272
    15.8800       224
    15.9000       226
    15.9200       238
    15.9400       254
    15.9600       256
    15.9800       250
    16.0000       244
    16.0200       270
    16.0400       242
    16.0600       240
    16.0800       250
    16.1000       268
    16.1200       272
    16.1400       256
    16.1600       248
    16.1800       270
    16.2000       264
    16.2200       272
    16.2400       280
    16.2600       276
    16.2800       302
    16.3000       250
    16.3200       264
    16.3400       276
    16.3600       288
    16.3800       282
    16.4000       276
    16.4200       294
    16.4400       276
    16.4600       252
    16.4800       260
    16.5000       272
    16.5200       258
    16.5400       256
    16.5600       262
    16.5800       274
    16.6000       280
    16.6200       254
    16.6400       300
    16.6600       306
    16.6800       350
    16.7000       368
    16.7200       370
    16.7400       380
    16.7600       436
    16.7800       430
    16.8000       498
    16.8200       514
    16.8400       552
    16.8600       596
    16.8800       620
    16.9000       820
    16.9200       876
    16.9400       972
    16.9600      1080
    16.9800      1276
    17.0000      1404
    17.0200      1570
    17.0400      1706
    17.0600      1758
    17.0800      1772
    17.1000      1624
    17.1200      1446
    17.1400      1306
    17.1600      1132
    17.1800      1112
    17.2000      1078
    17.2200       984
    17.2400      1054
    17.2600       976
    17.2800       934
    17.3000       860
    17.3200       786
    17.3400       768
    17.3600       674
    17.3800       626
    17.4000       606
    17.4200       600
    17.4400       558
    17.4600       516
    17.4800       502
    17.5000       480
    17.5200       484
    17.5400       472
    17.5600       446
    17.5800       436
    17.6000       432
    17.6200       470
    17.6400       406
    17.6600       470
    17.6800       490
    17.7000       546
    17.7200       560
    17.7400       532
    17.7600       626
    17.7800       586
    17.8000       634
    17.8200       642
    17.8400       602
    17.8600       586
    17.8800       558
    17.9000       488
    17.9200       436
    17.9400       392
    17.9600       314
    17.9800       302
    18.0000       286
    18.0200       238
    18.0400       244
    18.0600       214
    18.0800       254
    18.1000       252
    18.1200       248
    18.1400       250
    18.1600       250
    18.1800       246
    18.2000       200
    18.2200       212
    18.2400       242
    18.2600       210
    18.2800       216
    18.3000       244
    18.3200       200
    18.3400       228
    18.3600       198
    18.3800       216
    18.4000       208
    18.4200       218
    18.4400       210
    18.4600       218
    18.4800       220
    18.5000       218
    18.5200       228
    18.5400       222
    18.5600       200
    18.5800       220
    18.6000       220
    18.6200       206
    18.6400       190
    18.6600       220
    18.6800       236
    18.7000       230
    18.7200       218
    18.7400       246
    18.7600       194
    18.7800       220
    18.8000       226
    18.8200       232
    18.8400       244
    18.8600       230
    18.8800       236
    18.9000       244
    18.9200       214
    18.9400       250
    18.9600       218
    18.9800       236
    19.0000       256
    19.0200       256
    19.0400       284
    19.0600       276
    19.0800       270
    19.1000       290
    19.1200       308
    19.1400       342
    19.1600       394
    19.1800       372
    19.2000       370
    19.2200       432
    19.2400       474
    19.2600       482
    19.2800       588
    19.3000       618
    19.3200       682
    19.3400       712
    19.3600       870
    19.3800      1050
    19.4000      1172
    19.4200      1318
    19.4400      1640
    19.4600      1858
    19.4800      2036
    19.5000      2432
    19.5200      2662
    19.5400      2750
    19.5600      2714
    19.5800      2520
    19.6000      2154
    19.6200      1716
    19.6400      1440
    19.6600      1142
    19.6800       872
    19.7000       816
    19.7200       770
    19.7400       800
    19.7600       760
    19.7800       758
    19.8000       898
    19.8200       984
    19.8400      1030
    19.8600      1174
    19.8800      1354
    19.9000      1494
    19.9200      1694
    19.9400      1882
    19.9600      2104
    19.9800      2214
    20.0000      2056
    20.0200      1998
    20.0400      1854
    20.0600      1470
    20.0800      1178
    20.1000       940
    20.1200       764
    20.1400       614
    20.1600       502
    20.1800       456
    20.2000       404
    20.2200       358
    20.2400       322
    20.2600       320
    20.2800       306
    20.3000       344
    20.3200       280
    20.3400       312
    20.3600       286
    20.3800       248
    20.4000       286
    20.4200       276
    20.4400       258
    20.4600       228
    20.4800       232
    20.5000       226
    20.5200       266
    20.5400       246
    20.5600       248
    20.5800       252
    20.6000       248
    20.6200       270
    20.6400       274
    20.6600       264
    20.6800       276
    20.7000       242
    20.7200       292
    20.7400       266
    20.7600       308
    20.7800       282
    20.8000       318
    20.8200       332
    20.8400       374
    20.8600       380
    20.8800       478
    20.9000       480
    20.9200       502
    20.9400       606
    20.9600       624
    20.9800       716
    21.0000       814
    21.0200       946
    21.0400      1080
    21.0600      1220
    21.0800      1420
    21.1000      1590
    21.1200      1814
    21.1400      2066
    21.1600      2270
    21.1800      2472
    21.2000      2656
    21.2200      2632
    21.2400      2572
    21.2600      2498
    21.2800      2202
    21.3000      1868
    21.3200      1644
    21.3400      1298
    21.3600      1112
    21.3800       920
    21.4000       778
    21.4200       612
    21.4400       526
    21.4600       470
    21.4800       386
    21.5000       402
    21.5200       356
    21.5400       354
    21.5600       298
    21.5800       292
    21.6000       300
    21.6200       266
    21.6400       256
    21.6600       220
    21.6800       270
    21.7000       228
    21.7200       240
    21.7400       218
    21.7600       258
    21.7800       216
    21.8000       220
    21.8200       240
    21.8400       220
    21.8600       214
    21.8800       212
    21.9000       210
    21.9200       218
    21.9400       236
    21.9600       196
    21.9800       196
    22.0000       232
    22.0200       208
    22.0400       188
    22.0600       216
    22.0800       212
    22.1000       228
    22.1200       238
    22.1400       214
    22.1600       206
    22.1800       206
    22.2000       242
    22.2200       210
    22.2400       234
    22.2600       228
    22.2800       238
    22.3000       252
    22.3200       248
    22.3400       252
    22.3600       276
    22.3800       298
    22.4000       280
    22.4200       294
    22.4400       334
    22.4600       350
    22.4800       336
    22.5000       414
    22.5200       420
    22.5400       480
    22.5600       542
    22.5800       554
    22.6000       626
    22.6200       760
    22.6400       850
    22.6600       976
    22.6800      1116
    22.7000      1264
    22.7200      1608
    22.7400      1820
    22.7600      2276
    22.7800      2630
    22.8000      3050
    22.8200      3520
    22.8400      3744
    22.8600      3876
    22.8800      3978
    22.9000      3508
    22.9200      3146
    22.9400      2570
    22.9600      2068
    22.9800      1594
    23.0000      1200
    23.0200       932
    23.0400       774
    23.0600       688
    23.0800       618
    23.1000       550
    23.1200       564
    23.1400       468
    23.1600       462
    23.1800       432
    23.2000       420
    23.2200       352
    23.2400       378
    23.2600       330
    23.2800       348
    23.3000       322
    23.3200       296
    23.3400       264
    23.3600       316
    23.3800       266
    23.4000       268
    23.4200       246
    23.4400       246
    23.4600       220
    23.4800       252
    23.5000       248
    23.5200       240
    23.5400       240
    23.5600       230
    23.5800       244
    23.6000       248
    23.6200       220
    23.6400       242
    23.6600       236
    23.6800       240
    23.7000       262
    23.7200       262
    23.7400       262
    23.7600       282
    23.7800       246
    23.8000       260
    23.8200       266
    23.8400       262
    23.8600       296
    23.8800       260
    23.9000       278
    23.9200       274
    23.9400       268
    23.9600       278
    23.9800       250
    24.0000       264
    24.0200       276
    24.0400       300
    24.0600       298
    24.0800       286
    24.1000       292
    24.1200       288
    24.1400       288
    24.1600       348
    24.1800       336
    24.2000       332
    24.2200       350
    24.2400       384
    24.2600       440
    24.2800       460
    24.3000       508
    24.3200       508
    24.3400       598
    24.3600       708
    24.3800       818
    24.4000       862
    24.4200       940
    24.4400      1104
    24.4600      1224
    24.4800      1326
    24.5000      1466
    24.5200      1556
    24.5400      1574
    24.5600      1652
    24.5800      1560
    24.6000      1510
    24.6200      1402
    24.6400      1338
    24.6600      1142
    24.6800       994
    24.7000       980
    24.7200       842
    24.7400       784
    24.7600       762
    24.7800       720
    24.8000       696
    24.8200       660
    24.8400       622
    24.8600       570
    24.8800       514
    24.9000       516
    24.9200       478
    24.9400       480
    24.9600       500
    24.9800       504
    25.0000       522
    25.0200       542
    25.0400       546
    25.0600       520
    25.0800       516
    25.1000       564
    25.1200       572
    25.1400       580
    25.1600       590
    25.1800       610
    25.2000       642
    25.2200       708
    25.2400       760
    25.2600       816
    25.2800       888
    25.3000       920
    25.3200      1000
    25.3400       960
    25.3600       928
    25.3800       902
    25.4000       832
    25.4200       760
    25.4400       730
    25.4600       716
    25.4800       726
    25.5000       768
    25.5200       844
    25.5400       866
    25.5600       950
    25.5800      1006
    25.6000      1034
    25.6200       990
    25.6400       922
    25.6600       806
    25.6800       768
    25.7000       634
    25.7200       540
    25.7400       482
    25.7600       442
    25.7800       344
    25.8000       346
    25.8200       368
    25.8400       324
    25.8600       322
    25.8800       302
    25.9000       320
    25.9200       318
    25.9400       324
    25.9600       308
    25.9800       290
    26.0000       304
    26.0200       268
    26.0400       318
    26.0600       272
    26.0800       326
    26.1000       270
    26.1200       258
    26.1400       268
    26.1600       258
    26.1800       278
    26.2000       286
    26.2200       298
    26.2400       308
    26.2600       298
    26.2800       330
    26.3000       320
    26.3200       324
    26.3400       312
    26.3600       356
    26.3800       346
    26.4000       324
    26.4200       334
    26.4400       334
    26.4600       346
    26.4800       312
    26.5000       312
    26.5200       350
    26.5400       346
    26.5600       338
    26.5800       336
    26.6000       328
    26.6200       358
    26.6400       308
    26.6600       324
    26.6800       324
    26.7000       312
    26.7200       352
    26.7400       300
    26.7600       340
    26.7800       310
    26.8000       294
    26.8200       326
    26.8400       274
    26.8600       254
    26.8800       272
    26.9000       258
    26.9200       256
    26.9400       292
    26.9600       278
    26.9800       276
    27.0000       294
    27.0200       292
    27.0400       284
    27.0600       318
    27.0800       272
    27.1000       308
    27.1200       346
    27.1400       374
    27.1600       392
    27.1800       422
    27.2000       438
    27.2200       468
    27.2400       498
    27.2600       586
    27.2800       684
    27.3000       678
    27.3200       770
    27.3400       906
    27.3600      1008
    27.3800      1062
    27.4000      1270
    27.4200      1382
    27.4400      1412
    27.4600      1552
    27.4800      1548
    27.5000      1528
    27.5200      1576
    27.5400      1472
    27.5600      1416
    27.5800      1268
    27.6000      1216
    27.6200      1058
    27.6400       932
    27.6600       892
    27.6800       798
    27.7000       706
    27.7200       624
    27.7400       534
    27.7600       522
    27.7800       424
    27.8000       424
    27.8200       346
    27.8400       352
    27.8600       352
    27.8800       326
    27.9000       348
    27.9200       308
    27.9400       314
    27.9600       332
    27.9800       268
    28.0000       290
    28.0200       270
    28.0400       272
    28.0600       244
    28.0800       238
    28.1000       250
    28.1200       260
    28.1400       262
    28.1600       264
    28.1800       244
    28.2000       250
    28.2200       274
    28.2400       218
    28.2600       248
    28.2800       262
    28.3000       276
    28.3200       276
    28.3400       280
    28.3600       266
    28.3800       296
    28.4000       262
    28.4200       250
    28.4400       252
    28.4600       242
    28.4800       238
    28.5000       268
    28.5200       286
    28.5400       260
    28.5600       264
    28.5800       264
    28.6000       272
    28.6200       308
    28.6400       324
    28.6600       330
    28.6800       368
    28.7000       378
    28.7200       376
    28.7400       376
    28.7600       384
    28.7800       352
    28.8000       324
    28.8200       320
    28.8400       332
    28.8600       298
    28.8800       324
    28.9000       290
    28.9200       302
    28.9400       296
    28.9600       274
    28.9800       282
    29.0000       272
    29.0200       238
    29.0400       270
    29.0600       296
    29.0800       228
    29.1000       282
    29.1200       280
    29.1400       278
    29.1600       306
    29.1800       294
    29.2000       318
    29.2200       326
    29.2400       324
    29.2600       340
    29.2800       346
    29.3000       348
    29.3200       356
    29.3400       384
    29.3600       422
    29.3800       426
    29.4000       474
    29.4200       510
    29.4400       472
    29.4600       570
    29.4800       528
    29.5000       584
    29.5200       676
    29.5400       714
    29.5600       750
    29.5800       800
    29.6000       806
    29.6200       886
    29.6400       950
    29.6600      1002
    29.6800      1008
    29.7000       984
    29.7200       904
    29.7400       884
    29.7600       826
    29.7800       778
    29.8000       698
    29.8200       666
    29.8400       612
    29.8600       580
    29.8800       590
    29.9000       638
    29.9200       692
    29.9400       654
    29.9600       816
    29.9800       850
    30.0000      1008
    30.0200      1084
    30.0400      1290
    30.0600      1418
    30.0800      1646
    30.1000      1914
    30.1200      2146
    30.1400      2312
    30.1600      2498
    30.1800      2698
    30.2000      2764
    30.2200      2736
    30.2400      2814
    30.2600      2658
    30.2800      2554
    30.3000      2374
    30.3200      2214
    30.3400      2196
    30.3600      2028
    30.3800      2064
    30.4000      1872
    30.4200      1866
    30.4400      1920
    30.4600      1946
    30.4800      2034
    30.5000      2278
    30.5200      2346
    30.5400      2582
    30.5600      2912
    30.5800      3228
    30.6000      3478
    30.6200      4086
    30.6400      4454
    30.6600      4792
    30.6800      5148
    30.7000      5114
    30.7200      4978
    30.7400      4586
    30.7600      4076
    30.7800      3514
    30.8000      3064
    30.8200      2532
    30.8400      2110
    30.8600      1706
    30.8800      1370
    30.9000      1162
    30.9200      1056
    30.9400       998
    30.9600       942
    30.9800       896
    31.0000       846
    31.0200       846
    31.0400       820
    31.0600       736
    31.0800       678
    31.1000       636
    31.1200       624
    31.1400       526
    31.1600       492
    31.1800       458
    31.2000       422
    31.2200       402
    31.2400       362
    31.2600       324
    31.2800       338
    31.3000       360
    31.3200       304
    31.3400       292
    31.3600       330
    31.3800       292
    31.4000       328
    31.4200       336
    31.4400       322
    31.4600       314
    31.4800       296
    31.5000       276
    31.5200       306
    31.5400       314
    31.5600       300
    31.5800       352
    31.6000       340
    31.6200       332
    31.6400       376
    31.6600       380
    31.6800       430
    31.7000       372
    31.7200       438
    31.7400       492
    31.7600       544
    31.7800       580
    31.8000       698
    31.8200       732
    31.8400       866
    31.8600       900
    31.8800      1070
    31.9000      1330
    31.9200      1506
    31.9400      1772
    31.9600      1900
    31.9800      2050
    32.0000      2078
    32.0200      1962
    32.0400      1898
    32.0600      1746
    32.0800      1542
    32.1000      1360
    32.1200      1236
    32.1400      1112
    32.1600      1050
    32.1800       950
    32.2000       976
    32.2200       928
    32.2400      1022
    32.2600      1070
    32.2800      1148
    32.3000      1372
    32.3200      1448
    32.3400      1706
    32.3600      1906
    32.3800      2200
    32.4000      2722
    32.4200      3206
    32.4400      3782
    32.4600      4412
    32.4800      5336
    32.5000      5948
    32.5200      6548
    32.5400      6950
    32.5600      7178
    32.5800      7044
    32.6000      6540
    32.6200      6034
    32.6400      5584
    32.6600      4630
    32.6800      4186
    32.7000      3350
    32.7200      2810
    32.7400      2328
    32.7600      1926
    32.7800      1666
    32.8000      1466
    32.8200      1402
    32.8400      1144
    32.8600      1040
    32.8800      1040
    32.9000       982
    32.9200      1022
    32.9400       962
    32.9600      1024
    32.9800       978
    33.0000      1160
    33.0200      1186
    33.0400      1274
    33.0600      1308
    33.0800      1462
    33.1000      1458
    33.1200      1374
    33.1400      1390
    33.1600      1200
    33.1800      1030
    33.2000       928
    33.2200       882
    33.2400       692
    33.2600       582
    33.2800       546
    33.3000       418
    33.3200       424
    33.3400       374
    33.3600       346
    33.3800       318
    33.4000       322
    33.4200       294
    33.4400       294
    33.4600       280
    33.4800       314
    33.5000       248
    33.5200       234
    33.5400       256
    33.5600       246
    33.5800       270
    33.6000       230
    33.6200       236
    33.6400       240
    33.6600       272
    33.6800       258
    33.7000       202
    33.7200       216
    33.7400       258
    33.7600       240
    33.7800       240
    33.8000       220
    33.8200       206
    33.8400       208
    33.8600       246
    33.8800       238
    33.9000       242
    33.9200       238
    33.9400       214
    33.9600       234
    33.9800       204
    34.0000       240
    34.0200       228
    34.0400       242
    34.0600       296
    34.0800       246
    34.1000       256
    34.1200       232
    34.1400       240
    34.1600       260
    34.1800       258
    34.2000       244
    34.2200       274
    34.2400       230
    34.2600       254
    34.2800       280
    34.3000       266
    34.3200       298
    34.3400       292
    34.3600       340
    34.3800       368
    34.4000       340
    34.4200       424
    34.4400       452
    34.4600       464
    34.4800       498
    34.5000       550
    34.5200       514
    34.5400       514
    34.5600       482
    34.5800       460
    34.6000       446
    34.6200       450
    34.6400       352
    34.6600       390
    34.6800       340
    34.7000       320
    34.7200       312
    34.7400       330
    34.7600       296
    34.7800       324
    34.8000       340
    34.8200       326
    34.8400       322
    34.8600       310
    34.8800       324
    34.9000       300
    34.9200       274
    34.9400       274
    34.9600       276
    34.9800       286
    35.0000       282
    35.0200       262
    35.0400       288
    35.0600       264
    35.0800       272
    35.1000       264
    35.1200       286
    35.1400       252
    35.1600       246
    35.1800       228
    35.2000       260
    35.2200       238
    35.2400       274
    35.2600       234
    35.2800       254
    35.3000       236
    35.3200       238
    35.3400       260
    35.3600       258
    35.3800       266
    35.4000       262
    35.4200       252
    35.4400       236
    35.4600       248
    35.4800       242
    35.5000       244
    35.5200       258
    35.5400       250
    35.5600       258
    35.5800       226
    35.6000       258
    35.6200       250
    35.6400       262
    35.6600       248
    35.6800       290
    35.7000       284
    35.7200       294
    35.7400       306
    35.7600       306
    35.7800       290
    35.8000       310
    35.8200       310
    35.8400       338
    35.8600       372
    35.8800       384
    35.9000       442
    35.9200       388
    35.9400       400
    35.9600       484
    35.9800       496
    36.0000       574
    36.0200       644
    36.0400       706
    36.0600       758
    36.0800       770
    36.1000       838
    36.1200       836
    36.1400       940
    36.1600       914
    36.1800       946
    36.2000       824
    36.2200       736
    36.2400       686
    36.2600       572
    36.2800       530
    36.3000       496
    36.3200       482
    36.3400       418
    36.3600       410
    36.3800       388
    36.4000       368
    36.4200       394
    36.4400       368
    36.4600       384
    36.4800       356
    36.5000       402
    36.5200       384
    36.5400       376
    36.5600       396
    36.5800       406
    36.6000       392
    36.6200       452
    36.6400       452
    36.6600       530
    36.6800       542
    36.7000       672
    36.7200       752
    36.7400       810
    36.7600       910
    36.7800      1050
    36.8000      1274
    36.8200      1344
    36.8400      1576
    36.8600      1738
    36.8800      1822
    36.9000      1876
    36.9200      1842
    36.9400      1800
    36.9600      1622
    36.9800      1544
    37.0000      1412
    37.0200      1328
    37.0400      1224
    37.0600      1184
    37.0800      1068
    37.1000      1028
    37.1200       996
    37.1400       972
    37.1600       922
    37.1800      1034
    37.2000       964
    37.2200       912
    37.2400       926
    37.2600       912
    37.2800       840
    37.3000       832
    37.3200       766
    37.3400       710
    37.3600       686
    37.3800       690
    37.4000       610
    37.4200       592
    37.4400       592
    37.4600       526
    37.4800       540
    37.5000       494
    37.5200       446
    37.5400       492
    37.5600       508
    37.5800       464
    37.6000       432
    37.6200       448
    37.6400       438
    37.6600       450
    37.6800       496
    37.7000       494
    37.7200       502
    37.7400       510
    37.7600       536
    37.7800       636
    37.8000       584
    37.8200       654
    37.8400       750
    37.8600       824
    37.8800       960
    37.9000      1022
    37.9200      1222
    37.9400      1368
    37.9600      1508
    37.9800      1602
    38.0000      1786
    38.0200      1912
    38.0400      1884
    38.0600      1732
    38.0800      1756
    38.1000      1620
    38.1200      1548
    38.1400      1488
    38.1600      1382
    38.1800      1350
    38.2000      1204
    38.2200      1234
    38.2400      1232
    38.2600      1256
    38.2800      1348
    38.3000      1420
    38.3200      1630
    38.3400      1830
    38.3600      2036
    38.3800      2324
    38.4000      2684
    38.4200      3046
    38.4400      3410
    38.4600      3766
    38.4800      3970
    38.5000      4132
    38.5200      4224
    38.5400      4504
    38.5600      4496
    38.5800      4648
    38.6000      4702
    38.6200      4710
    38.6400      4846
    38.6600      4920
    38.6800      4984
    38.7000      4838
    38.7200      4656
    38.7400      4470
    38.7600      4432
    38.7800      4054
    38.8000      3628
    38.8200      3254
    38.8400      2798
    38.8600      2514
    38.8800      2214
    38.9000      1924
    38.9200      1776
    38.9400      1556
    38.9600      1390
    38.9800      1268
    39.0000      1206
    39.0200      1094
    39.0400      1128
    39.0600      1064
    39.0800      1084
    39.1000      1094
    39.1200      1114
    39.1400      1112
    39.1600      1166
    39.1800      1124
    39.2000      1188
    39.2200      1138
    39.2400      1142
    39.2600      1196
    39.2800      1214
    39.3000      1184
    39.3200      1206
    39.3400      1218
    39.3600      1186
    39.3800      1230
    39.4000      1254
    39.4200      1196
    39.4400      1222
    39.4600      1136
    39.4800      1128
    39.5000      1174
    39.5200      1190
    39.5400      1198
    39.5600      1274
    39.5800      1424
    39.6000      1546
    39.6200      1718
    39.6400      1914
    39.6600      1956
    39.6800      2092
    39.7000      2134
    39.7200      2068
    39.7400      1946
    39.7600      1836
    39.7800      1776
    39.8000      1560
    39.8200      1388
    39.8400      1186
    39.8600      1066
    39.8800       986
    39.9000       868
    39.9200       800
    39.9400       728
    39.9600       654
    39.9800       670
    40.0000       634
    40.0200       620
    40.0400       602
    40.0600       644
    40.0800       646
    40.1000       666
    40.1200       716
    40.1400       672
    40.1600       730
    40.1800       806
    40.2000       800
    40.2200       770
    40.2400       842
    40.2600       856
    40.2800       782
    40.3000       862
    40.3200       828
    40.3400       828
    40.3600       870
    40.3800       802
    40.4000       906
    40.4200       938
    40.4400       976
    40.4600      1068
    40.4800      1080
    40.5000      1344
    40.5200      1498
    40.5400      1460
    40.5600      1526
    40.5800      1510
    40.6000      1582
    40.6200      1630
    40.6400      1514
    40.6600      1476
    40.6800      1356
    40.7000      1300
    40.7200      1190
    40.7400      1082
    40.7600      1022
    40.7800       926
    40.8000       806
    40.8200       686
    40.8400       686
    40.8600       664
    40.8800       672
    40.9000       648
    40.9200       646
    40.9400       652
    40.9600       692
    40.9800       690
    41.0000       668
    41.0200       702
    41.0400       752
    41.0600       820
    41.0800       898
    41.1000       986
    41.1200      1064
    41.1400      1194
    41.1600      1278
    41.1800      1410
    41.2000      1536
    41.2200      1716
    41.2400      1844
    41.2600      1876
    41.2800      1988
    41.3000      2034
    41.3200      2072
    41.3400      2070
    41.3600      2060
    41.3800      2036
    41.4000      1982
    41.4200      1898
    41.4400      1806
    41.4600      1898
    41.4800      1820
    41.5000      1814
    41.5200      1800
    41.5400      1728
    41.5600      1622
    41.5800      1564
    41.6000      1404
    41.6200      1352
    41.6400      1256
    41.6600      1156
    41.6800      1172
    41.7000      1114
    41.7200      1132
    41.7400      1168
    41.7600      1110
    41.7800      1218
    41.8000      1294
    41.8200      1478
    41.8400      1494
    41.8600      1574
    41.8800      1584
    41.9000      1706
    41.9200      1698
    41.9400      1584
    41.9600      1548
    41.9800      1470
    42.0000      1320
    42.0200      1232
    42.0400      1110
    42.0600       990
    42.0800       870
    42.1000       756
    42.1200       676
    42.1400       674
    42.1600       580
    42.1800       546
    42.2000       484
    42.2200       446
    42.2400       488
    42.2600       414
    42.2800       394
    42.3000       388
    42.3200       360
    42.3400       384
    42.3600       414
    42.3800       368
    42.4000       414
    42.4200       370
    42.4400       354
    42.4600       348
    42.4800       376
    42.5000       350
    42.5200       342
    42.5400       346
    42.5600       356
    42.5800       322
    42.6000       340
    42.6200       332
    42.6400       338
    42.6600       352
    42.6800       370
    42.7000       386
    42.7200       394
    42.7400       336
    42.7600       380
    42.7800       406
    42.8000       378
    42.8200       372
    42.8400       370
    42.8600       412
    42.8800       426
    42.9000       440
    42.9200       486
    42.9400       526
    42.9600       522
    42.9800       604
    43.0000       620
    43.0200       744
    43.0400       806
    43.0600       890
    43.0800      1056
    43.1000      1156
    43.1200      1248
    43.1400      1398
    43.1600      1536
    43.1800      1580
    43.2000      1672
    43.2200      1708
    43.2400      1612
    43.2600      1542
    43.2800      1490
    43.3000      1340
    43.3200      1280
    43.3400      1156
    43.3600      1044
    43.3800       882
    43.4000       822
    43.4200       756
    43.4400       726
    43.4600       590
    43.4800       554
    43.5000       522
    43.5200       546
    43.5400       502
    43.5600       442
    43.5800       514
    43.6000       450
    43.6200       448
    43.6400       472
    43.6600       478
    43.6800       478
    43.7000       502
    43.7200       568
    43.7400       566
    43.7600       596
    43.7800       618
    43.8000       630
    43.8200       680
    43.8400       666
    43.8600       690
    43.8800       664
    43.9000       602
    43.9200       580
    43.9400       552
    43.9600       538
    43.9800       528
    44.0000       540
    44.0200       506
    44.0400       432
    44.0600       424
    44.0800       444
    44.1000       410
    44.1200       442
    44.1400       400
    44.1600       448
    44.1800       394
    44.2000       408
    44.2200       458
    44.2400       360
    44.2600       408
    44.2800       424
    44.3000       456
    44.3200       438
    44.3400       506
    44.3600       406
    44.3800       428
    44.4000       434
    44.4200       456
    44.4400       432
    44.4600       408
    44.4800       392
    44.5000       466
    44.5200       406
    44.5400       462
    44.5600       432
    44.5800       452
    44.6000       420
    44.6200       456
    44.6400       502
    44.6600       468
    44.6800       520
    44.7000       486
    44.7200       534
    44.7400       554
    44.7600       588
    44.7800       678
    44.8000       704
    44.8200       828
    44.8400       902
    44.8600       960
    44.8800      1090
    44.9000      1182
    44.9200      1282
    44.9400      1346
    44.9600      1550
    44.9800      1778
    45.0000      1844
    45.0200      1930
    45.0400      2106
    45.0600      2146
    45.0800      2098
    45.1000      2192
    45.1200      2284
    45.1400      2310
    45.1600      2346
    45.1800      2300
    45.2000      2396
    45.2200      2356
    45.2400      2288
    45.2600      2242
    45.2800      2144
    45.3000      2110
    45.3200      1970
    45.3400      1842
    45.3600      1752
    45.3800      1728
    45.4000      1664
    45.4200      1538
    45.4400      1488
    45.4600      1362
    45.4800      1382
    45.5000      1164
    45.5200      1194
    45.5400      1138
    45.5600      1098
    45.5800       988
    45.6000       974
    45.6200       906
    45.6400       878
    45.6600       832
    45.6800       766
    45.7000       760
    45.7200       736
    45.7400       688
    45.7600       716
    45.7800       706
    45.8000       668
    45.8200       742
    45.8400       692
    45.8600       680
    45.8800       654
    45.9000       648
    45.9200       672
    45.9400       652
    45.9600       594
    45.9800       672
    46.0000       692
    46.0200       662
    46.0400       612
    46.0600       620
    46.0800       662
    46.1000       642
    46.1200       636
    46.1400       646
    46.1600       660
    46.1800       728
    46.2000       676
    46.2200       724
    46.2400       726
    46.2600       822
    46.2800       808
    46.3000       892
    46.3200       948
    46.3400       934
    46.3600      1024
    46.3800      1162
    46.4000      1282
    46.4200      1344
    46.4400      1518
    46.4600      1666
    46.4800      1934
    46.5000      2096
    46.5200      2414
    46.5400      2796
    46.5600      3226
    46.5800      3678
    46.6000      4288
    46.6200      4860
    46.6400      5500
    46.6600      6138
    46.6800      6638
    46.7000      7142
    46.7200      6932
    46.7400      6934
    46.7600      6526
    46.7800      6270
    46.8000      5652
    46.8200      5228
    46.8400      4876
    46.8600      4238
    46.8800      3792
    46.9000      3172
    46.9200      2636
    46.9400      2336
    46.9600      1972
    46.9800      1708
    47.0000      1464
    47.0200      1312
    47.0400      1118
    47.0600      1106
    47.0800      1040
    47.1000       888
    47.1200       844
    47.1400       764
    47.1600       732
    47.1800       698
    47.2000       688
    47.2200       564
    47.2400       626
    47.2600       588
    47.2800       530
    47.3000       566
    47.3200       510
    47.3400       550
    47.3600       486
    47.3800       500
    47.4000       458
    47.4200       448
    47.4400       440
    47.4600       458
    47.4800       440
    47.5000       442
    47.5200       450
    47.5400       432
    47.5600       452
    47.5800       424
    47.6000       452
    47.6200       446
    47.6400       438
    47.6600       498
    47.6800       498
    47.7000       536
    47.7200       564
    47.7400       560
    47.7600       576
    47.7800       650
    47.8000       708
    47.8200       724
    47.8400       714
    47.8600       716
    47.8800       728
    47.9000       730
    47.9200       690
    47.9400       704
    47.9600       740
    47.9800       660
    48.0000       636
    48.0200       592
    48.0400       630
    48.0600       620
    48.0800       608
    48.1000       660
    48.1200       662
    48.1400       712
    48.1600       784
    48.1800       792
    48.2000       870
    48.2200       862
    48.2400       798
    48.2600       832
    48.2800       900
    48.3000       874
    48.3200       972
    48.3400       942
    48.3600       968
    48.3800       950
    48.4000       968
    48.4200      1012
    48.4400      1052
    48.4600      1048
    48.4800      1138
    48.5000      1170
    48.5200      1246
    48.5400      1254
    48.5600      1338
    48.5800      1372
    48.6000      1300
    48.6200      1352
    48.6400      1340
    48.6600      1340
    48.6800      1300
    48.7000      1206
    48.7200      1250
    48.7400      1212
    48.7600      1134
    48.7800      1058
    48.8000      1042
    48.8200       974
    48.8400       936
    48.8600       868
    48.8800       828
    48.9000       744
    48.9200       768
    48.9400       644
    48.9600       650
    48.9800       662
    49.0000       568
    49.0200       556
    49.0400       556
    49.0600       460
    49.0800       474
    49.1000       472
    49.1200       444
    49.1400       388
    49.1600       406
    49.1800       386
    49.2000       396
    49.2200       400
    49.2400       386
    49.2600       334
    49.2800       350
    49.3000       390
    49.3200       312
    49.3400       340
    49.3600       320
    49.3800       320
    49.4000       290
    49.4200       322
    49.4400       312
    49.4600       312
    49.4800       296
    49.5000       318
    49.5200       308
    49.5400       302
    49.5600       326
    49.5800       348
    49.6000       364
    49.6200       336
    49.6400       354
    49.6600       376
    49.6800       356
    49.7000       362
    49.7200       364
    49.7400       342
    49.7600       378
    49.7800       376
    49.8000       350
    49.8200       392
    49.8400       384
    49.8600       394
    49.8800       398
    49.9000       414
    49.9200       478
    49.9400       478
    49.9600       582
    49.9800       534
    50.0000       596
    50.0200       576
    50.0400       702
    50.0600       672
    50.0800       704
    50.1000       792
    50.1200       852
    50.1400       922
    50.1600      1032
    50.1800      1062
    50.2000      1130
    50.2200      1194
    50.2400      1264
    50.2600      1438
    50.2800      1448
    50.3000      1464
    50.3200      1534
    50.3400      1536
    50.3600      1518
    50.3800      1640
    50.4000      1668
    50.4200      1596
    50.4400      1490
    50.4600      1518
    50.4800      1530
    50.5000      1416
    50.5200      1380
    50.5400      1318
    50.5600      1338
    50.5800      1224
    50.6000      1244
    50.6200      1250
    50.6400      1214
    50.6600      1274
    50.6800      1250
    50.7000      1358
    50.7200      1400
    50.7400      1422
    50.7600      1572
    50.7800      1610
    50.8000      1748
    50.8200      1790
    50.8400      1766
    50.8600      1860
    50.8800      1742
    50.9000      1816
    50.9200      1680
    50.9400      1618
    50.9600      1556
    50.9800      1482
    51.0000      1318
    51.0200      1282
    51.0400      1136
    51.0600      1136
    51.0800      1036
    51.1000       932
    51.1200       938
    51.1400       850
    51.1600       834
    51.1800       768
    51.2000       836
    51.2200       856
    51.2400       774
    51.2600       772
    51.2800       820
    51.3000       844
    51.3200       854
    51.3400       868
    51.3600       902
    51.3800       938
    51.4000       886
    51.4200       938
    51.4400       898
    51.4600       904
    51.4800       900
    51.5000       876
    51.5200       874
    51.5400       864
    51.5600       852
    51.5800       874
    51.6000       884
    51.6200       846
    51.6400       832
    51.6600       850
    51.6800       850
    51.7000       910
    51.7200       938
    51.7400       990
    51.7600      1068
    51.7800      1160
    51.8000      1242
    51.8200      1262
    51.8400      1286
    51.8600      1422
    51.8800      1460
    51.9000      1416
    51.9200      1542
    51.9400      1590
    51.9600      1750
    51.9800      1744
    52.0000      1710
    52.0200      1734
    52.0400      1670
    52.0600      1648
    52.0800      1472
    52.1000      1454
    52.1200      1338
    52.1400      1314
    52.1600      1190
    52.1800      1142
    52.2000      1050
    52.2200       986
    52.2400       902
    52.2600       816
    52.2800       758
    52.3000       778
    52.3200       688
    52.3400       692
    52.3600       718
    52.3800       736
    52.4000       762
    52.4200       740
    52.4400       840
    52.4600       876
    52.4800       954
    52.5000       966
    52.5200      1126
    52.5400      1226
    52.5600      1200
    52.5800      1282
    52.6000      1274
    52.6200      1384
    52.6400      1190
    52.6600      1246
    52.6800      1278
    52.7000      1272
    52.7200      1266
    52.7400      1168
    52.7600      1158
    52.7800      1086
    52.8000      1062
    52.8200       988
    52.8400       944
    52.8600       868
    52.8800       844
    52.9000       802
    52.9200       770
    52.9400       754
    52.9600       718
    52.9800       728
    53.0000       710
    53.0200       730
    53.0400       700
    53.0600       722
    53.0800       786
    53.1000       844
    53.1200       950
    53.1400      1014
    53.1600      1104
    53.1800      1210
    53.2000      1302
    53.2200      1410
    53.2400      1446
    53.2600      1472
    53.2800      1498
    53.3000      1504
    53.3200      1484
    53.3400      1394
    53.3600      1308
    53.3800      1282
    53.4000      1200
    53.4200      1148
    53.4400      1004
    53.4600       912
    53.4800       916
    53.5000       868
    53.5200       788
    53.5400       754
    53.5600       666
    53.5800       634
    53.6000       678
    53.6200       622
    53.6400       618
    53.6600       582
    53.6800       590
    53.7000       562
    53.7200       516
    53.7400       562
    53.7600       554
    53.7800       554
    53.8000       532
    53.8200       508
    53.8400       494
    53.8600       478
    53.8800       474
    53.9000       472
    53.9200       482
    53.9400       482
    53.9600       516
    53.9800       466
    54.0000       442
    54.0200       448
    54.0400       422
    54.0600       440
    54.0800       484
    54.1000       430
    54.1200       476
    54.1400       452
    54.1600       438
    54.1800       458
    54.2000       490
    54.2200       496
    54.2400       500
    54.2600       572
    54.2800       522
    54.3000       550
    54.3200       510
    54.3400       574
    54.3600       542
    54.3800       588
    54.4000       592
    54.4200       670
    54.4400       656
    54.4600       698
    54.4800       710
    54.5000       728
    54.5200       746
    54.5400       788
    54.5600       776
    54.5800       788
    54.6000       736
    54.6200       800
    54.6400       832
    54.6600       832
    54.6800       794
    54.7000       890
    54.7200       868
    54.7400       938
    54.7600       904
    54.7800       834
    54.8000       880
    54.8200       934
    54.8400       898
    54.8600       862
    54.8800       840
    54.9000       842
    54.9200       824
    54.9400       848
    54.9600       850
    54.9800       882
    55.0000       866
    55.0200       880
    55.0400       878
    55.0600       914
    55.0800       968
    55.1000      1012
    55.1200      1048
    55.1400      1082
    55.1600      1052
    55.1800      1102
    55.2000      1076
    55.2200      1034
    55.2400      1114
    55.2600      1058
    55.2800      1058
    55.3000      1048
    55.3200      1050
    55.3400       982
    55.3600       912
    55.3800       884
    55.4000       868
    55.4200       842
    55.4400       844
    55.4600       776
    55.4800       692
    55.5000       686
    55.5200       642
    55.5400       634
    55.5600       596
    55.5800       524
    55.6000       536
    55.6200       548
    55.6400       498
    55.6600       488
    55.6800       442
    55.7000       442
    55.7200       396
    55.7400       384
    55.7600       378
    55.7800       388
    55.8000       368
    55.8200       332
    55.8400       322
    55.8600       338
    55.8800       338
    55.9000       312
    55.9200       306
    55.9400       328
    55.9600       318
    55.9800       288
    56.0000       326
    56.0200       324
    56.0400       274
    56.0600       298
    56.0800       314
    56.1000       282
    56.1200       278
    56.1400       324
    56.1600       292
    56.1800       308
    56.2000       304
    56.2200       320
    56.2400       302
    56.2600       332
    56.2800       290
    56.3000       306
    56.3200       316
    56.3400       308
    56.3600       296
    56.3800       324
    56.4000       318
    56.4200       326
    56.4400       332
    56.4600       332
    56.4800       342
    56.5000       372
    56.5200       344
    56.5400       348
    56.5600       340
    56.5800       374
    56.6000       374
    56.6200       402
    56.6400       428
    56.6600       424
    56.6800       408
    56.7000       484
    56.7200       468
    56.7400       498
    56.7600       500
    56.7800       518
    56.8000       560
    56.8200       570
    56.8400       534
    56.8600       562
    56.8800       564
    56.9000       526
    56.9200       560
    56.9400       554
    56.9600       524
    56.9800       564
    57.0000       536
    57.0200       470
    57.0400       520
    57.0600       556
    57.0800       536
    57.1000       546
    57.1200       562
    57.1400       618
    57.1600       608
    57.1800       654
    57.2000       704
    57.2200       756
    57.2400       870
    57.2600       914
    57.2800      1054
    57.3000      1150
    57.3200      1196
    57.3400      1252
    57.3600      1316
    57.3800      1308
    57.4000      1314
    57.4200      1306
    57.4400      1302
    57.4600      1306
    57.4800      1276
    57.5000      1160
    57.5200      1258
    57.5400      1224
    57.5600      1208
    57.5800      1190
    57.6000      1144
    57.6200      1202
    57.6400      1188
    57.6600      1256
    57.6800      1348
    57.7000      1278
    57.7200      1366
    57.7400      1450
    57.7600      1308
    57.7800      1318
    57.8000      1318
    57.8200      1282
    57.8400      1212
    57.8600      1180
    57.8800      1122
    57.9000      1024
    57.9200      1052
    57.9400       930
    57.9600       934
    57.9800       826
    58.0000       738
    58.0200       730
    58.0400       704
    58.0600       644
    58.0800       660
    58.1000       690
    58.1200       666
    58.1400       672
    58.1600       658
    58.1800       702
    58.2000       694
    58.2200       772
    58.2400       840
    58.2600       866
    58.2800       914
    58.3000       914
    58.3200      1008
    58.3400      1060
    58.3600      1096
    58.3800      1208
    58.4000      1244
    58.4200      1360
    58.4400      1476
    58.4600      1574
    58.4800      1494
    58.5000      1696
    58.5200      1814
    58.5400      1826
    58.5600      1920
    58.5800      1936
    58.6000      2144
    58.6200      2108
    58.6400      2324
    58.6600      2420
    58.6800      2490
    58.7000      2626
    58.7200      2696
    58.7400      2624
    58.7600      2748
    58.7800      2580
    58.8000      2502
    58.8200      2440
    58.8400      2374
    58.8600      2340
    58.8800      2116
    58.9000      2018
    58.9200      1898
    58.9400      1716
    58.9600      1618
    58.9800      1526
    59.0000      1324
    59.0200      1290
    59.0400      1256
    59.0600      1074
    59.0800      1012
    59.1000      1038
    59.1200       902
    59.1400       840
    59.1600       836
    59.1800       852
    59.2000       772
    59.2200       786
    59.2400       838
    59.2600       834
    59.2800       896
    59.3000       914
    59.3200       958
    59.3400      1016
    59.3600      1082
    59.3800      1172
    59.4000      1196
    59.4200      1214
    59.4400      1332
    59.4600      1318
    59.4800      1342
    59.5000      1382
    59.5200      1286
    59.5400      1314
    59.5600      1246
    59.5800      1356
    59.6000      1266
    59.6200      1262
    59.6400      1282
    59.6600      1212
    59.6800      1192
    59.7000      1176
    59.7200      1140
    59.7400      1070
    59.7600      1090
    59.7800      1070
    59.8000      1052
    59.8200      1056
    59.8400       970
    59.8600      1026
    59.8800       972
    59.9000       968
    59.9200       956
    59.9400       878
    59.9600       918
    59.9800       862
    60.0000       836
    60.0200       794
    60.0400       726
    60.0600       752
    60.0800       692
    60.1000       708
    60.1200       694
    60.1400       650
    60.1600       600
    60.1800       584
    60.2000       560
    60.2200       600
    60.2400       526
    60.2600       488
    60.2800       498
    60.3000       488
    60.3200       458
    60.3400       440
    60.3600       474
    60.3800       442
    60.4000       396
    60.4200       426
    60.4400       414
    60.4600       386
    60.4800       428
    60.5000       386
    60.5200       434
    60.5400       396
    60.5600       448
    60.5800       390
    60.6000       366
    60.6200       440
    60.6400       406
    60.6600       374
    60.6800       396
    60.7000       350
    60.7200       404
    60.7400       418
    60.7600       444
    60.7800       426
    60.8000       394
    60.8200       436
    60.8400       434
    60.8600       468
    60.8800       462
    60.9000       446
    60.9200       480
    60.9400       474
    60.9600       566
    60.9800       544
    61.0000       580
    61.0200       614
    61.0400       624
    61.0600       660
    61.0800       640
    61.1000       702
    61.1200       734
    61.1400       702
    61.1600       768
    61.1800       758
    61.2000       738
    61.2200       810
    61.2400       824
    61.2600       796
    61.2800       814
    61.3000       838
    61.3200       750
    61.3400       872
    61.3600       826
    61.3800       890
    61.4000       894
    61.4200       860
    61.4400       974
    61.4600      1012
    61.4800       960
    61.5000       970
    61.5200      1048
    61.5400      1114
    61.5600      1168
    61.5800      1196
    61.6000      1206
    61.6200      1134
    61.6400      1120
    61.6600      1148
    61.6800      1132
    61.7000      1056
    61.7200      1004
    61.7400       980
    61.7600       924
    61.7800       932
    61.8000       926
    61.8200       840
    61.8400       806
    61.8600       722
    61.8800       776
    61.9000       716
    61.9200       698
    61.9400       690
    61.9600       616
    61.9800       606
    62.0000       580
    62.0200       592
    62.0400       612
    62.0600       572
    62.0800       570
    62.1000       600
    62.1200       544
    62.1400       548
    62.1600       518
    62.1800       514
    62.2000       510
    62.2200       484
    62.2400       506
    62.2600       508
    62.2800       494
    62.3000       468
    62.3200       446
    62.3400       484
    62.3600       446
    62.3800       476
    62.4000       428
    62.4200       424
    62.4400       430
    62.4600       384
    62.4800       406
    62.5000       424
    62.5200       412
    62.5400       386
    62.5600       386
    62.5800       400
    62.6000       400
    62.6200       406
    62.6400       404
    62.6600       394
    62.6800       426
    62.7000       394
    62.7200       386
    62.7400       392
    62.7600       404
    62.7800       432
    62.8000       390
    62.8200       412
    62.8400       378
    62.8600       394
    62.8800       358
    62.9000       378
    62.9200       344
    62.9400       374
    62.9600       348
    62.9800       336
    63.0000       334
    63.0200       304
    63.0400       308
    63.0600       336
    63.0800       312
    63.1000       296
    63.1200       278
    63.1400       298
    63.1600       306
    63.1800       260
    63.2000       256
    63.2200       314
    63.2400       298
    63.2600       276
    63.2800       274
    63.3000       264
    63.3200       290
    63.3400       278
    63.3600       252
    63.3800       278
    63.4000       282
    63.4200       308
    63.4400       294
    63.4600       312
    63.4800       298
    63.5000       284
    63.5200       340
    63.5400       310
    63.5600       318
    63.5800       354
    63.6000       318
    63.6200       360
    63.6400       374
    63.6600       422
    63.6800       424
    63.7000       422
    63.7200       472
    63.7400       480
    63.7600       560
    63.7800       500
    63.8000       584
    63.8200       642
    63.8400       652
    63.8600       664
    63.8800       696
    63.9000       720
    63.9200       726
    63.9400       666
    63.9600       700
    63.9800       714
    64.0000       676
    64.0200       590
    64.0400       648
    64.0600       630
    64.0800       598
    64.1000       578
    64.1200       528
    64.1400       488
    64.1600       458
    64.1800       478
    64.2000       438
    64.2200       398
    64.2400       440
    64.2600       384
    64.2800       360
    64.3000       306
    64.3200       372
    64.3400       294
    64.3600       298
    64.3800       328
    64.4000       308
    64.4200       330
    64.4400       264
    64.4600       284
    64.4800       248
    64.5000       266
    64.5200       276
    64.5400       292
    64.5600       280
    64.5800       294
    64.6000       254
    64.6200       262
    64.6400       256
    64.6600       272
    64.6800       216
    64.7000       290
    64.7200       276
    64.7400       264
    64.7600       234
    64.7800       282
    64.8000       228
    64.8200       266
    64.8400       234
    64.8600       258
    64.8800       224
    64.9000       254
    64.9200       254
    64.9400       254
    64.9600       268
    64.9800       270
    65.0000       284
    65.0200       296
    65.0400       304
    65.0600       326
    65.0800       320
    65.1000       326
    65.1200       338
    65.1400       346
    65.1600       362
    65.1800       356
    65.2000       386
    65.2200       400
    65.2400       392
    65.2600       436
    65.2800       446
    65.3000       394
    65.3200       418
    65.3400       442
    65.3600       428
    65.3800       398
    65.4000       476
    65.4200       440
    65.4400       466
    65.4600       430
    65.4800       446
    65.5000       432
    65.5200       394
    65.5400       386
    65.5600       388
    65.5800       388
    65.6000       354
    65.6200       370
    65.6400       394
    65.6600       328
    65.6800       370
    65.7000       362
    65.7200       336
    65.7400       368
    65.7600       366
    65.7800       366
    65.8000       334
    65.8200       312
    65.8400       308
    65.8600       320
    65.8800       294
    65.9000       308
    65.9200       308
    65.9400       308
    65.9600       300
    65.9800       280
    66.0000       282
    66.0200       286
    66.0400       266
    66.0600       286
    66.0800       256
    66.1000       240
    66.1200       236
    66.1400       278
    66.1600       266
    66.1800       274
    66.2000       262
    66.2200       262
    66.2400       272
    66.2600       284
    66.2800       280
    66.3000       292
    66.3200       252
    66.3400       314
    66.3600       304
    66.3800       298
    66.4000       282
    66.4200       290
    66.4400       302
    66.4600       312
    66.4800       308
    66.5000       300
    66.5200       336
    66.5400       348
    66.5600       352
    66.5800       348
    66.6000       398
    66.6200       364
    66.6400       392
    66.6600       462
    66.6800       456
    66.7000       462
    66.7200       476
    66.7400       520
    66.7600       518
    66.7800       576
    66.8000       586
    66.8200       644
    66.8400       672
    66.8600       630
    66.8800       718
    66.9000       756
    66.9200       762
    66.9400       806
    66.9600       808
    66.9800       732
    67.0000       714
    67.0200       730
    67.0400       784
    67.0600       690
    67.0800       750
    67.1000       686
    67.1200       656
    67.1400       624
    67.1600       590
    67.1800       600
    67.2000       528
    67.2200       530
    67.2400       508
    67.2600       524
    67.2800       428
    67.3000       444
    67.3200       446
    67.3400       426
    67.3600       408
    67.3800       400
    67.4000       380
    67.4200       360
    67.4400       348
    67.4600       340
    67.4800       294
    67.5000       318
    67.5200       386
    67.5400       324
    67.5600       358
    67.5800       286
    67.6000       314
    67.6200       322
    67.6400       330
    67.6600       300
    67.6800       322
    67.7000       370
    67.7200       312
    67.7400       334
    67.7600       356
    67.7800       328
    67.8000       332
    67.8200       352
    67.8400       366
    67.8600       402
    67.8800       400
    67.9000       440
    67.9200       454
    67.9400       510
    67.9600       566
    67.9800       602
    68.0000       676
    68.0200       660
    68.0400       754
    68.0600       742
    68.0800       812
    68.1000       882
    68.1200       964
    68.1400       972
    68.1600      1004
    68.1800      1042
    68.2000      1026
    68.2200       974
    68.2400      1068
    68.2600      1052
    68.2800      1000
    68.3000       980
    68.3200       994
    68.3400       966
    68.3600       930
    68.3800       886
    68.4000       770
    68.4200       768
    68.4400       716
    68.4600       670
    68.4800       694
    68.5000       654
    68.5200       614
    68.5400       598
    68.5600       550
    68.5800       530
    68.6000       518
    68.6200       524
    68.6400       452
    68.6600       432
    68.6800       430
    68.7000       402
    68.7200       394
    68.7400       378
    68.7600       364
    68.7800       326
    68.8000       354
    68.8200       346
    68.8400       316
    68.8600       344
    68.8800       310
    68.9000       364
    68.9200       342
    68.9400       330
    68.9600       322
    68.9800       338
    69.0000       310
    69.0200       354
    69.0400       328
    69.0600       302
    69.0800       328
    69.1000       350
    69.1200       350
    69.1400       336
    69.1600       350
    69.1800       408
    69.2000       376
    69.2200       368
    69.2400       394
    69.2600       420
    69.2800       440
    69.3000       458
    69.3200       506
    69.3400       490
    69.3600       480
    69.3800       498
    69.4000       496
    69.4200       512
    69.4400       472
    69.4600       490
    69.4800       478
    69.5000       524
    69.5200       474
    69.5400       460
    69.5600       454
    69.5800       442
    69.6000       430
    69.6200       412
    69.6400       412
    69.6600       400
    69.6800       380
    69.7000       400
    69.7200       362
    69.7400       348
    69.7600       352
    69.7800       368
    69.8000       352
    69.8200       382
    69.8400       372
    69.8600       340
    69.8800       396
    69.9000       326
    69.9200       354
    69.9400       338
    69.9600       370
    69.9800       318
    70.0000       290
    70.0200       342
    70.0400       340
    70.0600       330
    70.0800       326
    70.1000       298
    70.1200       298
    70.1400       298
    70.1600       320
    70.1800       278
    70.2000       286
    70.2200       288
    70.2400       278
    70.2600       276
    70.2800       264
    70.3000       262
    70.3200       280
    70.3400       262
    70.3600       242
    70.3800       246
    70.4000       262
    70.4200       242
    70.4400       250
    70.4600       246
    70.4800       256
    70.5000       232
    70.5200       266
    70.5400       256
    70.5600       244
    70.5800       228
    70.6000       266
    70.6200       234
    70.6400       246
    70.6600       230
    70.6800       230
    70.7000       270
    70.7200       248
    70.7400       242
    70.7600       220
    70.7800       240
    70.8000       208
    70.8200       212
    70.8400       228
    70.8600       214
    70.8800       214
    70.9000       204
    70.9200       192
    70.9400       188
    70.9600       228
    70.9800       220
    71.0000       228
    71.0200       208
    71.0400       200
    71.0600       200
    71.0800       206
    71.1000       216
    71.1200       236
    71.1400       228
    71.1600       248
    71.1800       264
    71.2000       238
    71.2200       296
    71.2400       294
    71.2600       330
    71.2800       316
    71.3000       316
    71.3200       352
    71.3400       372
    71.3600       388
    71.3800       462
    71.4000       444
    71.4200       428
    71.4400       494
    71.4600       454
    71.4800       554
    71.5000       520
    71.5200       526
    71.5400       548
    71.5600       558
    71.5800       536
    71.6000       506
    71.6200       506
    71.6400       496
    71.6600       544
    71.6800       534
    71.7000       532
    71.7200       506
    71.7400       536
    71.7600       506
    71.7800       484
    71.8000       502
    71.8200       476
    71.8400       466
    71.8600       462
    71.8800       408
    71.9000       400
    71.9200       486
    71.9400       420
    71.9600       396
    71.9800       382
    72.0000       416
    72.0200       412
    72.0400       388
    72.0600       386
    72.0800       388
    72.1000       380
    72.1200       430
    72.1400       414
    72.1600       398
    72.1800       416
    72.2000       406
    72.2200       434
    72.2400       484
    72.2600       486
    72.2800       494
    72.3000       476
    72.3200       518
    72.3400       518
    72.3600       508
    72.3800       530
    72.4000       516
    72.4200       464
    72.4400       514
    72.4600       516
    72.4800       528
    72.5000       540
    72.5200       492
    72.5400       514
    72.5600       550
    72.5800       512
    72.6000       516
    72.6200       478
    72.6400       502
    72.6600       546
    72.6800       498
    72.7000       562
    72.7200       514
    72.7400       562
    72.7600       538
    72.7800       530
    72.8000       518
    72.8200       492
    72.8400       510
    72.8600       484
    72.8800       528
    72.9000       484
    72.9200       506
    72.9400       476
    72.9600       448
    72.9800       476
    73.0000       454
    73.0200       468
    73.0400       440
    73.0600       432
    73.0800       406
    73.1000       400
    73.1200       362
    73.1400       394
    73.1600       362
    73.1800       322
    73.2000       322
    73.2200       300
    73.2400       278
    73.2600       296
    73.2800       300
    73.3000       290
    73.3200       272
    73.3400       288
    73.3600       302
    73.3800       282
    73.4000       250
    73.4200       288
    73.4400       268
    73.4600       264
    73.4800       254
    73.5000       284
    73.5200       238
    73.5400       272
    73.5600       212
    73.5800       272
    73.6000       238
    73.6200       250
    73.6400       252
    73.6600       234
    73.6800       224
    73.7000       252
    73.7200       262
    73.7400       260
    73.7600       290
    73.7800       238
    73.8000       236
    73.8200       248
    73.8400       252
    73.8600       250
    73.8800       258
    73.9000       220
    73.9200       248
    73.9400       252
    73.9600       266
    73.9800       262
    74.0000       234
    74.0200       262
    74.0400       288
    74.0600       266
    74.0800       280
    74.1000       264
    74.1200       292
    74.1400       280
    74.1600       254
    74.1800       316
    74.2000       274
    74.2200       292
    74.2400       248
    74.2600       234
    74.2800       276
    74.3000       270
    74.3200       248
    74.3400       282
    74.3600       228
    74.3800       256
    74.4000       252
    74.4200       244
    74.4400       248
    74.4600       212
    74.4800       232
    74.5000       230
    74.5200       194
    74.5400       198
    74.5600       206
    74.5800       222
    74.6000       200
    74.6200       192
    74.6400       220
    74.6600       210
    74.6800       210
    74.7000       214
    74.7200       208
    74.7400       230
    74.7600       184
    74.7800       192
    74.8000       180
    74.8200       178
    74.8400       220
    74.8600       204
    74.8800       196
    74.9000       212
    74.9200       214
    74.9400       208
    74.9600       200
    74.9800       220
    75.0000       218
    75.0200       226
    75.0400       206
    75.0600       230
    75.0800       226
    75.1000       238
    75.1200       254
    75.1400       214
    75.1600       222
    75.1800       240
    75.2000       234
    75.2200       230
    75.2400       244
    75.2600       270
    75.2800       256
    75.3000       236
    75.3200       250
    75.3400       268
    75.3600       246
    75.3800       246
    75.4000       222
    75.4200       232
    75.4400       246
    75.4600       246
    75.4800       256
    75.5000       250
    75.5200       264
    75.5400       244
    75.5600       252
    75.5800       222
    75.6000       254
    75.6200       254
    75.6400       264
    75.6600       268
    75.6800       250
    75.7000       256
    75.7200       242
    75.7400       218
    75.7600       242
    75.7800       236
    75.8000       260
    75.8200       258
    75.8400       246
    75.8600       240
    75.8800       262
    75.9000       254
    75.9200       244
    75.9400       282
    75.9600       222
    75.9800       230
    76.0000       232
    76.0200       256
    76.0400       252
    76.0600       272
    76.0800       226
    76.1000       240
    76.1200       232
    76.1400       266
    76.1600       268
    76.1800       278
    76.2000       282
    76.2200       272
    76.2400       316
    76.2600       304
    76.2800       324
    76.3000       314
    76.3200       290
    76.3400       330
    76.3600       326
    76.3800       316
    76.4000       318
    76.4200       380
    76.4400       340
    76.4600       368
    76.4800       350
    76.5000       372
    76.5200       386
    76.5400       358
    76.5600       392
    76.5800       384
    76.6000       380
    76.6200       398
    76.6400       382
    76.6600       436
    76.6800       386
    76.7000       402
    76.7200       386
    76.7400       428
    76.7600       394
    76.7800       398
    76.8000       356
    76.8200       360
    76.8400       380
    76.8600       376
    76.8800       338
    76.9000       352
    76.9200       328
    76.9400       360
    76.9600       336
    76.9800       330
    77.0000       300
    77.0200       348
    77.0400       350
    77.0600       304
    77.0800       336
    77.1000       314
    77.1200       298
    77.1400       296
    77.1600       356
    77.1800       348
    77.2000       300
    77.2200       320
    77.2400       328
    77.2600       348
    77.2800       370
    77.3000       356
    77.3200       346
    77.3400       350
    77.3600       418
    77.3800       412
    77.4000       432
    77.4200       480
    77.4400       448
    77.4600       490
    77.4800       570
    77.5000       532
    77.5200       538
    77.5400       612
    77.5600       602
    77.5800       682
    77.6000       656
    77.6200       764
    77.6400       690
    77.6600       730
    77.6800       684
    77.7000       774
    77.7200       684
    77.7400       654
    77.7600       722
    77.7800       672
    77.8000       714
    77.8200       658
    77.8400       662
    77.8600       638
    77.8800       636
    77.9000       648
    77.9200       594
    77.9400       538
    77.9600       552
    77.9800       508
    78.0000       534
    78.0200       494
    78.0400       486
    78.0600       444
    78.0800       408
    78.1000       406
    78.1200       406
    78.1400       382
    78.1600       384
    78.1800       366
    78.2000       372
    78.2200       356
    78.2400       352
    78.2600       344
    78.2800       324
    78.3000       356
    78.3200       358
    78.3400       338
    78.3600       384
    78.3800       352
    78.4000       350
    78.4200       376
    78.4400       338
    78.4600       400
    78.4800       392
    78.5000       374
    78.5200       388
    78.5400       356
    78.5600       418
    78.5800       370
    78.6000       378
    78.6200       374
    78.6400       392
    78.6600       372
    78.6800       424
    78.7000       416
    78.7200       382
    78.7400       396
    78.7600       440
    78.7800       392
    78.8000       410
    78.8200       402
    78.8400       382
    78.8600       348
    78.8800       324
    78.9000       346
    78.9200       336
    78.9400       388
    78.9600       334
    78.9800       304
    79.0000       308
    79.0200       278
    79.0400       282
    79.0600       300
    79.0800       326
    79.1000       286
    79.1200       282
    79.1400       312
    79.1600       282
    79.1800       254
    79.2000       262
    79.2200       252
    79.2400       280
    79.2600       248
    79.2800       250
    79.3000       238
    79.3200       260
    79.3400       250
    79.3600       268
    79.3800       268
    79.4000       286
    79.4200       244
    79.4400       284
    79.4600       224
    79.4800       228
    79.5000       272
    79.5200       258
    79.5400       292
    79.5600       278
    79.5800       258
    79.6000       246
    79.6200       278
    79.6400       254
    79.6600       244
    79.6800       244
    79.7000       268
    79.7200       234
    79.7400       262
    79.7600       262
    79.7800       248
    79.8000       290
    79.8200       272
    79.8400       254
    79.8600       234
    79.8800       252
    79.9000       260
    79.9200       270
    79.9400       234
    79.9600       230
    79.9800       234
    80.0000       256
    80.0200       246
    80.0400       262
    80.0600       226
    80.0800       232
    80.1000       226
    80.1200       268
    80.1400       274
    80.1600       254
    80.1800       250
    80.2000       250
    80.2200       248
    80.2400       266
    80.2600       270
    80.2800       272
    80.3000       244
    80.3200       280
    80.3400       284
    80.3600       282
    80.3800       292
    80.4000       314
    80.4200       286
    80.4400       278
    80.4600       294
    80.4800       266
    80.5000       310
    80.5200       306
    80.5400       288
    80.5600       282
    80.5800       260
    80.6000       344
    80.6200       256
    80.6400       280
    80.6600       282
    80.6800       250
    80.7000       252
    80.7200       272
    80.7400       290
    80.7600       270
    80.7800       286
    80.8000       262
    80.8200       258
    80.8400       240
    80.8600       252
    80.8800       278
    80.9000       278
    80.9200       276
    80.9400       254
    80.9600       256
    80.9800       226
    81.0000       238
    81.0200       234
    81.0400       216
    81.0600       226
    81.0800       232
    81.1000       240
    81.1200       246
    81.1400       252
    81.1600       236
    81.1800       254
    81.2000       256
    81.2200       260
    81.2400       260
    81.2600       240
    81.2800       264
    81.3000       266
    81.3200       284
    81.3400       262
    81.3600       246
    81.3800       256
    81.4000       242
    81.4200       264
    81.4400       214
    81.4600       260
    81.4800       254
    81.5000       272
    81.5200       310
    81.5400       290
    81.5600       234
    81.5800       262
    81.6000       272
    81.6200       264
    81.6400       274
    81.6600       290
    81.6800       268
    81.7000       278
    81.7200       298
    81.7400       292
    81.7600       268
    81.7800       262
    81.8000       284
    81.8200       282
    81.8400       296
    81.8600       290
    81.8800       336
    81.9000       320
    81.9200       302
    81.9400       312
    81.9600       296
    81.9800       314
    82.0000       284
    82.0200       328
    82.0400       324
    82.0600       334
    82.0800       334
    82.1000       314
    82.1200       342
    82.1400       316
    82.1600       352
    82.1800       318
    82.2000       346
    82.2200       348
    82.2400       358
    82.2600       378
    82.2800       368
    82.3000       356
    82.3200       406
    82.3400       360
    82.3600       380
    82.3800       402
    82.4000       370
    82.4200       384
    82.4400       364
    82.4600       356
    82.4800       398
    82.5000       386
    82.5200       406
    82.5400       414
    82.5600       408
    82.5800       420
    82.6000       430
    82.6200       436
    82.6400       452
    82.6600       448
    82.6800       480
    82.7000       514
    82.7200       522
    82.7400       478
    82.7600       514
    82.7800       548
    82.8000       570
    82.8200       554
    82.8400       586
    82.8600       562
    82.8800       570
    82.9000       694
    82.9200       592
    82.9400       616
    82.9600       576
    82.9800       598
    83.0000       648
    83.0200       578
    83.0400       602
    83.0600       602
    83.0800       572
    83.1000       616
    83.1200       558
    83.1400       564
    83.1600       560
    83.1800       538
    83.2000       540
    83.2200       528
    83.2400       526
    83.2600       506
    83.2800       496
    83.3000       488
    83.3200       468
    83.3400       444
    83.3600       478
    83.3800       418
    83.4000       414
    83.4200       426
    83.4400       430
    83.4600       400
    83.4800       368
    83.5000       406
    83.5200       372
    83.5400       344
    83.5600       342
    83.5800       362
    83.6000       330
    83.6200       336
    83.6400       354
    83.6600       368
    83.6800       304
    83.7000       326
    83.7200       304
    83.7400       316
    83.7600       322
    83.7800       326
    83.8000       290
    83.8200       294
    83.8400       302
    83.8600       298
    83.8800       284
    83.9000       332
    83.9200       300
    83.9400       300
    83.9600       296
    83.9800       312
    84.0000       288
    84.0200       284
    84.0400       352
    84.0600       308
    84.0800       292
    84.1000       316
    84.1200       300
    84.1400       328
    84.1600       302
    84.1800       308
    84.2000       342
    84.2200       322
    84.2400       318
    84.2600       318
    84.2800       272
    84.3000       358
    84.3200       340
    84.3400       344
    84.3600       338
    84.3800       336
    84.4000       322
    84.4200       336
    84.4400       308
    84.4600       318
    84.4800       280
    84.5000       352
    84.5200       286
    84.5400       288
    84.5600       304
    84.5800       288
    84.6000       308
    84.6200       298
    84.6400       284
    84.6600       304
    84.6800       310
    84.7000       280
    84.7200       294
    84.7400       298
    84.7600       296
    84.7800       302
    84.8000       310
    84.8200       278
    84.8400       298
    84.8600       252
    84.8800       264
    84.9000       274
    84.9200       288
    84.9400       282
    84.9600       268
    84.9800       264
    85.0000       274
    85.0200       284
    85.0400       274
    85.0600       272
    85.0800       268
    85.1000       250
    85.1200       244
    85.1400       284
    85.1600       232
    85.1800       266
    85.2000       254
    85.2200       288
    85.2400       248
    85.2600       252
    85.2800       284
    85.3000       254
    85.3200       266
    85.3400       290
    85.3600       246
    85.3800       284
    85.4000       290
    85.4200       268
    85.4400       264
    85.4600       304
    85.4800       308
    85.5000       312
    85.5200       284
    85.5400       276
    85.5600       266
    85.5800       292
    85.6000       284
    85.6200       308
    85.6400       322
    85.6600       296
    85.6800       282
    85.7000       262
    85.7200       262
    85.7400       284
    85.7600       264
    85.7800       280
    85.8000       278
    85.8200       300
    85.8400       296
    85.8600       264
    85.8800       266
    85.9000       268
    85.9200       260
    85.9400       284
    85.9600       264
    85.9800       236
    86.0000       252
    86.0200       248
    86.0400       244
    86.0600       246
    86.0800       258
    86.1000       254
    86.1200       240
    86.1400       246
    86.1600       216
    86.1800       242
    86.2000       204
    86.2200       224
    86.2400       236
    86.2600       250
    86.2800       252
    86.3000       214
    86.3200       232
    86.3400       216
    86.3600       262
    86.3800       238
    86.4000       226
    86.4200       238
    86.4400       234
    86.4600       206
    86.4800       228
    86.5000       232
    86.5200       246
    86.5400       272
    86.5600       216
    86.5800       260
    86.6000       268
    86.6200       238
    86.6400       252
    86.6600       286
    86.6800       266
    86.7000       258
    86.7200       296
    86.7400       300
    86.7600       320
    86.7800       316
    86.8000       322
    86.8200       286
    86.8400       308
    86.8600       348
    86.8800       342
    86.9000       340
    86.9200       356
    86.9400       360
    86.9600       348
    86.9800       384
    87.0000       370
    87.0200       374
    87.0400       320
    87.0600       346
    87.0800       362
    87.1000       366
    87.1200       376
    87.1400       346
    87.1600       390
    87.1800       346
    87.2000       286
    87.2200       324
    87.2400       332
    87.2600       352
    87.2800       306
    87.3000       326
    87.3200       310
    87.3400       300
    87.3600       318
    87.3800       310
    87.4000       286
    87.4200       300
    87.4400       264
    87.4600       304
    87.4800       280
    87.5000       274
    87.5200       276
    87.5400       278
    87.5600       300
    87.5800       276
    87.6000       274
    87.6200       376
    87.6400       308
    87.6600       344
    87.6800       338
    87.7000       352
    87.7200       368
    87.7400       368
    87.7600       396
    87.7800       390
    87.8000       386
    87.8200       366
    87.8400       392
    87.8600       430
    87.8800       410
    87.9000       398
    87.9200       424
    87.9400       388
    87.9600       410
    87.9800       410
    88.0000       390
    88.0200       422
    88.0400       436
    88.0600       414
    88.0800       412
    88.1000       404
    88.1200       424
    88.1400       442
    88.1600       452
    88.1800       460
    88.2000       432
    88.2200       408
    88.2400       410
    88.2600       428
    88.2800       430
    88.3000       430
    88.3200       406
    88.3400       386
    88.3600       454
    88.3800       426
    88.4000       408
    88.4200       436
    88.4400       424
    88.4600       394
    88.4800       394
    88.5000       396
    88.5200       384
    88.5400       390
    88.5600       406
    88.5800       430
    88.6000       372
    88.6200       412
    88.6400       380
    88.6600       356
    88.6800       324
    88.7000       362
    88.7200       350
    88.7400       386
    88.7600       366
    88.7800       356
    88.8000       364
    88.8200       290
    88.8400       310
    88.8600       342
    88.8800       326
    88.9000       340
    88.9200       308
    88.9400       306
    88.9600       308
    88.9800       318
    89.0000       244
    89.0200       306
    89.0400       262
    89.0600       236
    89.0800       260
    89.1000       276
    89.1200       278
    89.1400       268
    89.1600       240
    89.1800       274
    89.2000       264
    89.2200       272
    89.2400       242
    89.2600       272
    89.2800       278
    89.3000       256
    89.3200       270
    89.3400       242
    89.3600       282
    89.3800       266
    89.4000       252
    89.4200       256
    89.4400       256
    89.4600       280
    89.4800       258
    89.5000       254
    89.5200       248
    89.5400       258
    89.5600       274
    89.5800       284
    89.6000       264
    89.6200       258
    89.6400       274
    89.6600       274
    89.6800       288
    89.7000       236
    89.7200       278
    89.7400       280
    89.7600       246
    89.7800       266
    89.8000       270
    89.8200       308
    89.8400       282
    89.8600       312
    89.8800       272
    89.9000       288
    89.9200       268
    89.9400       272
    89.9600       276
    89.9800       280
    90.0000       310
