    10.0000       394
    10.0200       354
    10.0400       394
    10.0600       348
    10.0800       374
    10.1000       352
    10.1200       364
    10.1400       396
    10.1600       350
    10.1800       378
    10.2000       356
    10.2200       380
    10.2400       354
    10.2600       384
    10.2800       332
    10.3000       356
    10.3200       348
    10.3400       368
    10.3600       346
    10.3800       346
    10.4000       380
    10.4200       384
    10.4400       360
    10.4600       342
    10.4800       354
    10.5000       346
    10.5200       356
    10.5400       344
    10.5600       364
    10.5800       326
    10.6000       322
    10.6200       372
    10.6400       352
    10.6600       370
    10.6800       358
    10.7000       360
    10.7200       340
    10.7400       350
    10.7600       342
    10.7800       344
    10.8000       354
    10.8200       324
    10.8400       342
    10.8600       338
    10.8800       340
    10.9000       366
    10.9200       334
    10.9400       378
    10.9600       370
    10.9800       328
    11.0000       330
    11.0200       332
    11.0400       318
    11.0600       302
    11.0800       384
    11.1000       362
    11.1200       344
    11.1400       342
    11.1600       352
    11.1800       368
    11.2000       348
    11.2200       362
    11.2400       332
    11.2600       328
    11.2800       344
    11.3000       328
    11.3200       374
    11.3400       358
    11.3600       336
    11.3800       350
    11.4000       332
    11.4200       320
    11.4400       336
    11.4600       316
    11.4800       304
    11.5000       348
    11.5200       330
    11.5400       346
    11.5600       332
    11.5800       336
    11.6000       336
    11.6200       352
    11.6400       320
    11.6600       370
    11.6800       304
    11.7000       334
    11.7200       306
    11.7400       334
    11.7600       348
    11.7800       328
    11.8000       342
    11.8200       352
    11.8400       364
    11.8600       340
    11.8800       348
    11.9000       356
    11.9200       354
    11.9400       372
    11.9600       376
    11.9800       398
    12.0000       386
    12.0200       358
    12.0400       350
    12.0600       400
    12.0800       420
    12.1000       424
    12.1200       492
    12.1400       474
    12.1600       446
    12.1800       494
    12.2000       500
    12.2200       458
    12.2400       478
    12.2600       450
    12.2800       390
    12.3000       382
    12.3200       336
    12.3400       332
    12.3600       354
    12.3800       354
    12.4000       318
    12.4200       324
    12.4400       288
    12.4600       332
    12.4800       302
    12.5000       268
    12.5200       324
    12.5400       304
    12.5600       302
    12.5800       340
    12.6000       322
    12.6200       308
    12.6400       288
    12.6600       306
    12.6800       298
    12.7000       314
    12.7200       310
    12.7400       304
    12.7600       304
    12.7800       310
    12.8000       320
    12.8200       308
    12.8400       292
    12.8600       270
    12.8800       330
    12.9000       284
    12.9200       340
    12.9400       312
    12.9600       326
    12.9800       278
    13.0000       326
    13.0200       294
    13.0400       294
    13.0600       312
    13.0800       316
    13.1000       276
    13.1200       284
    13.1400       310
    13.1600       312
    13.1800       316
    13.2000       326
    13.2200       298
    13.2400       302
    13.2600       290
    13.2800       292
    13.3000       314
    13.3200       262
    13.3400       280
    13.3600       310
    13.3800       316
    13.4000       318
    13.4200       284
    13.4400       308
    13.4600       298
    13.4800       286
    13.5000       282
    13.5200       298
    13.5400       306
    13.5600       284
    13.5800       256
    13.6000       258
    13.6200       284
    13.6400       278
    13.6600       282
    13.6800       272
    13.7000       298
    13.7200       320
    13.7400       288
    13.7600       304
    13.7800       274
    13.8000       312
    13.8200       290
    13.8400       282
    13.8600       294
    13.8800       276
    13.9000       286
    13.9200       282
    13.9400       266
    13.9600       282
    13.9800       286
    14.0000       286
    14.0200       302
    14.0400       274
    14.0600       288
    14.0800       300
    14.1000       280
    14.1200       314
    14.1400       280
    14.1600       258
    14.1800       312
    14.2000       272
    14.2200       290
    14.2400       308
    14.2600       282
    14.2800       306
    14.3000       306
    14.3200       292
    14.3400       328
    14.3600       308
    14.3800       320
    14.4000       332
    14.4200       296
    14.4400       342
    14.4600       318
    14.4800       340
    14.5000       384
    14.5200       354
    14.5400       368
    14.5600       384
    14.5800       374
    14.6000       438
    14.6200       440
    14.6400       480
    14.6600       498
    14.6800       500
    14.7000       522
    14.7200       632
    14.7400       620
    14.7600       688
    14.7800       778
    14.8000       788
    14.8200       888
    14.8400      1046
    14.8600      1128
    14.8800      1294
    14.9000      1470
    14.9200      1658
    14.9400      1816
    14.9600      2098
    14.9800      2130
    15.0000      2416
    15.0200      2456
    15.0400      2424
    15.0600      2318
    15.0800      2348
    15.1000      2292
    15.1200      2418
    15.1400      2596
    15.1600      2736
    15.1800      3024
    15.2000      3040
    15.2200      2898
    15.2400      2712
    15.2600      2242
    15.2800      1698
    15.3000      1260
    15.3200       980
    15.3400       780
    15.3600       642
    15.3800       554
    15.4000       510
    15.4200       472
    15.4400       458
    15.4600       464
    15.4800       424
    15.5000       360
    15.5200       384
    15.5400       360
    15.5600       378
    15.5800       350
    15.6000       344
    15.6200       308
    15.6400       316
    15.6600       322
    15.6800       312
    15.7000       280
    15.7200       308
    15.7400       298
    15.7600       276
    15.7800       298
    15.8000       282
    15.8200       290
    15.8400       284
    15.8600       308
    15.8800       284
    15.9000       304
    15.9200       320
    15.9400       350
    15.9600       316
    15.9800       322
    16.0000       330
    16.0200       328
    16.0400       338
    16.0600       302
    16.0800       294
    16.1000       374
    16.1200       332
    16.1400       294
    16.1600       382
    16.1800       362
    16.2000       348
    16.2200       374
    16.2400       384
    16.2600       406
    16.2800       412
    16.3000       430
    16.3200       404
    16.3400       438
    16.3600       394
    16.3800       382
    16.4000       406
    16.4200       348
    16.4400       398
    16.4600       366
    16.4800       376
    16.5000       356
    16.5200       386
    16.5400       412
    16.5600       406
    16.5800       446
    16.6000       442
    16.6200       494
    16.6400       496
    16.6600       548
    16.6800       582
    16.7000       632
    16.7200       706
    16.7400       728
    16.7600       844
    16.7800       896
    16.8000       994
    16.8200      1144
    16.8400      1268
    16.8600      1438
    16.8800      1670
    16.9000      1906
    16.9200      2230
    16.9400      2500
    16.9600      2928
    16.9800      3278
    17.0000      3774
    17.0200      4144
    17.0400      4268
    17.0600      4286
    17.0800      4052
    17.1000      3288
    17.1200      2720
    17.1400      2096
    17.1600      1562
    17.1800      1420
    17.2000      1240
    17.2200      1148
    17.2400      1142
    17.2600      1088
    17.2800      1184
    17.3000      1186
    17.3200      1292
    17.3400      1382
    17.3600      1506
    17.3800      1656
    17.4000      1774
    17.4200      1902
    17.4400      2010
    17.4600      1964
    17.4800      1776
    17.5000      1642
    17.5200      1352
    17.5400      1072
    17.5600       942
    17.5800       832
    17.6000       926
    17.6200       896
    17.6400       902
    17.6600       952
    17.6800      1102
    17.7000      1208
    17.7200      1266
    17.7400      1348
    17.7600      1468
    17.7800      1538
    17.8000      1604
    17.8200      1618
    17.8400      1558
    17.8600      1566
    17.8800      1308
    17.9000      1096
    17.9200       886
    17.9400       722
    17.9600       604
    17.9800       470
    18.0000       402
    18.0200       396
    18.0400       384
    18.0600       384
    18.0800       316
    18.1000       294
    18.1200       296
    18.1400       306
    18.1600       280
    18.1800       294
    18.2000       284
    18.2200       276
    18.2400       280
    18.2600       250
    18.2800       274
    18.3000       262
    18.3200       252
    18.3400       256
    18.3600       230
    18.3800       266
    18.4000       264
    18.4200       232
    18.4400       266
    18.4600       246
    18.4800       250
    18.5000       240
    18.5200       262
    18.5400       264
    18.5600       236
    18.5800       232
    18.6000       244
    18.6200       248
    18.6400       240
    18.6600       260
    18.6800       236
    18.7000       202
    18.7200       224
    18.7400       252
    18.7600       220
    18.7800       216
    18.8000       214
    18.8200       248
    18.8400       218
    18.8600       230
    18.8800       232
    18.9000       232
    18.9200       238
    18.9400       222
    18.9600       216
    18.9800       250
    19.0000       242
    19.0200       212
    19.0400       248
    19.0600       282
    19.0800       272
    19.1000       250
    19.1200       244
    19.1400       266
    19.1600       304
    19.1800       296
    19.2000       286
    19.2200       278
    19.2400       290
    19.2600       304
    19.2800       322
    19.3000       362
    19.3200       378
    19.3400       338
    19.3600       406
    19.3800       430
    19.4000       488
    19.4200       480
    19.4400       574
    19.4600       546
    19.4800       624
    19.5000       694
    19.5200       670
    19.5400       686
    19.5600       666
    19.5800       644
    19.6000       586
    19.6200       544
    19.6400       484
    19.6600       420
    19.6800       422
    19.7000       408
    19.7200       380
    19.7400       404
    19.7600       404
    19.7800       398
    19.8000       414
    19.8200       430
    19.8400       464
    19.8600       492
    19.8800       548
    19.9000       552
    19.9200       550
    19.9400       592
    19.9600       612
    19.9800       608
    20.0000       616
    20.0200       596
    20.0400       544
    20.0600       490
    20.0800       482
    20.1000       454
    20.1200       402
    20.1400       376
    20.1600       376
    20.1800       362
    20.2000       364
    20.2200       316
    20.2400       354
    20.2600       350
    20.2800       314
    20.3000       296
    20.3200       288
    20.3400       260
    20.3600       282
    20.3800       290
    20.4000       234
    20.4200       274
    20.4400       254
    20.4600       284
    20.4800       260
    20.5000       228
    20.5200       260
    20.5400       242
    20.5600       224
    20.5800       258
    20.6000       244
    20.6200       240
    20.6400       216
    20.6600       250
    20.6800       246
    20.7000       240
    20.7200       238
    20.7400       276
    20.7600       266
    20.7800       270
    20.8000       266
    20.8200       272
    20.8400       282
    20.8600       282
    20.8800       302
    20.9000       320
    20.9200       342
    20.9400       378
    20.9600       358
    20.9800       406
    21.0000       470
    21.0200       516
    21.0400       536
    21.0600       652
    21.0800       662
    21.1000       712
    21.1200       816
    21.1400       924
    21.1600      1004
    21.1800      1108
    21.2000      1126
    21.2200      1106
    21.2400      1036
    21.2600       934
    21.2800       788
    21.3000       670
    21.3200       584
    21.3400       520
    21.3600       456
    21.3800       382
    21.4000       376
    21.4200       316
    21.4400       316
    21.4600       300
    21.4800       232
    21.5000       292
    21.5200       282
    21.5400       274
    21.5600       274
    21.5800       238
    21.6000       234
    21.6200       228
    21.6400       214
    21.6600       214
    21.6800       210
    21.7000       224
    21.7200       228
    21.7400       226
    21.7600       238
    21.7800       220
    21.8000       248
    21.8200       212
    21.8400       218
    21.8600       226
    21.8800       244
    21.9000       224
    21.9200       226
    21.9400       232
    21.9600       206
    21.9800       212
    22.0000       218
    22.0200       228
    22.0400       216
    22.0600       240
    22.0800       226
    22.1000       214
    22.1200       200
    22.1400       222
    22.1600       222
    22.1800       226
    22.2000       200
    22.2200       216
    22.2400       228
    22.2600       240
    22.2800       238
    22.3000       258
    22.3200       252
    22.3400       262
    22.3600       230
    22.3800       250
    22.4000       240
    22.4200       266
    22.4400       224
    22.4600       264
    22.4800       280
    22.5000       314
    22.5200       268
    22.5400       322
    22.5600       316
    22.5800       306
    22.6000       360
    22.6200       338
    22.6400       344
    22.6600       434
    22.6800       416
    22.7000       502
    22.7200       476
    22.7400       574
    22.7600       652
    22.7800       720
    22.8000       768
    22.8200       850
    22.8400       860
    22.8600       914
    22.8800       872
    22.9000       764
    22.9200       710
    22.9400       654
    22.9600       542
    22.9800       490
    23.0000       404
    23.0200       382
    23.0400       332
    23.0600       320
    23.0800       286
    23.1000       292
    23.1200       280
    23.1400       304
    23.1600       260
    23.1800       268
    23.2000       262
    23.2200       242
    23.2400       262
    23.2600       268
    23.2800       266
    23.3000       244
    23.3200       268
    23.3400       262
    23.3600       244
    23.3800       264
    23.4000       236
    23.4200       274
    23.4400       236
    23.4600       220
    23.4800       242
    23.5000       226
    23.5200       236
    23.5400       224
    23.5600       238
    23.5800       230
    23.6000       232
    23.6200       238
    23.6400       254
    23.6600       226
    23.6800       226
    23.7000       234
    23.7200       236
    23.7400       268
    23.7600       258
    23.7800       210
    23.8000       254
    23.8200       274
    23.8400       254
    23.8600       228
    23.8800       254
    23.9000       238
    23.9200       220
    23.9400       256
    23.9600       248
    23.9800       278
    24.0000       256
    24.0200       254
    24.0400       282
    24.0600       252
    24.0800       266
    24.1000       300
    24.1200       300
    24.1400       296
    24.1600       304
    24.1800       322
    24.2000       346
    24.2200       340
    24.2400       386
    24.2600       422
    24.2800       456
    24.3000       450
    24.3200       570
    24.3400       550
    24.3600       596
    24.3800       590
    24.4000       610
    24.4200       724
    24.4400       766
    24.4600       838
    24.4800       842
    24.5000       980
    24.5200       946
    24.5400       958
    24.5600       928
    24.5800      1000
    24.6000       936
    24.6200       930
    24.6400       916
    24.6600       952
    24.6800       934
    24.7000      1012
    24.7200      1050
    24.7400      1064
    24.7600      1136
    24.7800      1208
    24.8000      1188
    24.8200      1228
    24.8400      1220
    24.8600      1156
    24.8800      1228
    24.9000      1318
    24.9200      1422
    24.9400      1526
    24.9600      1560
    24.9800      1598
    25.0000      1424
    25.0200      1396
    25.0400      1212
    25.0600      1132
    25.0800      1068
    25.1000       986
    25.1200       998
    25.1400      1024
    25.1600      1086
    25.1800      1162
    25.2000      1322
    25.2200      1406
    25.2400      1514
    25.2600      1744
    25.2800      1934
    25.3000      2062
    25.3200      2222
    25.3400      2122
    25.3600      2070
    25.3800      1736
    25.4000      1578
    25.4200      1304
    25.4400      1132
    25.4600       866
    25.4800       786
    25.5000       684
    25.5200       616
    25.5400       574
    25.5600       536
    25.5800       582
    25.6000       514
    25.6200       490
    25.6400       470
    25.6600       420
    25.6800       450
    25.7000       408
    25.7200       430
    25.7400       404
    25.7600       422
    25.7800       362
    25.8000       368
    25.8200       406
    25.8400       356
    25.8600       386
    25.8800       366
    25.9000       352
    25.9200       348
    25.9400       320
    25.9600       374
    25.9800       290
    26.0000       318
    26.0200       298
    26.0400       328
    26.0600       302
    26.0800       304
    26.1000       318
    26.1200       276
    26.1400       262
    26.1600       300
    26.1800       302
    26.2000       294
    26.2200       292
    26.2400       276
    26.2600       306
    26.2800       302
    26.3000       336
    26.3200       310
    26.3400       324
    26.3600       364
    26.3800       334
    26.4000       360
    26.4200       368
    26.4400       420
    26.4600       366
    26.4800       402
    26.5000       408
    26.5200       406
    26.5400       402
    26.5600       384
    26.5800       420
    26.6000       394
    26.6200       388
    26.6400       412
    26.6600       418
    26.6800       372
    26.7000       368
    26.7200       352
    26.7400       356
    26.7600       342
    26.7800       336
    26.8000       264
    26.8200       270
    26.8400       262
    26.8600       312
    26.8800       314
    26.9000       318
    26.9200       298
    26.9400       310
    26.9600       266
    26.9800       272
    27.0000       294
    27.0200       280
    27.0400       268
    27.0600       282
    27.0800       278
    27.1000       296
    27.1200       264
    27.1400       278
    27.1600       318
    27.1800       300
    27.2000       316
    27.2200       362
    27.2400       378
    27.2600       386
    27.2800       408
    27.3000       432
    27.3200       484
    27.3400       520
    27.3600       536
    27.3800       604
    27.4000       676
    27.4200       704
    27.4400       712
    27.4600       770
    27.4800       794
    27.5000       756
    27.5200       718
    27.5400       680
    27.5600       614
    27.5800       580
    27.6000       568
    27.6200       452
    27.6400       466
    27.6600       432
    27.6800       378
    27.7000       352
    27.7200       312
    27.7400       294
    27.7600       306
    27.7800       314
    27.8000       302
    27.8200       298
    27.8400       270
    27.8600       256
    27.8800       276
    27.9000       294
    27.9200       278
    27.9400       264
    27.9600       264
    27.9800       308
    28.0000       270
    28.0200       302
    28.0400       290
    28.0600       282
    28.0800       270
    28.1000       290
    28.1200       300
    28.1400       304
    28.1600       294
    28.1800       386
    28.2000       356
    28.2200       320
    28.2400       368
    28.2600       386
    28.2800       350
    28.3000       352
    28.3200       398
    28.3400       392
    28.3600       384
    28.3800       434
    28.4000       426
    28.4200       404
    28.4400       386
    28.4600       404
    28.4800       384
    28.5000       414
    28.5200       376
    28.5400       416
    28.5600       468
    28.5800       464
    28.6000       524
    28.6200       534
    28.6400       652
    28.6600       668
    28.6800       718
    28.7000       744
    28.7200       776
    28.7400       734
    28.7600       732
    28.7800       628
    28.8000       584
    28.8200       556
    28.8400       580
    28.8600       542
    28.8800       532
    28.9000       532
    28.9200       476
    28.9400       486
    28.9600       546
    28.9800       420
    29.0000       382
    29.0200       406
    29.0400       454
    29.0600       388
    29.0800       408
    29.1000       454
    29.1200       440
    29.1400       428
    29.1600       450
    29.1800       464
    29.2000       492
    29.2200       534
    29.2400       554
    29.2600       638
    29.2800       668
    29.3000       720
    29.3200       872
    29.3400      1004
    29.3600      1136
    29.3800      1268
    29.4000      1332
    29.4200      1476
    29.4400      1582
    29.4600      1652
    29.4800      1612
    29.5000      1702
    29.5200      1632
    29.5400      1748
    29.5600      1764
    29.5800      1928
    29.6000      2074
    29.6200      2164
    29.6400      2376
    29.6600      2524
    29.6800      2442
    29.7000      2464
    29.7200      2298
    29.7400      2136
    29.7600      1858
    29.7800      1702
    29.8000      1446
    29.8200      1220
    29.8400      1086
    29.8600      1006
    29.8800       962
    29.9000       986
    29.9200       946
    29.9400      1020
    29.9600      1028
    29.9800      1132
    30.0000      1236
    30.0200      1278
    30.0400      1488
    30.0600      1626
    30.0800      1862
    30.1000      2196
    30.1200      2408
    30.1400      2872
    30.1600      3060
    30.1800      3682
    30.2000      4192
    30.2200      4656
    30.2400      5224
    30.2600      5596
    30.2800      5414
    30.3000      5162
    30.3200      4754
    30.3400      4308
    30.3600      3976
    30.3800      3516
    30.4000      3378
    30.4200      3188
    30.4400      3212
    30.4600      3384
    30.4800      3626
    30.5000      4186
    30.5200      4682
    30.5400      5362
    30.5600      6286
    30.5800      7256
    30.6000      8540
    30.6200      9660
    30.6400     11100
    30.6600     12498
    30.6800     13194
    30.7000     13576
    30.7200     13148
    30.7400     12238
    30.7600     10872
    30.7800      9446
    30.8000      8126
    30.8200      6796
    30.8400      5910
    30.8600      5164
    30.8800      4686
    30.9000      4494
    30.9200      4608
    30.9400      4738
    30.9600      4980
    30.9800      4760
    31.0000      4418
    31.0200      4096
    31.0400      3506
    31.0600      3142
    31.0800      2558
    31.1000      2040
    31.1200      1708
    31.1400      1340
    31.1600      1130
    31.1800       980
    31.2000       854
    31.2200       814
    31.2400       740
    31.2600       648
    31.2800       592
    31.3000       570
    31.3200       572
    31.3400       518
    31.3600       516
    31.3800       458
    31.4000       466
    31.4200       426
    31.4400       436
    31.4600       404
    31.4800       382
    31.5000       440
    31.5200       372
    31.5400       376
    31.5600       370
    31.5800       378
    31.6000       374
    31.6200       404
    31.6400       370
    31.6600       396
    31.6800       424
    31.7000       462
    31.7200       408
    31.7400       452
    31.7600       372
    31.7800       450
    31.8000       456
    31.8200       474
    31.8400       452
    31.8600       466
    31.8800       536
    31.9000       560
    31.9200       544
    31.9400       634
    31.9600       628
    31.9800       636
    32.0000       654
    32.0200       634
    32.0400       620
    32.0600       558
    32.0800       514
    32.1000       514
    32.1200       522
    32.1400       480
    32.1600       468
    32.1800       472
    32.2000       490
    32.2200       496
    32.2400       496
    32.2600       488
    32.2800       552
    32.3000       540
    32.3200       602
    32.3400       590
    32.3600       674
    32.3800       736
    32.4000       794
    32.4200       898
    32.4400      1014
    32.4600      1112
    32.4800      1234
    32.5000      1340
    32.5200      1450
    32.5400      1482
    32.5600      1544
    32.5800      1526
    32.6000      1490
    32.6200      1380
    32.6400      1254
    32.6600      1188
    32.6800      1050
    32.7000       916
    32.7200       860
    32.7400       764
    32.7600       656
    32.7800       606
    32.8000       582
    32.8200       524
    32.8400       546
    32.8600       498
    32.8800       504
    32.9000       476
    32.9200       464
    32.9400       468
    32.9600       484
    32.9800       464
    33.0000       472
    33.0200       494
    33.0400       522
    33.0600       506
    33.0800       560
    33.1000       554
    33.1200       464
    33.1400       458
    33.1600       480
    33.1800       446
    33.2000       372
    33.2200       422
    33.2400       378
    33.2600       358
    33.2800       354
    33.3000       350
    33.3200       314
    33.3400       284
    33.3600       290
    33.3800       298
    33.4000       306
    33.4200       260
    33.4400       246
    33.4600       266
    33.4800       284
    33.5000       264
    33.5200       232
    33.5400       266
    33.5600       270
    33.5800       256
    33.6000       262
    33.6200       228
    33.6400       266
    33.6600       262
    33.6800       248
    33.7000       246
    33.7200       262
    33.7400       238
    33.7600       240
    33.7800       254
    33.8000       252
    33.8200       252
    33.8400       238
    33.8600       256
    33.8800       242
    33.9000       250
    33.9200       240
    33.9400       258
    33.9600       250
    33.9800       248
    34.0000       266
    34.0200       264
    34.0400       288
    34.0600       276
    34.0800       286
    34.1000       270
    34.1200       292
    34.1400       276
    34.1600       344
    34.1800       336
    34.2000       340
    34.2200       326
    34.2400       352
    34.2600       396
    34.2800       398
    34.3000       466
    34.3200       482
    34.3400       516
    34.3600       576
    34.3800       668
    34.4000       734
    34.4200       886
    34.4400       974
    34.4600      1062
    34.4800      1102
    34.5000      1200
    34.5200      1106
    34.5400      1104
    34.5600       962
    34.5800       876
    34.6000       752
    34.6200       726
    34.6400       658
    34.6600       522
    34.6800       500
    34.7000       434
    34.7200       386
    34.7400       410
    34.7600       366
    34.7800       364
    34.8000       380
    34.8200       360
    34.8400       380
    34.8600       358
    34.8800       374
    34.9000       326
    34.9200       340
    34.9400       338
    34.9600       314
    34.9800       288
    35.0000       288
    35.0200       284
    35.0400       274
    35.0600       326
    35.0800       292
    35.1000       272
    35.1200       294
    35.1400       318
    35.1600       314
    35.1800       328
    35.2000       316
    35.2200       320
    35.2400       338
    35.2600       398
    35.2800       394
    35.3000       410
    35.3200       432
    35.3400       416
    35.3600       390
    35.3800       368
    35.4000       362
    35.4200       360
    35.4400       328
    35.4600       350
    35.4800       316
    35.5000       304
    35.5200       334
    35.5400       326
    35.5600       298
    35.5800       276
    35.6000       338
    35.6200       348
    35.6400       292
    35.6600       328
    35.6800       332
    35.7000       326
    35.7200       362
    35.7400       360
    35.7600       342
    35.7800       368
    35.8000       388
    35.8200       426
    35.8400       450
    35.8600       488
    35.8800       502
    35.9000       540
    35.9200       556
    35.9400       614
    35.9600       666
    35.9800       680
    36.0000       756
    36.0200       826
    36.0400       948
    36.0600       998
    36.0800      1116
    36.1000      1196
    36.1200      1262
    36.1400      1214
    36.1600      1252
    36.1800      1050
    36.2000      1018
    36.2200       968
    36.2400       886
    36.2600       774
    36.2800       690
    36.3000       608
    36.3200       554
    36.3400       470
    36.3600       436
    36.3800       414
    36.4000       388
    36.4200       390
    36.4400       406
    36.4600       378
    36.4800       326
    36.5000       366
    36.5200       364
    36.5400       350
    36.5600       354
    36.5800       350
    36.6000       364
    36.6200       360
    36.6400       368
    36.6600       356
    36.6800       362
    36.7000       428
    36.7200       426
    36.7400       388
    36.7600       400
    36.7800       448
    36.8000       502
    36.8200       500
    36.8400       534
    36.8600       600
    36.8800       596
    36.9000       552
    36.9200       554
    36.9400       592
    36.9600       618
    36.9800       582
    37.0000       528
    37.0200       544
    37.0400       524
    37.0600       554
    37.0800       522
    37.1000       584
    37.1200       574
    37.1400       576
    37.1600       556
    37.1800       610
    37.2000       552
    37.2200       572
    37.2400       556
    37.2600       542
    37.2800       510
    37.3000       502
    37.3200       502
    37.3400       508
    37.3600       432
    37.3800       408
    37.4000       434
    37.4200       396
    37.4400       400
    37.4600       414
    37.4800       390
    37.5000       386
    37.5200       418
    37.5400       426
    37.5600       374
    37.5800       414
    37.6000       450
    37.6200       426
    37.6400       444
    37.6600       488
    37.6800       506
    37.7000       492
    37.7200       524
    37.7400       562
    37.7600       592
    37.7800       634
    37.8000       720
    37.8200       722
    37.8400       814
    37.8600       912
    37.8800      1040
    37.9000      1240
    37.9200      1376
    37.9400      1532
    37.9600      1682
    37.9800      1840
    38.0000      1830
    38.0200      1834
    38.0400      1700
    38.0600      1536
    38.0800      1584
    38.1000      1418
    38.1200      1302
    38.1400      1186
    38.1600      1088
    38.1800      1046
    38.2000       996
    38.2200      1008
    38.2400      1034
    38.2600      1068
    38.2800      1102
    38.3000      1186
    38.3200      1276
    38.3400      1322
    38.3600      1510
    38.3800      1672
    38.4000      1814
    38.4200      2038
    38.4400      2246
    38.4600      2500
    38.4800      2702
    38.5000      3158
    38.5200      3518
    38.5400      4084
    38.5600      4522
    38.5800      5082
    38.6000      5760
    38.6200      6294
    38.6400      6792
    38.6600      6990
    38.6800      7008
    38.7000      6434
    38.7200      5904
    38.7400      5720
    38.7600      5136
    38.7800      4558
    38.8000      3992
    38.8200      3598
    38.8400      3062
    38.8600      2650
    38.8800      2402
    38.9000      2206
    38.9200      2052
    38.9400      1908
    38.9600      1888
    38.9800      1906
    39.0000      1968
    39.0200      2202
    39.0400      2438
    39.0600      2534
    39.0800      2918
    39.1000      3048
    39.1200      3090
    39.1400      3012
    39.1600      2820
    39.1800      2622
    39.2000      2436
    39.2200      2410
    39.2400      2228
    39.2600      2024
    39.2800      1806
    39.3000      1696
    39.3200      1652
    39.3400      1612
    39.3600      1696
    39.3800      1732
    39.4000      1670
    39.4200      1732
    39.4400      1536
    39.4600      1476
    39.4800      1338
    39.5000      1346
    39.5200      1242
    39.5400      1154
    39.5600      1030
    39.5800      1036
    39.6000      1038
    39.6200       926
    39.6400      1000
    39.6600       924
    39.6800       990
    39.7000       954
    39.7200       960
    39.7400       958
    39.7600       890
    39.7800       930
    39.8000       882
    39.8200       864
    39.8400       816
    39.8600       770
    39.8800       880
    39.9000       810
    39.9200       830
    39.9400       814
    39.9600       888
    39.9800       890
    40.0000       904
    40.0200      1040
    40.0400      1118
    40.0600      1290
    40.0800      1396
    40.1000      1578
    40.1200      1790
    40.1400      1978
    40.1600      2232
    40.1800      2340
    40.2000      2410
    40.2200      2434
    40.2400      2486
    40.2600      2322
    40.2800      2186
    40.3000      1930
    40.3200      1800
    40.3400      1670
    40.3600      1564
    40.3800      1484
    40.4000      1484
    40.4200      1362
    40.4400      1510
    40.4600      1508
    40.4800      1624
    40.5000      1684
    40.5200      1800
    40.5400      1886
    40.5600      1930
    40.5800      1990
    40.6000      1896
    40.6200      1800
    40.6400      1604
    40.6600      1532
    40.6800      1524
    40.7000      1312
    40.7200      1210
    40.7400      1072
    40.7600       962
    40.7800       800
    40.8000       834
    40.8200       790
    40.8400       716
    40.8600       708
    40.8800       680
    40.9000       626
    40.9200       626
    40.9400       644
    40.9600       618
    40.9800       578
    41.0000       600
    41.0200       650
    41.0400       684
    41.0600       710
    41.0800       696
    41.1000       758
    41.1200       820
    41.1400       822
    41.1600       958
    41.1800       944
    41.2000      1096
    41.2200      1166
    41.2400      1198
    41.2600      1376
    41.2800      1338
    41.3000      1380
    41.3200      1512
    41.3400      1564
    41.3600      1664
    41.3800      1752
    41.4000      1814
    41.4200      2030
    41.4400      2240
    41.4600      2390
    41.4800      2690
    41.5000      2896
    41.5200      2862
    41.5400      2884
    41.5600      2868
    41.5800      2672
    41.6000      2422
    41.6200      2370
    41.6400      2032
    41.6600      1938
    41.6800      1736
    41.7000      1496
    41.7200      1304
    41.7400      1204
    41.7600      1012
    41.7800       990
    41.8000       932
    41.8200       852
    41.8400       832
    41.8600       838
    41.8800       838
    41.9000       738
    41.9200       756
    41.9400       722
    41.9600       686
    41.9800       666
    42.0000       658
    42.0200       582
    42.0400       588
    42.0600       592
    42.0800       554
    42.1000       496
    42.1200       508
    42.1400       498
    42.1600       462
    42.1800       412
    42.2000       460
    42.2200       430
    42.2400       466
    42.2600       440
    42.2800       416
    42.3000       416
    42.3200       380
    42.3400       418
    42.3600       418
    42.3800       418
    42.4000       430
    42.4200       454
    42.4400       394
    42.4600       394
    42.4800       426
    42.5000       416
    42.5200       402
    42.5400       418
    42.5600       378
    42.5800       358
    42.6000       360
    42.6200       390
    42.6400       356
    42.6600       418
    42.6800       350
    42.7000       376
    42.7200       376
    42.7400       388
    42.7600       376
    42.7800       402
    42.8000       400
    42.8200       402
    42.8400       388
    42.8600       374
    42.8800       388
    42.9000       406
    42.9200       424
    42.9400       452
    42.9600       396
    42.9800       464
    43.0000       470
    43.0200       494
    43.0400       518
    43.0600       508
    43.0800       550
    43.1000       634
    43.1200       644
    43.1400       692
    43.1600       732
    43.1800       760
    43.2000       812
    43.2200       860
    43.2400       790
    43.2600       808
    43.2800       822
    43.3000       736
    43.3200       732
    43.3400       736
    43.3600       584
    43.3800       622
    43.4000       534
    43.4200       532
    43.4400       502
    43.4600       472
    43.4800       464
    43.5000       398
    43.5200       434
    43.5400       436
    43.5600       392
    43.5800       378
    43.6000       452
    43.6200       380
    43.6400       434
    43.6600       398
    43.6800       446
    43.7000       450
    43.7200       408
    43.7400       462
    43.7600       490
    43.7800       482
    43.8000       524
    43.8200       540
    43.8400       534
    43.8600       520
    43.8800       520
    43.9000       486
    43.9200       496
    43.9400       518
    43.9600       494
    43.9800       484
    44.0000       468
    44.0200       472
    44.0400       438
    44.0600       482
    44.0800       452
    44.1000       506
    44.1200       490
    44.1400       486
    44.1600       550
    44.1800       592
    44.2000       684
    44.2200       654
    44.2400       708
    44.2600       758
    44.2800       838
    44.3000       864
    44.3200       938
    44.3400       956
    44.3600       912
    44.3800       890
    44.4000       858
    44.4200       860
    44.4400       748
    44.4600       776
    44.4800       670
    44.5000       648
    44.5200       582
    44.5400       602
    44.5600       556
    44.5800       542
    44.6000       524
    44.6200       528
    44.6400       506
    44.6600       534
    44.6800       502
    44.7000       572
    44.7200       538
    44.7400       616
    44.7600       628
    44.7800       618
    44.8000       636
    44.8200       700
    44.8400       702
    44.8600       764
    44.8800       852
    44.9000       936
    44.9200       942
    44.9400      1026
    44.9600      1118
    44.9800      1226
    45.0000      1330
    45.0200      1444
    45.0400      1532
    45.0600      1656
    45.0800      1776
    45.1000      1872
    45.1200      2038
    45.1400      2236
    45.1600      2430
    45.1800      2588
    45.2000      2760
    45.2200      3118
    45.2400      3134
    45.2600      3132
    45.2800      3098
    45.3000      3112
    45.3200      3034
    45.3400      2870
    45.3600      2856
    45.3800      2766
    45.4000      2662
    45.4200      2590
    45.4400      2614
    45.4600      2438
    45.4800      2304
    45.5000      2228
    45.5200      2112
    45.5400      1950
    45.5600      1830
    45.5800      1652
    45.6000      1516
    45.6200      1386
    45.6400      1320
    45.6600      1256
    45.6800      1078
    45.7000      1002
    45.7200       924
    45.7400       844
    45.7600       832
    45.7800       794
    45.8000       782
    45.8200       790
    45.8400       750
    45.8600       800
    45.8800       774
    45.9000       774
    45.9200       772
    45.9400       842
    45.9600       886
    45.9800       876
    46.0000       974
    46.0200      1124
    46.0400      1174
    46.0600      1302
    46.0800      1416
    46.1000      1560
    46.1200      1438
    46.1400      1440
    46.1600      1414
    46.1800      1330
    46.2000      1312
    46.2200      1252
    46.2400      1202
    46.2600      1222
    46.2800      1130
    46.3000      1032
    46.3200       978
    46.3400      1054
    46.3600      1008
    46.3800      1068
    46.4000      1136
    46.4200      1102
    46.4400      1288
    46.4600      1422
    46.4800      1472
    46.5000      1500
    46.5200      1742
    46.5400      1876
    46.5600      1960
    46.5800      2034
    46.6000      2284
    46.6200      2274
    46.6400      2404
    46.6600      2598
    46.6800      2764
    46.7000      2824
    46.7200      3044
    46.7400      2958
    46.7600      2928
    46.7800      2866
    46.8000      2732
    46.8200      2478
    46.8400      2290
    46.8600      2140
    46.8800      2052
    46.9000      1750
    46.9200      1518
    46.9400      1382
    46.9600      1240
    46.9800      1112
    47.0000       976
    47.0200       850
    47.0400       782
    47.0600       854
    47.0800       700
    47.1000       686
    47.1200       636
    47.1400       630
    47.1600       612
    47.1800       580
    47.2000       534
    47.2200       524
    47.2400       504
    47.2600       490
    47.2800       472
    47.3000       464
    47.3200       450
    47.3400       456
    47.3600       428
    47.3800       470
    47.4000       418
    47.4200       434
    47.4400       432
    47.4600       418
    47.4800       426
    47.5000       384
    47.5200       422
    47.5400       422
    47.5600       442
    47.5800       448
    47.6000       414
    47.6200       390
    47.6400       422
    47.6600       414
    47.6800       424
    47.7000       392
    47.7200       404
    47.7400       424
    47.7600       424
    47.7800       420
    47.8000       396
    47.8200       418
    47.8400       422
    47.8600       404
    47.8800       424
    47.9000       448
    47.9200       442
    47.9400       378
    47.9600       386
    47.9800       416
    48.0000       388
    48.0200       414
    48.0400       454
    48.0600       434
    48.0800       404
    48.1000       428
    48.1200       424
    48.1400       438
    48.1600       410
    48.1800       448
    48.2000       474
    48.2200       514
    48.2400       444
    48.2600       464
    48.2800       418
    48.3000       498
    48.3200       480
    48.3400       484
    48.3600       530
    48.3800       502
    48.4000       556
    48.4200       528
    48.4400       564
    48.4600       566
    48.4800       630
    48.5000       720
    48.5200       726
    48.5400       722
    48.5600       816
    48.5800       786
    48.6000       752
    48.6200       830
    48.6400       764
    48.6600       798
    48.6800       746
    48.7000       734
    48.7200       706
    48.7400       676
    48.7600       658
    48.7800       620
    48.8000       616
    48.8200       560
    48.8400       500
    48.8600       466
    48.8800       486
    48.9000       436
    48.9200       436
    48.9400       438
    48.9600       372
    48.9800       398
    49.0000       378
    49.0200       384
    49.0400       378
    49.0600       370
    49.0800       350
    49.1000       356
    49.1200       374
    49.1400       352
    49.1600       366
    49.1800       350
    49.2000       342
    49.2200       368
    49.2400       330
    49.2600       336
    49.2800       354
    49.3000       348
    49.3200       324
    49.3400       362
    49.3600       350
    49.3800       348
    49.4000       330
    49.4200       346
    49.4400       344
    49.4600       358
    49.4800       352
    49.5000       374
    49.5200       358
    49.5400       358
    49.5600       374
    49.5800       372
    49.6000       386
    49.6200       428
    49.6400       392
    49.6600       422
    49.6800       430
    49.7000       464
    49.7200       532
    49.7400       546
    49.7600       558
    49.7800       582
    49.8000       576
    49.8200       692
    49.8400       718
    49.8600       814
    49.8800       732
    49.9000       730
    49.9200       762
    49.9400       726
    49.9600       700
    49.9800       706
    50.0000       714
    50.0200       740
    50.0400       768
    50.0600       682
    50.0800       712
    50.1000       716
    50.1200       694
    50.1400       726
    50.1600       820
    50.1800       780
    50.2000       872
    50.2200       902
    50.2400       888
    50.2600       972
    50.2800       988
    50.3000       990
    50.3200      1008
    50.3400      1056
    50.3600      1028
    50.3800      1078
    50.4000       998
    50.4200      1092
    50.4400      1076
    50.4600      1174
    50.4800      1092
    50.5000      1160
    50.5200      1192
    50.5400      1192
    50.5600      1276
    50.5800      1356
    50.6000      1392
    50.6200      1470
    50.6400      1616
    50.6600      1768
    50.6800      2024
    50.7000      2280
    50.7200      2586
    50.7400      2872
    50.7600      3070
    50.7800      3330
    50.8000      3558
    50.8200      3704
    50.8400      3624
    50.8600      3564
    50.8800      3262
    50.9000      3254
    50.9200      3160
    50.9400      2880
    50.9600      2868
    50.9800      2738
    51.0000      2640
    51.0200      2476
    51.0400      2344
    51.0600      2230
    51.0800      2198
    51.1000      2216
    51.1200      2414
    51.1400      2534
    51.1600      2826
    51.1800      3082
    51.2000      3316
    51.2200      3368
    51.2400      3456
    51.2600      3360
    51.2800      3140
    51.3000      2806
    51.3200      2798
    51.3400      2684
    51.3600      2418
    51.3800      2324
    51.4000      2252
    51.4200      1990
    51.4400      1748
    51.4600      1590
    51.4800      1450
    51.5000      1304
    51.5200      1274
    51.5400      1196
    51.5600      1134
    51.5800      1130
    51.6000      1254
    51.6200      1224
    51.6400      1250
    51.6600      1394
    51.6800      1420
    51.7000      1548
    51.7200      1684
    51.7400      1714
    51.7600      1796
    51.7800      1836
    51.8000      1864
    51.8200      1878
    51.8400      1926
    51.8600      2056
    51.8800      2212
    51.9000      2262
    51.9200      2524
    51.9400      2690
    51.9600      3054
    51.9800      3014
    52.0000      3136
    52.0200      3212
    52.0400      3124
    52.0600      3052
    52.0800      2856
    52.1000      2662
    52.1200      2680
    52.1400      2384
    52.1600      2296
    52.1800      2016
    52.2000      1884
    52.2200      1684
    52.2400      1436
    52.2600      1346
    52.2800      1194
    52.3000      1084
    52.3200      1006
    52.3400       950
    52.3600       864
    52.3800       862
    52.4000       842
    52.4200       812
    52.4400       852
    52.4600       914
    52.4800       864
    52.5000       902
    52.5200       890
    52.5400       884
    52.5600       908
    52.5800       868
    52.6000       896
    52.6200       942
    52.6400       926
    52.6600       932
    52.6800       928
    52.7000      1048
    52.7200      1032
    52.7400      1050
    52.7600      1048
    52.7800      1052
    52.8000      1036
    52.8200       988
    52.8400       924
    52.8600       928
    52.8800       832
    52.9000       890
    52.9200       838
    52.9400       792
    52.9600       738
    52.9800       738
    53.0000       654
    53.0200       656
    53.0400       648
    53.0600       612
    53.0800       634
    53.1000       578
    53.1200       616
    53.1400       584
    53.1600       644
    53.1800       644
    53.2000       642
    53.2200       726
    53.2400       762
    53.2600       734
    53.2800       708
    53.3000       758
    53.3200       700
    53.3400       722
    53.3600       666
    53.3800       726
    53.4000       684
    53.4200       660
    53.4400       700
    53.4600       612
    53.4800       594
    53.5000       600
    53.5200       562
    53.5400       588
    53.5600       588
    53.5800       600
    53.6000       598
    53.6200       594
    53.6400       650
    53.6600       708
    53.6800       594
    53.7000       694
    53.7200       788
    53.7400       812
    53.7600       842
    53.7800       828
    53.8000       852
    53.8200       890
    53.8400       848
    53.8600       842
    53.8800       842
    53.9000       790
    53.9200       840
    53.9400       806
    53.9600       754
    53.9800       730
    54.0000       766
    54.0200       790
    54.0400       742
    54.0600       714
    54.0800       662
    54.1000       714
    54.1200       744
    54.1400       700
    54.1600       738
    54.1800       794
    54.2000       758
    54.2200       852
    54.2400       858
    54.2600       898
    54.2800       940
    54.3000       932
    54.3200       996
    54.3400      1016
    54.3600       968
    54.3800       990
    54.4000      1014
    54.4200      1084
    54.4400      1070
    54.4600      1178
    54.4800      1154
    54.5000      1192
    54.5200      1196
    54.5400      1242
    54.5600      1146
    54.5800      1130
    54.6000      1096
    54.6200      1032
    54.6400      1078
    54.6600       988
    54.6800       964
    54.7000       966
    54.7200       896
    54.7400       830
    54.7600       794
    54.7800       786
    54.8000       774
    54.8200       762
    54.8400       754
    54.8600       746
    54.8800       798
    54.9000       794
    54.9200       846
    54.9400       884
    54.9600       952
    54.9800       994
    55.0000      1052
    55.0200      1096
    55.0400      1070
    55.0600      1070
    55.0800      1030
    55.1000      1138
    55.1200      1072
    55.1400      1168
    55.1600      1096
    55.1800      1098
    55.2000      1044
    55.2200      1078
    55.2400      1040
    55.2600      1006
    55.2800       946
    55.3000       888
    55.3200       874
    55.3400       882
    55.3600       810
    55.3800       824
    55.4000       794
    55.4200       782
    55.4400       806
    55.4600       778
    55.4800       706
    55.5000       640
    55.5200       640
    55.5400       636
    55.5600       582
    55.5800       576
    55.6000       510
    55.6200       500
    55.6400       520
    55.6600       514
    55.6800       456
    55.7000       444
    55.7200       428
    55.7400       428
    55.7600       390
    55.7800       382
    55.8000       392
    55.8200       380
    55.8400       386
    55.8600       332
    55.8800       400
    55.9000       336
    55.9200       350
    55.9400       358
    55.9600       334
    55.9800       362
    56.0000       348
    56.0200       352
    56.0400       338
    56.0600       364
    56.0800       390
    56.1000       342
    56.1200       370
    56.1400       350
    56.1600       386
    56.1800       382
    56.2000       380
    56.2200       384
    56.2400       360
    56.2600       398
    56.2800       400
    56.3000       382
    56.3200       356
    56.3400       392
    56.3600       390
    56.3800       362
    56.4000       384
    56.4200       416
    56.4400       424
    56.4600       396
    56.4800       404
    56.5000       456
    56.5200       496
    56.5400       460
    56.5600       462
    56.5800       508
    56.6000       510
    56.6200       562
    56.6400       608
    56.6600       630
    56.6800       720
    56.7000       764
    56.7200       824
    56.7400       938
    56.7600       920
    56.7800       976
    56.8000       982
    56.8200      1070
    56.8400      1034
    56.8600      1018
    56.8800       880
    56.9000       946
    56.9200       842
    56.9400       848
    56.9600       780
    56.9800       774
    57.0000       752
    57.0200       702
    57.0400       664
    57.0600       654
    57.0800       584
    57.1000       554
    57.1200       534
    57.1400       508
    57.1600       516
    57.1800       508
    57.2000       494
    57.2200       514
    57.2400       508
    57.2600       528
    57.2800       508
    57.3000       482
    57.3200       546
    57.3400       496
    57.3600       554
    57.3800       552
    57.4000       586
    57.4200       536
    57.4400       560
    57.4600       560
    57.4800       564
    57.5000       552
    57.5200       562
    57.5400       546
    57.5600       520
    57.5800       542
    57.6000       490
    57.6200       530
    57.6400       524
    57.6600       488
    57.6800       482
    57.7000       552
    57.7200       514
    57.7400       516
    57.7600       560
    57.7800       520
    57.8000       546
    57.8200       510
    57.8400       512
    57.8600       532
    57.8800       512
    57.9000       486
    57.9200       510
    57.9400       466
    57.9600       464
    57.9800       484
    58.0000       464
    58.0200       488
    58.0400       452
    58.0600       460
    58.0800       450
    58.1000       476
    58.1200       426
    58.1400       508
    58.1600       496
    58.1800       444
    58.2000       498
    58.2200       470
    58.2400       512
    58.2600       476
    58.2800       492
    58.3000       536
    58.3200       534
    58.3400       534
    58.3600       534
    58.3800       560
    58.4000       546
    58.4200       630
    58.4400       614
    58.4600       636
    58.4800       680
    58.5000       602
    58.5200       666
    58.5400       728
    58.5600       698
    58.5800       772
    58.6000       784
    58.6200       834
    58.6400       848
    58.6600       840
    58.6800       896
    58.7000       908
    58.7200       940
    58.7400       970
    58.7600       926
    58.7800       922
    58.8000       958
    58.8200       874
    58.8400       878
    58.8600       920
    58.8800       960
    58.9000       886
    58.9200       942
    58.9400       882
    58.9600       870
    58.9800       924
    59.0000       878
    59.0200       932
    59.0400       912
    59.0600       908
    59.0800       980
    59.1000       976
    59.1200      1044
    59.1400      1018
    59.1600      1004
    59.1800      1140
    59.2000      1182
    59.2200      1232
    59.2400      1342
    59.2600      1446
    59.2800      1602
    59.3000      1746
    59.3200      1928
    59.3400      2092
    59.3600      2260
    59.3800      2494
    59.4000      2644
    59.4200      2960
    59.4400      2980
    59.4600      2920
    59.4800      2912
    59.5000      2810
    59.5200      2812
    59.5400      2694
    59.5600      2548
    59.5800      2418
    59.6000      2348
    59.6200      2306
    59.6400      2156
    59.6600      2092
    59.6800      2054
    59.7000      1836
    59.7200      1730
    59.7400      1702
    59.7600      1602
    59.7800      1734
    59.8000      1886
    59.8200      1854
    59.8400      1972
    59.8600      1926
    59.8800      2028
    59.9000      1880
    59.9200      1892
    59.9400      1660
    59.9600      1572
    59.9800      1458
    60.0000      1408
    60.0200      1392
    60.0400      1308
    60.0600      1254
    60.0800      1158
    60.1000      1044
    60.1200       970
    60.1400       856
    60.1600       802
    60.1800       744
    60.2000       690
    60.2200       702
    60.2400       622
    60.2600       606
    60.2800       612
    60.3000       568
    60.3200       586
    60.3400       568
    60.3600       546
    60.3800       550
    60.4000       500
    60.4200       470
    60.4400       518
    60.4600       506
    60.4800       478
    60.5000       516
    60.5200       540
    60.5400       514
    60.5600       600
    60.5800       590
    60.6000       566
    60.6200       642
    60.6400       698
    60.6600       686
    60.6800       656
    60.7000       678
    60.7200       618
    60.7400       622
    60.7600       654
    60.7800       642
    60.8000       632
    60.8200       676
    60.8400       672
    60.8600       686
    60.8800       676
    60.9000       742
    60.9200       772
    60.9400       816
    60.9600       912
    60.9800       958
    61.0000      1046
    61.0200      1102
    61.0400      1202
    61.0600      1172
    61.0800      1284
    61.1000      1360
    61.1200      1360
    61.1400      1312
    61.1600      1278
    61.1800      1316
    61.2000      1214
    61.2200      1232
    61.2400      1280
    61.2600      1190
    61.2800      1304
    61.3000      1246
    61.3200      1270
    61.3400      1250
    61.3600      1280
    61.3800      1298
    61.4000      1330
    61.4200      1436
    61.4400      1378
    61.4600      1606
    61.4800      1660
    61.5000      1732
    61.5200      1846
    61.5400      1902
    61.5600      2102
    61.5800      2246
    61.6000      2336
    61.6200      2380
    61.6400      2364
    61.6600      2360
    61.6800      2218
    61.7000      2120
    61.7200      1956
    61.7400      1976
    61.7600      1972
    61.7800      1784
    61.8000      1650
    61.8200      1508
    61.8400      1434
    61.8600      1366
    61.8800      1174
    61.9000      1124
    61.9200       962
    61.9400       880
    61.9600       808
    61.9800       732
    62.0000       706
    62.0200       662
    62.0400       642
    62.0600       614
    62.0800       578
    62.1000       548
    62.1200       530
    62.1400       492
    62.1600       468
    62.1800       446
    62.2000       452
    62.2200       478
    62.2400       428
    62.2600       410
    62.2800       420
    62.3000       414
    62.3200       384
    62.3400       420
    62.3600       404
    62.3800       364
    62.4000       406
    62.4200       342
    62.4400       370
    62.4600       392
    62.4800       378
    62.5000       360
    62.5200       330
    62.5400       360
    62.5600       358
    62.5800       366
    62.6000       380
    62.6200       346
    62.6400       356
    62.6600       386
    62.6800       374
    62.7000       386
    62.7200       380
    62.7400       408
    62.7600       370
    62.7800       374
    62.8000       418
    62.8200       402
    62.8400       442
    62.8600       464
    62.8800       438
    62.9000       460
    62.9200       458
    62.9400       496
    62.9600       474
    62.9800       482
    63.0000       530
    63.0200       396
    63.0400       412
    63.0600       430
    63.0800       390
    63.1000       410
    63.1200       440
    63.1400       400
    63.1600       388
    63.1800       364
    63.2000       368
    63.2200       366
    63.2400       324
    63.2600       352
    63.2800       356
    63.3000       290
    63.3200       344
    63.3400       302
    63.3600       350
    63.3800       338
    63.4000       308
    63.4200       310
    63.4400       340
    63.4600       352
    63.4800       342
    63.5000       344
    63.5200       360
    63.5400       344
    63.5600       408
    63.5800       402
    63.6000       416
    63.6200       450
    63.6400       450
    63.6600       500
    63.6800       498
    63.7000       570
    63.7200       600
    63.7400       632
    63.7600       676
    63.7800       738
    63.8000       774
    63.8200       832
    63.8400       872
    63.8600       966
    63.8800       938
    63.9000      1076
    63.9200      1060
    63.9400      1126
    63.9600      1064
    63.9800      1028
    64.0000      1026
    64.0200       964
    64.0400       938
    64.0600       882
    64.0800       894
    64.1000       834
    64.1200       832
    64.1400       774
    64.1600       718
    64.1800       696
    64.2000       594
    64.2200       586
    64.2400       546
    64.2600       514
    64.2800       498
    64.3000       436
    64.3200       450
    64.3400       456
    64.3600       482
    64.3800       456
    64.4000       460
    64.4200       458
    64.4400       468
    64.4600       488
    64.4800       512
    64.5000       526
    64.5200       548
    64.5400       564
    64.5600       534
    64.5800       562
    64.6000       542
    64.6200       566
    64.6400       492
    64.6600       474
    64.6800       422
    64.7000       438
    64.7200       458
    64.7400       466
    64.7600       406
    64.7800       418
    64.8000       452
    64.8200       390
    64.8400       350
    64.8600       360
    64.8800       352
    64.9000       306
    64.9200       328
    64.9400       306
    64.9600       324
    64.9800       356
    65.0000       342
    65.0200       320
    65.0400       372
    65.0600       346
    65.0800       382
    65.1000       364
    65.1200       358
    65.1400       376
    65.1600       432
    65.1800       396
    65.2000       392
    65.2200       400
    65.2400       428
    65.2600       400
    65.2800       412
    65.3000       410
    65.3200       380
    65.3400       368
    65.3600       392
    65.3800       396
    65.4000       378
    65.4200       414
    65.4400       414
    65.4600       382
    65.4800       380
    65.5000       374
    65.5200       376
    65.5400       418
    65.5600       408
    65.5800       404
    65.6000       402
    65.6200       452
    65.6400       432
    65.6600       416
    65.6800       434
    65.7000       424
    65.7200       406
    65.7400       414
    65.7600       386
    65.7800       394
    65.8000       402
    65.8200       396
    65.8400       460
    65.8600       442
    65.8800       414
    65.9000       444
    65.9200       432
    65.9400       424
    65.9600       404
    65.9800       386
    66.0000       384
    66.0200       370
    66.0400       356
    66.0600       398
    66.0800       380
    66.1000       366
    66.1200       388
    66.1400       336
    66.1600       308
    66.1800       324
    66.2000       344
    66.2200       340
    66.2400       328
    66.2600       324
    66.2800       316
    66.3000       344
    66.3200       340
    66.3400       378
    66.3600       380
    66.3800       384
    66.4000       406
    66.4200       374
    66.4400       402
    66.4600       390
    66.4800       440
    66.5000       452
    66.5200       388
    66.5400       514
    66.5600       470
    66.5800       486
    66.6000       514
    66.6200       508
    66.6400       532
    66.6600       526
    66.6800       558
    66.7000       564
    66.7200       590
    66.7400       620
    66.7600       606
    66.7800       610
    66.8000       636
    66.8200       630
    66.8400       652
    66.8600       674
    66.8800       728
    66.9000       760
    66.9200       730
    66.9400       708
    66.9600       778
    66.9800       746
    67.0000       788
    67.0200       766
    67.0400       782
    67.0600       750
    67.0800       770
    67.1000       708
    67.1200       790
    67.1400       710
    67.1600       688
    67.1800       640
    67.2000       638
    67.2200       568
    67.2400       580
    67.2600       556
    67.2800       544
    67.3000       442
    67.3200       468
    67.3400       486
    67.3600       416
    67.3800       428
    67.4000       420
    67.4200       444
    67.4400       422
    67.4600       378
    67.4800       390
    67.5000       374
    67.5200       360
    67.5400       360
    67.5600       344
    67.5800       392
    67.6000       344
    67.6200       328
    67.6400       322
    67.6600       360
    67.6800       328
    67.7000       342
    67.7200       326
    67.7400       324
    67.7600       348
    67.7800       320
    67.8000       306
    67.8200       334
    67.8400       312
    67.8600       302
    67.8800       332
    67.9000       312
    67.9200       312
    67.9400       334
    67.9600       352
    67.9800       338
    68.0000       356
    68.0200       350
    68.0400       394
    68.0600       410
    68.0800       380
    68.1000       400
    68.1200       378
    68.1400       412
    68.1600       394
    68.1800       422
    68.2000       390
    68.2200       452
    68.2400       390
    68.2600       380
    68.2800       412
    68.3000       430
    68.3200       422
    68.3400       432
    68.3600       414
    68.3800       404
    68.4000       398
    68.4200       420
    68.4400       400
    68.4600       404
    68.4800       364
    68.5000       426
    68.5200       386
    68.5400       416
    68.5600       416
    68.5800       452
    68.6000       402
    68.6200       400
    68.6400       428
    68.6600       444
    68.6800       420
    68.7000       440
    68.7200       400
    68.7400       430
    68.7600       376
    68.7800       342
    68.8000       412
    68.8200       376
    68.8400       380
    68.8600       410
    68.8800       404
    68.9000       416
    68.9200       390
    68.9400       400
    68.9600       350
    68.9800       390
    69.0000       370
    69.0200       386
    69.0400       408
    69.0600       414
    69.0800       444
    69.1000       430
    69.1200       430
    69.1400       454
    69.1600       460
    69.1800       472
    69.2000       472
    69.2200       464
    69.2400       438
    69.2600       448
    69.2800       456
    69.3000       424
    69.3200       448
    69.3400       438
    69.3600       458
    69.3800       432
    69.4000       442
    69.4200       402
    69.4400       378
    69.4600       408
    69.4800       394
    69.5000       376
    69.5200       404
    69.5400       398
    69.5600       352
    69.5800       382
    69.6000       370
    69.6200       354
    69.6400       376
    69.6600       406
    69.6800       378
    69.7000       396
    69.7200       410
    69.7400       400
    69.7600       428
    69.7800       420
    69.8000       446
    69.8200       466
    69.8400       518
    69.8600       494
    69.8800       498
    69.9000       560
    69.9200       590
    69.9400       562
    69.9600       572
    69.9800       588
    70.0000       568
    70.0200       552
    70.0400       548
    70.0600       544
    70.0800       562
    70.1000       546
    70.1200       532
    70.1400       520
    70.1600       560
    70.1800       538
    70.2000       546
    70.2200       574
    70.2400       576
    70.2600       522
    70.2800       512
    70.3000       538
    70.3200       514
    70.3400       524
    70.3600       482
    70.3800       470
    70.4000       434
    70.4200       482
    70.4400       432
    70.4600       448
    70.4800       396
    70.5000       440
    70.5200       376
    70.5400       420
    70.5600       354
    70.5800       356
    70.6000       372
    70.6200       346
    70.6400       310
    70.6600       304
    70.6800       290
    70.7000       310
    70.7200       304
    70.7400       262
    70.7600       256
    70.7800       240
    70.8000       248
    70.8200       268
    70.8400       244
    70.8600       244
    70.8800       254
    70.9000       254
    70.9200       218
    70.9400       250
    70.9600       266
    70.9800       272
    71.0000       252
    71.0200       236
    71.0400       266
    71.0600       248
    71.0800       248
    71.1000       286
    71.1200       262
    71.1400       248
    71.1600       246
    71.1800       288
    71.2000       260
    71.2200       252
    71.2400       296
    71.2600       262
    71.2800       272
    71.3000       270
    71.3200       290
    71.3400       256
    71.3600       270
    71.3800       288
    71.4000       316
    71.4200       300
    71.4400       312
    71.4600       306
    71.4800       310
    71.5000       322
    71.5200       324
    71.5400       320
    71.5600       340
    71.5800       324
    71.6000       294
    71.6200       294
    71.6400       352
    71.6600       332
    71.6800       316
    71.7000       314
    71.7200       302
    71.7400       336
    71.7600       322
    71.7800       280
    71.8000       302
    71.8200       310
    71.8400       268
    71.8600       276
    71.8800       294
    71.9000       280
    71.9200       270
    71.9400       326
    71.9600       308
    71.9800       292
    72.0000       320
    72.0200       318
    72.0400       276
    72.0600       288
    72.0800       298
    72.1000       284
    72.1200       296
    72.1400       280
    72.1600       300
    72.1800       292
    72.2000       300
    72.2200       288
    72.2400       324
    72.2600       324
    72.2800       328
    72.3000       292
    72.3200       358
    72.3400       324
    72.3600       374
    72.3800       390
    72.4000       404
    72.4200       408
    72.4400       424
    72.4600       428
    72.4800       446
    72.5000       458
    72.5200       492
    72.5400       486
    72.5600       480
    72.5800       510
    72.6000       566
    72.6200       592
    72.6400       610
    72.6600       646
    72.6800       694
    72.7000       724
    72.7200       728
    72.7400       688
    72.7600       780
    72.7800       752
    72.8000       722
    72.8200       714
    72.8400       654
    72.8600       670
    72.8800       648
    72.9000       682
    72.9200       662
    72.9400       672
    72.9600       676
    72.9800       618
    73.0000       602
    73.0200       656
    73.0400       606
    73.0600       566
    73.0800       552
    73.1000       490
    73.1200       468
    73.1400       480
    73.1600       444
    73.1800       432
    73.2000       406
    73.2200       404
    73.2400       404
    73.2600       398
    73.2800       374
    73.3000       340
    73.3200       354
    73.3400       318
    73.3600       288
    73.3800       290
    73.4000       304
    73.4200       284
    73.4400       270
    73.4600       262
    73.4800       284
    73.5000       250
    73.5200       256
    73.5400       296
    73.5600       264
    73.5800       266
    73.6000       222
    73.6200       238
    73.6400       252
    73.6600       222
    73.6800       210
    73.7000       242
    73.7200       254
    73.7400       258
    73.7600       258
    73.7800       254
    73.8000       248
    73.8200       250
    73.8400       238
    73.8600       256
    73.8800       220
    73.9000       262
    73.9200       250
    73.9400       254
    73.9600       236
    73.9800       238
    74.0000       234
    74.0200       260
    74.0400       228
    74.0600       220
    74.0800       226
    74.1000       228
    74.1200       246
    74.1400       276
    74.1600       262
    74.1800       232
    74.2000       248
    74.2200       280
    74.2400       250
    74.2600       242
    74.2800       256
    74.3000       252
    74.3200       224
    74.3400       226
    74.3600       236
    74.3800       236
    74.4000       262
    74.4200       270
    74.4400       226
    74.4600       242
    74.4800       228
    74.5000       202
    74.5200       268
    74.5400       222
    74.5600       284
    74.5800       266
    74.6000       288
    74.6200       290
    74.6400       292
    74.6600       312
    74.6800       324
    74.7000       324
    74.7200       342
    74.7400       320
    74.7600       302
    74.7800       302
    74.8000       278
    74.8200       278
    74.8400       252
    74.8600       318
    74.8800       272
    74.9000       272
    74.9200       276
    74.9400       296
    74.9600       282
    74.9800       268
    75.0000       292
    75.0200       278
    75.0400       226
    75.0600       264
    75.0800       254
    75.1000       282
    75.1200       248
    75.1400       264
    75.1600       248
    75.1800       248
    75.2000       280
    75.2200       274
    75.2400       266
    75.2600       228
    75.2800       248
    75.3000       264
    75.3200       268
    75.3400       264
    75.3600       230
    75.3800       278
    75.4000       242
    75.4200       310
    75.4400       310
    75.4600       292
    75.4800       298
    75.5000       284
    75.5200       290
    75.5400       304
    75.5600       304
    75.5800       344
    75.6000       352
    75.6200       312
    75.6400       340
    75.6600       330
    75.6800       318
    75.7000       354
    75.7200       366
    75.7400       312
    75.7600       358
    75.7800       336
    75.8000       384
    75.8200       408
    75.8400       372
    75.8600       386
    75.8800       370
    75.9000       404
    75.9200       338
    75.9400       422
    75.9600       402
    75.9800       384
    76.0000       378
    76.0200       380
    76.0400       420
    76.0600       418
    76.0800       434
    76.1000       426
    76.1200       414
    76.1400       382
    76.1600       398
    76.1800       384
    76.2000       372
    76.2200       370
    76.2400       348
    76.2600       344
    76.2800       396
    76.3000       396
    76.3200       358
    76.3400       330
    76.3600       320
    76.3800       360
    76.4000       350
    76.4200       378
    76.4400       332
    76.4600       386
    76.4800       344
    76.5000       382
    76.5200       390
    76.5400       406
    76.5600       420
    76.5800       454
    76.6000       420
    76.6200       474
    76.6400       444
    76.6600       454
    76.6800       466
    76.7000       460
    76.7200       456
    76.7400       446
    76.7600       464
    76.7800       428
    76.8000       406
    76.8200       428
    76.8400       404
    76.8600       422
    76.8800       408
    76.9000       450
    76.9200       396
    76.9400       384
    76.9600       386
    76.9800       422
    77.0000       380
    77.0200       398
    77.0400       350
    77.0600       354
    77.0800       338
    77.1000       376
    77.1200       314
    77.1400       344
    77.1600       394
    77.1800       402
    77.2000       420
    77.2200       402
    77.2400       364
    77.2600       408
    77.2800       424
    77.3000       432
    77.3200       406
    77.3400       404
    77.3600       432
    77.3800       442
    77.4000       404
    77.4200       408
    77.4400       440
    77.4600       446
    77.4800       460
    77.5000       420
    77.5200       446
    77.5400       382
    77.5600       432
    77.5800       440
    77.6000       426
    77.6200       414
    77.6400       430
    77.6600       430
    77.6800       402
    77.7000       390
    77.7200       388
    77.7400       410
    77.7600       330
    77.7800       408
    77.8000       358
    77.8200       408
    77.8400       360
    77.8600       350
    77.8800       390
    77.9000       360
    77.9200       330
    77.9400       324
    77.9600       342
    77.9800       342
    78.0000       336
    78.0200       290
    78.0400       320
    78.0600       320
    78.0800       320
    78.1000       296
    78.1200       320
    78.1400       298
    78.1600       328
    78.1800       314
    78.2000       326
    78.2200       274
    78.2400       296
    78.2600       298
    78.2800       310
    78.3000       298
    78.3200       318
    78.3400       306
    78.3600       272
    78.3800       324
    78.4000       344
    78.4200       318
    78.4400       292
    78.4600       350
    78.4800       346
    78.5000       316
    78.5200       324
    78.5400       324
    78.5600       338
    78.5800       364
    78.6000       360
    78.6200       374
    78.6400       396
    78.6600       402
    78.6800       390
    78.7000       410
    78.7200       420
    78.7400       434
    78.7600       432
    78.7800       400
    78.8000       422
    78.8200       394
    78.8400       402
    78.8600       406
    78.8800       438
    78.9000       448
    78.9200       378
    78.9400       384
    78.9600       426
    78.9800       380
    79.0000       370
    79.0200       378
    79.0400       326
    79.0600       360
    79.0800       354
    79.1000       326
    79.1200       304
    79.1400       306
    79.1600       306
    79.1800       302
    79.2000       322
    79.2200       308
    79.2400       294
    79.2600       304
    79.2800       310
    79.3000       304
    79.3200       272
    79.3400       272
    79.3600       270
    79.3800       262
    79.4000       260
    79.4200       262
    79.4400       256
    79.4600       244
    79.4800       260
    79.5000       254
    79.5200       268
    79.5400       230
    79.5600       258
    79.5800       252
    79.6000       252
    79.6200       238
    79.6400       238
    79.6600       246
    79.6800       276
    79.7000       254
    79.7200       214
    79.7400       256
    79.7600       258
    79.7800       220
    79.8000       238
    79.8200       232
    79.8400       262
    79.8600       234
    79.8800       226
    79.9000       236
    79.9200       272
    79.9400       244
    79.9600       248
    79.9800       240
    80.0000       252
    80.0200       260
    80.0400       270
    80.0600       276
    80.0800       232
    80.1000       262
    80.1200       266
    80.1400       272
    80.1600       260
    80.1800       250
    80.2000       250
    80.2200       244
    80.2400       244
    80.2600       246
    80.2800       250
    80.3000       258
    80.3200       272
    80.3400       252
    80.3600       258
    80.3800       274
    80.4000       262
    80.4200       258
    80.4400       276
    80.4600       288
    80.4800       240
    80.5000       244
    80.5200       262
    80.5400       222
    80.5600       232
    80.5800       224
    80.6000       240
    80.6200       230
    80.6400       244
    80.6600       258
    80.6800       238
    80.7000       232
    80.7200       238
    80.7400       240
    80.7600       236
    80.7800       220
    80.8000       264
    80.8200       252
    80.8400       264
    80.8600       254
    80.8800       218
    80.9000       234
    80.9200       234
    80.9400       206
    80.9600       242
    80.9800       228
    81.0000       234
    81.0200       254
    81.0400       236
    81.0600       254
    81.0800       244
    81.1000       262
    81.1200       254
    81.1400       276
    81.1600       268
    81.1800       284
    81.2000       266
    81.2200       248
    81.2400       322
    81.2600       310
    81.2800       304
    81.3000       278
    81.3200       258
    81.3400       284
    81.3600       266
    81.3800       268
    81.4000       280
    81.4200       260
    81.4400       254
    81.4600       316
    81.4800       300
    81.5000       272
    81.5200       290
    81.5400       286
    81.5600       296
    81.5800       274
    81.6000       316
    81.6200       290
    81.6400       300
    81.6600       320
    81.6800       298
    81.7000       312
    81.7200       352
    81.7400       316
    81.7600       322
    81.7800       334
    81.8000       360
    81.8200       334
    81.8400       328
    81.8600       304
    81.8800       314
    81.9000       302
    81.9200       354
    81.9400       362
    81.9600       322
    81.9800       330
    82.0000       310
    82.0200       350
    82.0400       356
    82.0600       362
    82.0800       348
    82.1000       330
    82.1200       396
    82.1400       380
    82.1600       358
    82.1800       374
    82.2000       368
    82.2200       376
    82.2400       390
    82.2600       330
    82.2800       396
    82.3000       406
    82.3200       446
    82.3400       430
    82.3600       386
    82.3800       440
    82.4000       448
    82.4200       418
    82.4400       432
    82.4600       436
    82.4800       476
    82.5000       470
    82.5200       510
    82.5400       516
    82.5600       516
    82.5800       462
    82.6000       554
    82.6200       570
    82.6400       558
    82.6600       656
    82.6800       656
    82.7000       718
    82.7200       698
    82.7400       726
    82.7600       760
    82.7800       940
    82.8000       850
    82.8200       908
    82.8400       936
    82.8600      1082
    82.8800      1092
    82.9000      1116
    82.9200      1102
    82.9400      1134
    82.9600      1072
    82.9800      1140
    83.0000      1102
    83.0200      1046
    83.0400      1016
    83.0600      1006
    83.0800       990
    83.1000       970
    83.1200       910
    83.1400       906
    83.1600       836
    83.1800       866
    83.2000       848
    83.2200       876
    83.2400       818
    83.2600       768
    83.2800       688
    83.3000       674
    83.3200       670
    83.3400       602
    83.3600       648
    83.3800       560
    83.4000       560
    83.4200       512
    83.4400       482
    83.4600       486
    83.4800       454
    83.5000       436
    83.5200       446
    83.5400       424
    83.5600       440
    83.5800       406
    83.6000       438
    83.6200       434
    83.6400       418
    83.6600       378
    83.6800       396
    83.7000       384
    83.7200       396
    83.7400       376
    83.7600       358
    83.7800       366
    83.8000       402
    83.8200       404
    83.8400       414
    83.8600       436
    83.8800       480
    83.9000       444
    83.9200       470
    83.9400       558
    83.9600       550
    83.9800       574
    84.0000       588
    84.0200       588
    84.0400       638
    84.0600       604
    84.0800       672
    84.1000       646
    84.1200       648
    84.1400       558
    84.1600       558
    84.1800       536
    84.2000       524
    84.2200       520
    84.2400       520
    84.2600       526
    84.2800       518
    84.3000       568
    84.3200       590
    84.3400       530
    84.3600       486
    84.3800       468
    84.4000       454
    84.4200       482
    84.4400       498
    84.4600       452
    84.4800       432
    84.5000       514
    84.5200       488
    84.5400       404
    84.5600       466
    84.5800       444
    84.6000       430
    84.6200       392
    84.6400       380
    84.6600       372
    84.6800       370
    84.7000       376
    84.7200       380
    84.7400       412
    84.7600       352
    84.7800       360
    84.8000       356
    84.8200       336
    84.8400       356
    84.8600       346
    84.8800       348
    84.9000       336
    84.9200       336
    84.9400       352
    84.9600       324
    84.9800       352
    85.0000       310
    85.0200       284
    85.0400       340
    85.0600       326
    85.0800       314
    85.1000       326
    85.1200       312
    85.1400       318
    85.1600       316
    85.1800       334
    85.2000       300
    85.2200       302
    85.2400       314
    85.2600       326
    85.2800       322
    85.3000       304
    85.3200       302
    85.3400       278
    85.3600       290
    85.3800       312
    85.4000       284
    85.4200       290
    85.4400       306
    85.4600       286
    85.4800       262
    85.5000       292
    85.5200       292
    85.5400       314
    85.5600       294
    85.5800       280
    85.6000       276
    85.6200       294
    85.6400       298
    85.6600       288
    85.6800       274
    85.7000       298
    85.7200       276
    85.7400       330
    85.7600       300
    85.7800       302
    85.8000       316
    85.8200       322
    85.8400       326
    85.8600       306
    85.8800       286
    85.9000       278
    85.9200       324
    85.9400       274
    85.9600       292
    85.9800       278
    86.0000       336
    86.0200       304
    86.0400       306
    86.0600       320
    86.0800       276
    86.1000       302
    86.1200       270
    86.1400       288
    86.1600       268
    86.1800       314
    86.2000       282
    86.2200       338
    86.2400       278
    86.2600       282
    86.2800       298
    86.3000       294
    86.3200       282
    86.3400       304
    86.3600       250
    86.3800       314
    86.4000       332
    86.4200       308
    86.4400       316
    86.4600       272
    86.4800       308
    86.5000       308
    86.5200       310
    86.5400       320
    86.5600       326
    86.5800       322
    86.6000       370
    86.6200       394
    86.6400       364
    86.6600       356
    86.6800       376
    86.7000       460
    86.7200       422
    86.7400       466
    86.7600       484
    86.7800       468
    86.8000       510
    86.8200       514
    86.8400       548
    86.8600       506
    86.8800       524
    86.9000       536
    86.9200       564
    86.9400       578
    86.9600       530
    86.9800       550
    87.0000       518
    87.0200       462
    87.0400       538
    87.0600       476
    87.0800       502
    87.1000       470
    87.1200       470
    87.1400       488
    87.1600       482
    87.1800       436
    87.2000       464
    87.2200       448
    87.2400       408
    87.2600       378
    87.2800       400
    87.3000       424
    87.3200       418
    87.3400       364
    87.3600       384
    87.3800       360
    87.4000       348
    87.4200       366
    87.4400       334
    87.4600       370
    87.4800       358
    87.5000       324
    87.5200       384
    87.5400       350
    87.5600       344
    87.5800       368
    87.6000       410
    87.6200       386
    87.6400       414
    87.6600       440
    87.6800       440
    87.7000       464
    87.7200       426
    87.7400       504
    87.7600       506
    87.7800       538
    87.8000       524
    87.8200       534
    87.8400       540
    87.8600       518
    87.8800       538
    87.9000       504
    87.9200       540
    87.9400       482
    87.9600       494
    87.9800       440
    88.0000       448
    88.0200       460
    88.0400       458
    88.0600       428
    88.0800       436
    88.1000       434
    88.1200       420
    88.1400       398
    88.1600       390
    88.1800       368
    88.2000       402
    88.2200       372
    88.2400       376
    88.2600       360
    88.2800       334
    88.3000       366
    88.3200       386
    88.3400       336
    88.3600       324
    88.3800       334
    88.4000       310
    88.4200       322
    88.4400       328
    88.4600       326
    88.4800       316
    88.5000       312
    88.5200       330
    88.5400       304
    88.5600       290
    88.5800       256
    88.6000       292
    88.6200       324
    88.6400       306
    88.6600       288
    88.6800       264
    88.7000       308
    88.7200       258
    88.7400       246
    88.7600       312
    88.7800       288
    88.8000       266
    88.8200       276
    88.8400       280
    88.8600       270
    88.8800       274
    88.9000       274
    88.9200       248
    88.9400       288
    88.9600       284
    88.9800       268
    89.0000       272
    89.0200       302
    89.0400       288
    89.0600       322
    89.0800       266
    89.1000       298
    89.1200       298
    89.1400       284
    89.1600       290
    89.1800       288
    89.2000       266
    89.2200       272
    89.2400       252
    89.2600       290
    89.2800       278
    89.3000       280
    89.3200       270
    89.3400       272
    89.3600       306
    89.3800       310
    89.4000       306
    89.4200       294
    89.4400       276
    89.4600       244
    89.4800       286
    89.5000       272
    89.5200       278
    89.5400       262
    89.5600       310
    89.5800       308
    89.6000       276
    89.6200       288
    89.6400       290
    89.6600       308
    89.6800       278
    89.7000       286
    89.7200       310
    89.7400       336
    89.7600       326
    89.7800       328
    89.8000       344
    89.8200       328
    89.8400       364
    89.8600       314
    89.8800       292
    89.9000       308
    89.9200       308
    89.9400       320
    89.9600       278
    89.9800       272
    90.0000       308
