    10.0000       384
    10.0200       366
    10.0400       410
    10.0600       424
    10.0800       406
    10.1000       390
    10.1200       402
    10.1400       408
    10.1600       382
    10.1800       348
    10.2000       346
    10.2200       340
    10.2400       366
    10.2600       338
    10.2800       350
    10.3000       352
    10.3200       354
    10.3400       384
    10.3600       352
    10.3800       364
    10.4000       338
    10.4200       346
    10.4400       372
    10.4600       340
    10.4800       370
    10.5000       348
    10.5200       338
    10.5400       322
    10.5600       368
    10.5800       352
    10.6000       326
    10.6200       346
    10.6400       336
    10.6600       374
    10.6800       342
    10.7000       346
    10.7200       366
    10.7400       342
    10.7600       344
    10.7800       360
    10.8000       346
    10.8200       340
    10.8400       370
    10.8600       346
    10.8800       358
    10.9000       362
    10.9200       340
    10.9400       378
    10.9600       340
    10.9800       334
    11.0000       332
    11.0200       328
    11.0400       342
    11.0600       354
    11.0800       324
    11.1000       310
    11.1200       310
    11.1400       304
    11.1600       310
    11.1800       350
    11.2000       350
    11.2200       322
    11.2400       306
    11.2600       364
    11.2800       368
    11.3000       348
    11.3200       316
    11.3400       334
    11.3600       350
    11.3800       282
    11.4000       346
    11.4200       324
    11.4400       362
    11.4600       336
    11.4800       326
    11.5000       316
    11.5200       322
    11.5400       354
    11.5600       348
    11.5800       360
    11.6000       314
    11.6200       334
    11.6400       334
    11.6600       344
    11.6800       320
    11.7000       386
    11.7200       326
    11.7400       374
    11.7600       372
    11.7800       376
    11.8000       352
    11.8200       380
    11.8400       390
    11.8600       342
    11.8800       410
    11.9000       426
    11.9200       452
    11.9400       436
    11.9600       430
    11.9800       438
    12.0000       468
    12.0200       504
    12.0400       538
    12.0600       540
    12.0800       594
    12.1000       660
    12.1200       748
    12.1400       750
    12.1600       876
    12.1800       834
    12.2000       836
    12.2200       836
    12.2400       814
    12.2600       656
    12.2800       586
    12.3000       530
    12.3200       432
    12.3400       404
    12.3600       340
    12.3800       364
    12.4000       340
    12.4200       342
    12.4400       344
    12.4600       322
    12.4800       302
    12.5000       324
    12.5200       356
    12.5400       290
    12.5600       308
    12.5800       340
    12.6000       320
    12.6200       310
    12.6400       302
    12.6600       310
    12.6800       330
    12.7000       320
    12.7200       308
    12.7400       292
    12.7600       286
    12.7800       270
    12.8000       282
    12.8200       296
    12.8400       326
    12.8600       276
    12.8800       292
    12.9000       320
    12.9200       282
    12.9400       294
    12.9600       284
    12.9800       302
    13.0000       316
    13.0200       306
    13.0400       294
    13.0600       292
    13.0800       308
    13.1000       288
    13.1200       252
    13.1400       296
    13.1600       272
    13.1800       264
    13.2000       276
    13.2200       294
    13.2400       276
    13.2600       252
    13.2800       260
    13.3000       282
    13.3200       284
    13.3400       282
    13.3600       308
    13.3800       286
    13.4000       278
    13.4200       316
    13.4400       286
    13.4600       252
    13.4800       252
    13.5000       282
    13.5200       286
    13.5400       262
    13.5600       272
    13.5800       280
    13.6000       282
    13.6200       288
    13.6400       272
    13.6600       290
    13.6800       280
    13.7000       282
    13.7200       276
    13.7400       266
    13.7600       238
    13.7800       262
    13.8000       236
    13.8200       272
    13.8400       272
    13.8600       302
    13.8800       290
    13.9000       298
    13.9200       274
    13.9400       274
    13.9600       268
    13.9800       264
    14.0000       280
    14.0200       266
    14.0400       280
    14.0600       270
    14.0800       280
    14.1000       282
    14.1200       258
    14.1400       270
    14.1600       280
    14.1800       274
    14.2000       216
    14.2200       266
    14.2400       274
    14.2600       240
    14.2800       272
    14.3000       260
    14.3200       268
    14.3400       260
    14.3600       268
    14.3800       276
    14.4000       278
    14.4200       290
    14.4400       288
    14.4600       274
    14.4800       290
    14.5000       258
    14.5200       278
    14.5400       284
    14.5600       296
    14.5800       308
    14.6000       294
    14.6200       274
    14.6400       330
    14.6600       306
    14.6800       314
    14.7000       332
    14.7200       382
    14.7400       342
    14.7600       398
    14.7800       440
    14.8000       440
    14.8200       454
    14.8400       482
    14.8600       528
    14.8800       586
    14.9000       626
    14.9200       658
    14.9400       766
    14.9600       856
    14.9800       924
    15.0000       994
    15.0200      1060
    15.0400      1132
    15.0600      1174
    15.0800      1224
    15.1000      1278
    15.1200      1348
    15.1400      1420
    15.1600      1570
    15.1800      1560
    15.2000      1472
    15.2200      1338
    15.2400      1150
    15.2600       996
    15.2800       784
    15.3000       646
    15.3200       516
    15.3400       464
    15.3600       438
    15.3800       388
    15.4000       346
    15.4200       364
    15.4400       366
    15.4600       300
    15.4800       320
    15.5000       286
    15.5200       296
    15.5400       262
    15.5600       270
    15.5800       268
    15.6000       302
    15.6200       274
    15.6400       254
    15.6600       272
    15.6800       294
    15.7000       280
    15.7200       258
    15.7400       274
    15.7600       240
    15.7800       266
    15.8000       246
    15.8200       282
    15.8400       246
    15.8600       238
    15.8800       298
    15.9000       282
    15.9200       266
    15.9400       286
    15.9600       260
    15.9800       276
    16.0000       250
    16.0200       284
    16.0400       270
    16.0600       288
    16.0800       274
    16.1000       294
    16.1200       276
    16.1400       296
    16.1600       292
    16.1800       282
    16.2000       296
    16.2200       320
    16.2400       318
    16.2600       350
    16.2800       368
    16.3000       364
    16.3200       340
    16.3400       356
    16.3600       300
    16.3800       316
    16.4000       314
    16.4200       318
    16.4400       316
    16.4600       278
    16.4800       306
    16.5000       312
    16.5200       322
    16.5400       298
    16.5600       324
    16.5800       334
    16.6000       324
    16.6200       392
    16.6400       360
    16.6600       354
    16.6800       432
    16.7000       450
    16.7200       460
    16.7400       496
    16.7600       526
    16.7800       510
    16.8000       582
    16.8200       686
    16.8400       666
    16.8600       710
    16.8800       836
    16.9000       904
    16.9200      1056
    16.9400      1208
    16.9600      1350
    16.9800      1496
    17.0000      1764
    17.0200      1984
    17.0400      2246
    17.0600      2348
    17.0800      2428
    17.1000      2190
    17.1200      1920
    17.1400      1782
    17.1600      1550
    17.1800      1364
    17.2000      1258
    17.2200      1108
    17.2400      1130
    17.2600      1126
    17.2800      1030
    17.3000      1050
    17.3200       956
    17.3400       836
    17.3600       876
    17.3800       804
    17.4000       798
    17.4200       732
    17.4400       738
    17.4600       778
    17.4800       770
    17.5000       686
    17.5200       704
    17.5400       632
    17.5600       602
    17.5800       590
    17.6000       566
    17.6200       620
    17.6400       660
    17.6600       664
    17.6800       772
    17.7000       786
    17.7200       838
    17.7400       836
    17.7600       878
    17.7800       886
    17.8000       850
    17.8200       884
    17.8400       744
    17.8600       678
    17.8800       598
    17.9000       454
    17.9200       394
    17.9400       354
    17.9600       318
    17.9800       318
    18.0000       342
    18.0200       268
    18.0400       280
    18.0600       278
    18.0800       272
    18.1000       274
    18.1200       266
    18.1400       274
    18.1600       226
    18.1800       250
    18.2000       248
    18.2200       254
    18.2400       230
    18.2600       228
    18.2800       236
    18.3000       236
    18.3200       240
    18.3400       242
    18.3600       234
    18.3800       222
    18.4000       186
    18.4200       242
    18.4400       236
    18.4600       236
    18.4800       258
    18.5000       248
    18.5200       264
    18.5400       226
    18.5600       240
    18.5800       236
    18.6000       232
    18.6200       216
    18.6400       250
    18.6600       254
    18.6800       230
    18.7000       246
    18.7200       240
    18.7400       250
    18.7600       262
    18.7800       230
    18.8000       262
    18.8200       272
    18.8400       220
    18.8600       248
    18.8800       268
    18.9000       272
    18.9200       252
    18.9400       282
    18.9600       256
    18.9800       290
    19.0000       288
    19.0200       300
    19.0400       284
    19.0600       288
    19.0800       292
    19.1000       300
    19.1200       318
    19.1400       318
    19.1600       280
    19.1800       338
    19.2000       316
    19.2200       342
    19.2400       370
    19.2600       370
    19.2800       382
    19.3000       456
    19.3200       512
    19.3400       548
    19.3600       582
    19.3800       658
    19.4000       656
    19.4200       768
    19.4400       840
    19.4600       922
    19.4800      1136
    19.5000      1136
    19.5200      1322
    19.5400      1302
    19.5600      1330
    19.5800      1254
    19.6000      1084
    19.6200       908
    19.6400       872
    19.6600       728
    19.6800       622
    19.7000       538
    19.7200       548
    19.7400       552
    19.7600       530
    19.7800       614
    19.8000       660
    19.8200       640
    19.8400       662
    19.8600       726
    19.8800       786
    19.9000       890
    19.9200       960
    19.9400      1052
    19.9600      1016
    19.9800      1058
    20.0000      1030
    20.0200      1004
    20.0400       930
    20.0600       792
    20.0800       694
    20.1000       578
    20.1200       594
    20.1400       516
    20.1600       436
    20.1800       440
    20.2000       414
    20.2200       478
    20.2400       440
    20.2600       434
    20.2800       422
    20.3000       420
    20.3200       456
    20.3400       380
    20.3600       414
    20.3800       398
    20.4000       342
    20.4200       296
    20.4400       290
    20.4600       302
    20.4800       286
    20.5000       292
    20.5200       270
    20.5400       274
    20.5600       270
    20.5800       266
    20.6000       284
    20.6200       256
    20.6400       272
    20.6600       280
    20.6800       278
    20.7000       306
    20.7200       300
    20.7400       316
    20.7600       346
    20.7800       330
    20.8000       344
    20.8200       326
    20.8400       432
    20.8600       464
    20.8800       466
    20.9000       514
    20.9200       522
    20.9400       618
    20.9600       620
    20.9800       750
    21.0000       806
    21.0200       930
    21.0400      1020
    21.0600      1190
    21.0800      1366
    21.1000      1570
    21.1200      1874
    21.1400      2104
    21.1600      2404
    21.1800      2540
    21.2000      2732
    21.2200      2788
    21.2400      2634
    21.2600      2384
    21.2800      1978
    21.3000      1706
    21.3200      1440
    21.3400      1132
    21.3600       884
    21.3800       730
    21.4000       602
    21.4200       528
    21.4400       480
    21.4600       466
    21.4800       466
    21.5000       394
    21.5200       356
    21.5400       328
    21.5600       322
    21.5800       318
    21.6000       328
    21.6200       304
    21.6400       288
    21.6600       306
    21.6800       270
    21.7000       286
    21.7200       264
    21.7400       248
    21.7600       276
    21.7800       256
    21.8000       258
    21.8200       238
    21.8400       216
    21.8600       258
    21.8800       244
    21.9000       206
    21.9200       260
    21.9400       244
    21.9600       244
    21.9800       234
    22.0000       238
    22.0200       260
    22.0400       218
    22.0600       242
    22.0800       250
    22.1000       240
    22.1200       220
    22.1400       228
    22.1600       232
    22.1800       230
    22.2000       254
    22.2200       238
    22.2400       240
    22.2600       240
    22.2800       240
    22.3000       214
    22.3200       248
    22.3400       274
    22.3600       264
    22.3800       260
    22.4000       266
    22.4200       278
    22.4400       298
    22.4600       288
    22.4800       332
    22.5000       332
    22.5200       380
    22.5400       398
    22.5600       416
    22.5800       432
    22.6000       442
    22.6200       516
    22.6400       540
    22.6600       602
    22.6800       716
    22.7000       742
    22.7200       890
    22.7400      1020
    22.7600      1144
    22.7800      1218
    22.8000      1396
    22.8200      1546
    22.8400      1716
    22.8600      1718
    22.8800      1684
    22.9000      1494
    22.9200      1350
    22.9400      1122
    22.9600       984
    22.9800       806
    23.0000       716
    23.0200       594
    23.0400       494
    23.0600       436
    23.0800       402
    23.1000       398
    23.1200       362
    23.1400       306
    23.1600       300
    23.1800       340
    23.2000       322
    23.2200       304
    23.2400       266
    23.2600       280
    23.2800       278
    23.3000       270
    23.3200       240
    23.3400       242
    23.3600       236
    23.3800       250
    23.4000       242
    23.4200       256
    23.4400       244
    23.4600       214
    23.4800       248
    23.5000       256
    23.5200       270
    23.5400       256
    23.5600       236
    23.5800       228
    23.6000       224
    23.6200       238
    23.6400       260
    23.6600       262
    23.6800       234
    23.7000       254
    23.7200       270
    23.7400       278
    23.7600       250
    23.7800       264
    23.8000       278
    23.8200       278
    23.8400       260
    23.8600       272
    23.8800       296
    23.9000       266
    23.9200       270
    23.9400       296
    23.9600       324
    23.9800       292
    24.0000       326
    24.0200       304
    24.0400       318
    24.0600       330
    24.0800       358
    24.1000       328
    24.1200       330
    24.1400       348
    24.1600       350
    24.1800       406
    24.2000       422
    24.2200       404
    24.2400       488
    24.2600       492
    24.2800       602
    24.3000       644
    24.3200       686
    24.3400       784
    24.3600       834
    24.3800       982
    24.4000      1110
    24.4200      1264
    24.4400      1408
    24.4600      1580
    24.4800      1766
    24.5000      1856
    24.5200      1870
    24.5400      1968
    24.5600      1982
    24.5800      1812
    24.6000      1598
    24.6200      1494
    24.6400      1274
    24.6600      1174
    24.6800      1098
    24.7000      1000
    24.7200       900
    24.7400       826
    24.7600       854
    24.7800       776
    24.8000       756
    24.8200       712
    24.8400       630
    24.8600       620
    24.8800       664
    24.9000       664
    24.9200       648
    24.9400       668
    24.9600       672
    24.9800       734
    25.0000       728
    25.0200       734
    25.0400       712
    25.0600       734
    25.0800       734
    25.1000       776
    25.1200       784
    25.1400       828
    25.1600       980
    25.1800       980
    25.2000      1044
    25.2200      1192
    25.2400      1182
    25.2600      1238
    25.2800      1224
    25.3000      1214
    25.3200      1078
    25.3400      1034
    25.3600       888
    25.3800       814
    25.4000       670
    25.4200       622
    25.4400       598
    25.4600       536
    25.4800       542
    25.5000       544
    25.5200       582
    25.5400       572
    25.5600       560
    25.5800       596
    25.6000       554
    25.6200       574
    25.6400       550
    25.6600       520
    25.6800       498
    25.7000       442
    25.7200       462
    25.7400       384
    25.7600       410
    25.7800       408
    25.8000       340
    25.8200       332
    25.8400       342
    25.8600       358
    25.8800       342
    25.9000       336
    25.9200       348
    25.9400       320
    25.9600       292
    25.9800       300
    26.0000       318
    26.0200       326
    26.0400       322
    26.0600       328
    26.0800       310
    26.1000       304
    26.1200       316
    26.1400       316
    26.1600       348
    26.1800       322
    26.2000       348
    26.2200       408
    26.2400       384
    26.2600       410
    26.2800       428
    26.3000       442
    26.3200       436
    26.3400       472
    26.3600       512
    26.3800       532
    26.4000       550
    26.4200       532
    26.4400       556
    26.4600       562
    26.4800       548
    26.5000       540
    26.5200       520
    26.5400       604
    26.5600       566
    26.5800       584
    26.6000       676
    26.6200       640
    26.6400       596
    26.6600       598
    26.6800       606
    26.7000       602
    26.7200       568
    26.7400       548
    26.7600       506
    26.7800       464
    26.8000       414
    26.8200       460
    26.8400       424
    26.8600       380
    26.8800       364
    26.9000       364
    26.9200       344
    26.9400       328
    26.9600       334
    26.9800       358
    27.0000       366
    27.0200       360
    27.0400       388
    27.0600       360
    27.0800       424
    27.1000       404
    27.1200       392
    27.1400       426
    27.1600       448
    27.1800       464
    27.2000       496
    27.2200       504
    27.2400       566
    27.2600       612
    27.2800       636
    27.3000       716
    27.3200       846
    27.3400       856
    27.3600      1060
    27.3800      1182
    27.4000      1242
    27.4200      1404
    27.4400      1502
    27.4600      1610
    27.4800      1682
    27.5000      1660
    27.5200      1610
    27.5400      1536
    27.5600      1426
    27.5800      1282
    27.6000      1134
    27.6200      1006
    27.6400       802
    27.6600       712
    27.6800       672
    27.7000       628
    27.7200       530
    27.7400       482
    27.7600       444
    27.7800       412
    27.8000       406
    27.8200       376
    27.8400       364
    27.8600       330
    27.8800       304
    27.9000       326
    27.9200       294
    27.9400       298
    27.9600       292
    27.9800       302
    28.0000       302
    28.0200       292
    28.0400       300
    28.0600       292
    28.0800       274
    28.1000       254
    28.1200       278
    28.1400       290
    28.1600       304
    28.1800       324
    28.2000       312
    28.2200       288
    28.2400       312
    28.2600       318
    28.2800       304
    28.3000       340
    28.3200       326
    28.3400       344
    28.3600       318
    28.3800       356
    28.4000       300
    28.4200       284
    28.4400       308
    28.4600       330
    28.4800       290
    28.5000       310
    28.5200       306
    28.5400       306
    28.5600       318
    28.5800       316
    28.6000       350
    28.6200       364
    28.6400       388
    28.6600       360
    28.6800       396
    28.7000       410
    28.7200       448
    28.7400       442
    28.7600       440
    28.7800       430
    28.8000       426
    28.8200       410
    28.8400       388
    28.8600       378
    28.8800       382
    28.9000       362
    28.9200       380
    28.9400       362
    28.9600       340
    28.9800       332
    29.0000       316
    29.0200       320
    29.0400       326
    29.0600       306
    29.0800       328
    29.1000       328
    29.1200       338
    29.1400       328
    29.1600       334
    29.1800       372
    29.2000       362
    29.2200       370
    29.2400       412
    29.2600       450
    29.2800       430
    29.3000       506
    29.3200       528
    29.3400       542
    29.3600       614
    29.3800       690
    29.4000       726
    29.4200       726
    29.4400       786
    29.4600       934
    29.4800       994
    29.5000      1028
    29.5200      1082
    29.5400      1168
    29.5600      1202
    29.5800      1246
    29.6000      1312
    29.6200      1288
    29.6400      1256
    29.6600      1188
    29.6800      1132
    29.7000      1060
    29.7200       996
    29.7400       892
    29.7600       808
    29.7800       810
    29.8000       696
    29.8200       696
    29.8400       668
    29.8600       726
    29.8800       696
    29.9000       754
    29.9200       818
    29.9400       914
    29.9600       984
    29.9800      1030
    30.0000      1136
    30.0200      1326
    30.0400      1476
    30.0600      1674
    30.0800      1880
    30.1000      2200
    30.1200      2548
    30.1400      2612
    30.1600      2894
    30.1800      3156
    30.2000      3166
    30.2200      3186
    30.2400      3040
    30.2600      3124
    30.2800      2878
    30.3000      2892
    30.3200      2838
    30.3400      2768
    30.3600      2540
    30.3800      2604
    30.4000      2516
    30.4200      2580
    30.4400      2770
    30.4600      2848
    30.4800      3228
    30.5000      3560
    30.5200      3934
    30.5400      4396
    30.5600      5030
    30.5800      5564
    30.6000      6160
    30.6200      6710
    30.6400      7040
    30.6600      7274
    30.6800      7030
    30.7000      6576
    30.7200      6094
    30.7400      5296
    30.7600      4650
    30.7800      3932
    30.8000      3188
    30.8200      2740
    30.8400      2304
    30.8600      1946
    30.8800      1824
    30.9000      1662
    30.9200      1628
    30.9400      1520
    30.9600      1520
    30.9800      1510
    31.0000      1422
    31.0200      1410
    31.0400      1282
    31.0600      1212
    31.0800      1142
    31.1000      1064
    31.1200       936
    31.1400       902
    31.1600       796
    31.1800       740
    31.2000       672
    31.2200       628
    31.2400       620
    31.2600       576
    31.2800       524
    31.3000       512
    31.3200       510
    31.3400       462
    31.3600       424
    31.3800       406
    31.4000       432
    31.4200       412
    31.4400       434
    31.4600       418
    31.4800       436
    31.5000       414
    31.5200       394
    31.5400       374
    31.5600       416
    31.5800       408
    31.6000       454
    31.6200       430
    31.6400       440
    31.6600       476
    31.6800       518
    31.7000       536
    31.7200       528
    31.7400       568
    31.7600       580
    31.7800       560
    31.8000       590
    31.8200       586
    31.8400       622
    31.8600       716
    31.8800       718
    31.9000       778
    31.9200       820
    31.9400       944
    31.9600       970
    31.9800      1040
    32.0000      1052
    32.0200      1020
    32.0400      1000
    32.0600      1006
    32.0800       954
    32.1000       844
    32.1200       798
    32.1400       768
    32.1600       716
    32.1800       752
    32.2000       734
    32.2200       826
    32.2400       752
    32.2600       818
    32.2800       922
    32.3000      1002
    32.3200      1012
    32.3400      1036
    32.3600      1190
    32.3800      1336
    32.4000      1488
    32.4200      1726
    32.4400      2020
    32.4600      2202
    32.4800      2482
    32.5000      2734
    32.5200      2978
    32.5400      2940
    32.5600      3134
    32.5800      3010
    32.6000      3032
    32.6200      2838
    32.6400      2608
    32.6600      2418
    32.6800      2098
    32.7000      1842
    32.7200      1702
    32.7400      1584
    32.7600      1366
    32.7800      1112
    32.8000      1022
    32.8200       962
    32.8400       844
    32.8600       804
    32.8800       790
    32.9000       722
    32.9200       706
    32.9400       698
    32.9600       684
    32.9800       698
    33.0000       756
    33.0200       740
    33.0400       760
    33.0600       804
    33.0800       784
    33.1000       756
    33.1200       712
    33.1400       664
    33.1600       650
    33.1800       620
    33.2000       504
    33.2200       504
    33.2400       484
    33.2600       404
    33.2800       446
    33.3000       380
    33.3200       330
    33.3400       334
    33.3600       278
    33.3800       310
    33.4000       314
    33.4200       292
    33.4400       252
    33.4600       258
    33.4800       264
    33.5000       254
    33.5200       284
    33.5400       250
    33.5600       272
    33.5800       258
    33.6000       252
    33.6200       246
    33.6400       240
    33.6600       228
    33.6800       230
    33.7000       254
    33.7200       258
    33.7400       228
    33.7600       222
    33.7800       232
    33.8000       244
    33.8200       226
    33.8400       210
    33.8600       244
    33.8800       228
    33.9000       248
    33.9200       258
    33.9400       286
    33.9600       274
    33.9800       234
    34.0000       236
    34.0200       252
    34.0400       232
    34.0600       236
    34.0800       230
    34.1000       244
    34.1200       258
    34.1400       280
    34.1600       276
    34.1800       268
    34.2000       280
    34.2200       258
    34.2400       270
    34.2600       258
    34.2800       302
    34.3000       268
    34.3200       306
    34.3400       338
    34.3600       352
    34.3800       364
    34.4000       436
    34.4200       462
    34.4400       492
    34.4600       538
    34.4800       554
    34.5000       632
    34.5200       680
    34.5400       742
    34.5600       646
    34.5800       674
    34.6000       660
    34.6200       580
    34.6400       534
    34.6600       538
    34.6800       496
    34.7000       430
    34.7200       472
    34.7400       388
    34.7600       410
    34.7800       366
    34.8000       362
    34.8200       368
    34.8400       364
    34.8600       382
    34.8800       370
    34.9000       324
    34.9200       300
    34.9400       316
    34.9600       310
    34.9800       292
    35.0000       324
    35.0200       316
    35.0400       284
    35.0600       286
    35.0800       314
    35.1000       288
    35.1200       274
    35.1400       264
    35.1600       310
    35.1800       286
    35.2000       278
    35.2200       262
    35.2400       278
    35.2600       290
    35.2800       302
    35.3000       286
    35.3200       280
    35.3400       260
    35.3600       286
    35.3800       260
    35.4000       316
    35.4200       270
    35.4400       280
    35.4600       322
    35.4800       314
    35.5000       284
    35.5200       282
    35.5400       298
    35.5600       334
    35.5800       322
    35.6000       334
    35.6200       324
    35.6400       332
    35.6600       358
    35.6800       326
    35.7000       388
    35.7200       364
    35.7400       402
    35.7600       426
    35.7800       436
    35.8000       426
    35.8200       484
    35.8400       496
    35.8600       500
    35.8800       490
    35.9000       564
    35.9200       612
    35.9400       622
    35.9600       662
    35.9800       742
    36.0000       756
    36.0200       740
    36.0400       752
    36.0600       808
    36.0800       804
    36.1000       778
    36.1200       794
    36.1400       682
    36.1600       736
    36.1800       666
    36.2000       564
    36.2200       548
    36.2400       484
    36.2600       486
    36.2800       440
    36.3000       430
    36.3200       412
    36.3400       386
    36.3600       426
    36.3800       380
    36.4000       366
    36.4200       366
    36.4400       368
    36.4600       338
    36.4800       358
    36.5000       362
    36.5200       376
    36.5400       372
    36.5600       376
    36.5800       416
    36.6000       400
    36.6200       404
    36.6400       398
    36.6600       460
    36.6800       468
    36.7000       510
    36.7200       524
    36.7400       594
    36.7600       616
    36.7800       672
    36.8000       776
    36.8200       770
    36.8400       876
    36.8600       908
    36.8800       952
    36.9000       954
    36.9200       954
    36.9400       924
    36.9600       864
    36.9800       916
    37.0000       898
    37.0200       874
    37.0400       836
    37.0600       908
    37.0800       882
    37.1000       924
    37.1200       942
    37.1400       994
    37.1600      1012
    37.1800      1036
    37.2000      1044
    37.2200      1002
    37.2400       958
    37.2600       912
    37.2800       844
    37.3000       794
    37.3200       726
    37.3400       768
    37.3600       684
    37.3800       586
    37.4000       602
    37.4200       558
    37.4400       548
    37.4600       508
    37.4800       476
    37.5000       504
    37.5200       472
    37.5400       502
    37.5600       494
    37.5800       454
    37.6000       494
    37.6200       468
    37.6400       484
    37.6600       488
    37.6800       452
    37.7000       462
    37.7200       460
    37.7400       504
    37.7600       548
    37.7800       592
    37.8000       578
    37.8200       598
    37.8400       604
    37.8600       712
    37.8800       722
    37.9000       838
    37.9200       872
    37.9400       920
    37.9600      1030
    37.9800      1092
    38.0000      1230
    38.0200      1210
    38.0400      1212
    38.0600      1226
    38.0800      1208
    38.1000      1230
    38.1200      1194
    38.1400      1104
    38.1600      1202
    38.1800      1074
    38.2000      1106
    38.2200      1134
    38.2400      1124
    38.2600      1262
    38.2800      1226
    38.3000      1380
    38.3200      1392
    38.3400      1566
    38.3600      1712
    38.3800      1996
    38.4000      2142
    38.4200      2260
    38.4400      2500
    38.4600      2734
    38.4800      2938
    38.5000      3140
    38.5200      3450
    38.5400      3604
    38.5600      3828
    38.5800      4172
    38.6000      4262
    38.6200      4468
    38.6400      4512
    38.6600      4298
    38.6800      4286
    38.7000      4116
    38.7200      3850
    38.7400      3592
    38.7600      3326
    38.7800      3008
    38.8000      2644
    38.8200      2400
    38.8400      2108
    38.8600      1908
    38.8800      1710
    38.9000      1560
    38.9200      1482
    38.9400      1370
    38.9600      1260
    38.9800      1276
    39.0000      1248
    39.0200      1206
    39.0400      1170
    39.0600      1276
    39.0800      1294
    39.1000      1368
    39.1200      1396
    39.1400      1510
    39.1600      1472
    39.1800      1512
    39.2000      1576
    39.2200      1604
    39.2400      1586
    39.2600      1636
    39.2800      1574
    39.3000      1536
    39.3200      1520
    39.3400      1470
    39.3600      1334
    39.3800      1332
    39.4000      1310
    39.4200      1182
    39.4400      1074
    39.4600      1012
    39.4800      1022
    39.5000       958
    39.5200       976
    39.5400       952
    39.5600       934
    39.5800       996
    39.6000      1034
    39.6200      1036
    39.6400      1094
    39.6600      1154
    39.6800      1208
    39.7000      1144
    39.7200      1078
    39.7400      1134
    39.7600      1100
    39.7800       996
    39.8000      1030
    39.8200       906
    39.8400       866
    39.8600       858
    39.8800       792
    39.9000       782
    39.9200       726
    39.9400       776
    39.9600       752
    39.9800       780
    40.0000       800
    40.0200       844
    40.0400       784
    40.0600       830
    40.0800       868
    40.1000       894
    40.1200       988
    40.1400      1018
    40.1600      1032
    40.1800      1020
    40.2000      1044
    40.2200      1000
    40.2400      1094
    40.2600      1140
    40.2800      1148
    40.3000      1042
    40.3200      1090
    40.3400      1150
    40.3600      1158
    40.3800      1198
    40.4000      1230
    40.4200      1256
    40.4400      1268
    40.4600      1276
    40.4800      1274
    40.5000      1362
    40.5200      1350
    40.5400      1256
    40.5600      1234
    40.5800      1204
    40.6000      1176
    40.6200      1082
    40.6400       998
    40.6600       994
    40.6800       908
    40.7000       880
    40.7200       822
    40.7400       776
    40.7600       754
    40.7800       726
    40.8000       756
    40.8200       742
    40.8400       656
    40.8600       668
    40.8800       652
    40.9000       670
    40.9200       602
    40.9400       682
    40.9600       690
    40.9800       790
    41.0000       790
    41.0200       866
    41.0400       868
    41.0600       886
    41.0800      1022
    41.1000      1072
    41.1200      1300
    41.1400      1408
    41.1600      1548
    41.1800      1622
    41.2000      1886
    41.2200      2086
    41.2400      2164
    41.2600      2354
    41.2800      2492
    41.3000      2516
    41.3200      2620
    41.3400      2568
    41.3600      2624
    41.3800      2582
    41.4000      2490
    41.4200      2388
    41.4400      2384
    41.4600      2200
    41.4800      2158
    41.5000      1940
    41.5200      1730
    41.5400      1600
    41.5600      1498
    41.5800      1394
    41.6000      1288
    41.6200      1122
    41.6400      1046
    41.6600       992
    41.6800       932
    41.7000       862
    41.7200       848
    41.7400       868
    41.7600       806
    41.7800       840
    41.8000       876
    41.8200       846
    41.8400       920
    41.8600       950
    41.8800       970
    41.9000       864
    41.9200       900
    41.9400       838
    41.9600       836
    41.9800       802
    42.0000       744
    42.0200       680
    42.0400       672
    42.0600       642
    42.0800       576
    42.1000       554
    42.1200       512
    42.1400       484
    42.1600       476
    42.1800       484
    42.2000       476
    42.2200       488
    42.2400       430
    42.2600       422
    42.2800       416
    42.3000       418
    42.3200       452
    42.3400       428
    42.3600       418
    42.3800       396
    42.4000       418
    42.4200       398
    42.4400       408
    42.4600       392
    42.4800       386
    42.5000       396
    42.5200       338
    42.5400       370
    42.5600       378
    42.5800       362
    42.6000       380
    42.6200       396
    42.6400       330
    42.6600       362
    42.6800       346
    42.7000       352
    42.7200       334
    42.7400       354
    42.7600       360
    42.7800       368
    42.8000       378
    42.8200       362
    42.8400       374
    42.8600       448
    42.8800       440
    42.9000       444
    42.9200       426
    42.9400       460
    42.9600       478
    42.9800       450
    43.0000       500
    43.0200       536
    43.0400       622
    43.0600       640
    43.0800       666
    43.1000       678
    43.1200       774
    43.1400       774
    43.1600       880
    43.1800       910
    43.2000       844
    43.2200       950
    43.2400       870
    43.2600       880
    43.2800       900
    43.3000       816
    43.3200       840
    43.3400       692
    43.3600       684
    43.3800       656
    43.4000       572
    43.4200       564
    43.4400       530
    43.4600       508
    43.4800       510
    43.5000       486
    43.5200       452
    43.5400       442
    43.5600       410
    43.5800       404
    43.6000       416
    43.6200       438
    43.6400       406
    43.6600       404
    43.6800       402
    43.7000       416
    43.7200       430
    43.7400       432
    43.7600       424
    43.7800       474
    43.8000       478
    43.8200       470
    43.8400       478
    43.8600       532
    43.8800       476
    43.9000       514
    43.9200       488
    43.9400       494
    43.9600       478
    43.9800       472
    44.0000       476
    44.0200       448
    44.0400       482
    44.0600       470
    44.0800       474
    44.1000       476
    44.1200       468
    44.1400       502
    44.1600       498
    44.1800       538
    44.2000       528
    44.2200       514
    44.2400       580
    44.2600       550
    44.2800       610
    44.3000       562
    44.3200       650
    44.3400       528
    44.3600       630
    44.3800       608
    44.4000       606
    44.4200       624
    44.4400       618
    44.4600       630
    44.4800       566
    44.5000       634
    44.5200       600
    44.5400       594
    44.5600       644
    44.5800       618
    44.6000       618
    44.6200       650
    44.6400       630
    44.6600       704
    44.6800       668
    44.7000       690
    44.7200       746
    44.7400       788
    44.7600       822
    44.7800       826
    44.8000       924
    44.8200       962
    44.8400       976
    44.8600      1108
    44.8800      1296
    44.9000      1328
    44.9200      1560
    44.9400      1602
    44.9600      1698
    44.9800      1874
    45.0000      2152
    45.0200      2236
    45.0400      2352
    45.0600      2456
    45.0800      2470
    45.1000      2594
    45.1200      2690
    45.1400      2538
    45.1600      2688
    45.1800      2672
    45.2000      2626
    45.2200      2768
    45.2400      2566
    45.2600      2472
    45.2800      2476
    45.3000      2280
    45.3200      2142
    45.3400      1996
    45.3600      1888
    45.3800      1846
    45.4000      1692
    45.4200      1604
    45.4400      1620
    45.4600      1426
    45.4800      1468
    45.5000      1394
    45.5200      1368
    45.5400      1288
    45.5600      1254
    45.5800      1274
    45.6000      1206
    45.6200      1160
    45.6400      1070
    45.6600      1006
    45.6800       906
    45.7000       924
    45.7200       874
    45.7400       840
    45.7600       800
    45.7800       802
    45.8000       820
    45.8200       786
    45.8400       730
    45.8600       756
    45.8800       694
    45.9000       702
    45.9200       674
    45.9400       710
    45.9600       684
    45.9800       712
    46.0000       696
    46.0200       686
    46.0400       676
    46.0600       748
    46.0800       702
    46.1000       768
    46.1200       792
    46.1400       882
    46.1600       820
    46.1800       826
    46.2000       906
    46.2200       838
    46.2400       876
    46.2600       920
    46.2800       956
    46.3000       954
    46.3200      1042
    46.3400      1098
    46.3600      1140
    46.3800      1128
    46.4000      1282
    46.4200      1318
    46.4400      1402
    46.4600      1526
    46.4800      1568
    46.5000      1640
    46.5200      1824
    46.5400      1906
    46.5600      2056
    46.5800      2116
    46.6000      2482
    46.6200      2600
    46.6400      2740
    46.6600      2986
    46.6800      3108
    46.7000      3128
    46.7200      3224
    46.7400      3152
    46.7600      3126
    46.7800      2832
    46.8000      2760
    46.8200      2620
    46.8400      2290
    46.8600      2214
    46.8800      1954
    46.9000      1782
    46.9200      1578
    46.9400      1340
    46.9600      1276
    46.9800      1164
    47.0000      1018
    47.0200       922
    47.0400       876
    47.0600       818
    47.0800       764
    47.1000       724
    47.1200       630
    47.1400       696
    47.1600       662
    47.1800       560
    47.2000       572
    47.2200       482
    47.2400       536
    47.2600       544
    47.2800       472
    47.3000       484
    47.3200       466
    47.3400       502
    47.3600       438
    47.3800       478
    47.4000       446
    47.4200       456
    47.4400       428
    47.4600       424
    47.4800       408
    47.5000       418
    47.5200       392
    47.5400       406
    47.5600       432
    47.5800       386
    47.6000       408
    47.6200       428
    47.6400       430
    47.6600       420
    47.6800       428
    47.7000       470
    47.7200       490
    47.7400       480
    47.7600       474
    47.7800       498
    47.8000       518
    47.8200       526
    47.8400       550
    47.8600       474
    47.8800       606
    47.9000       520
    47.9200       522
    47.9400       546
    47.9600       542
    47.9800       528
    48.0000       532
    48.0200       544
    48.0400       522
    48.0600       562
    48.0800       556
    48.1000       584
    48.1200       606
    48.1400       624
    48.1600       602
    48.1800       608
    48.2000       656
    48.2200       674
    48.2400       656
    48.2600       660
    48.2800       680
    48.3000       684
    48.3200       758
    48.3400       744
    48.3600       822
    48.3800       842
    48.4000       858
    48.4200       908
    48.4400       956
    48.4600      1036
    48.4800      1138
    48.5000      1172
    48.5200      1268
    48.5400      1312
    48.5600      1410
    48.5800      1416
    48.6000      1452
    48.6200      1402
    48.6400      1428
    48.6600      1462
    48.6800      1306
    48.7000      1388
    48.7200      1260
    48.7400      1232
    48.7600      1096
    48.7800      1036
    48.8000      1008
    48.8200       898
    48.8400       878
    48.8600       796
    48.8800       686
    48.9000       708
    48.9200       668
    48.9400       636
    48.9600       626
    48.9800       550
    49.0000       506
    49.0200       496
    49.0400       438
    49.0600       470
    49.0800       418
    49.1000       424
    49.1200       462
    49.1400       430
    49.1600       378
    49.1800       368
    49.2000       378
    49.2200       386
    49.2400       338
    49.2600       348
    49.2800       362
    49.3000       354
    49.3200       354
    49.3400       338
    49.3600       330
    49.3800       378
    49.4000       368
    49.4200       328
    49.4400       356
    49.4600       318
    49.4800       340
    49.5000       356
    49.5200       346
    49.5400       362
    49.5600       360
    49.5800       354
    49.6000       350
    49.6200       370
    49.6400       370
    49.6600       370
    49.6800       406
    49.7000       408
    49.7200       372
    49.7400       434
    49.7600       418
    49.7800       410
    49.8000       418
    49.8200       442
    49.8400       458
    49.8600       456
    49.8800       508
    49.9000       554
    49.9200       562
    49.9400       542
    49.9600       604
    49.9800       612
    50.0000       724
    50.0200       724
    50.0400       776
    50.0600       860
    50.0800       878
    50.1000       924
    50.1200       974
    50.1400      1128
    50.1600      1230
    50.1800      1292
    50.2000      1400
    50.2200      1486
    50.2400      1566
    50.2600      1674
    50.2800      1792
    50.3000      1768
    50.3200      1810
    50.3400      1730
    50.3600      1878
    50.3800      1702
    50.4000      1716
    50.4200      1684
    50.4400      1610
    50.4600      1636
    50.4800      1586
    50.5000      1444
    50.5200      1438
    50.5400      1410
    50.5600      1424
    50.5800      1362
    50.6000      1428
    50.6200      1468
    50.6400      1526
    50.6600      1614
    50.6800      1606
    50.7000      1696
    50.7200      1774
    50.7400      1946
    50.7600      1988
    50.7800      2000
    50.8000      2036
    50.8200      1996
    50.8400      1958
    50.8600      1994
    50.8800      1928
    50.9000      1794
    50.9200      1762
    50.9400      1684
    50.9600      1486
    50.9800      1398
    51.0000      1364
    51.0200      1264
    51.0400      1150
    51.0600      1152
    51.0800      1054
    51.1000       994
    51.1200      1008
    51.1400      1000
    51.1600       958
    51.1800      1020
    51.2000      1034
    51.2200      1036
    51.2400      1084
    51.2600      1116
    51.2800      1118
    51.3000      1122
    51.3200      1140
    51.3400      1092
    51.3600      1086
    51.3800      1136
    51.4000      1012
    51.4200      1062
    51.4400      1022
    51.4600      1042
    51.4800       968
    51.5000       984
    51.5200       970
    51.5400      1000
    51.5600       964
    51.5800       962
    51.6000      1006
    51.6200      1010
    51.6400      1080
    51.6600      1148
    51.6800      1132
    51.7000      1278
    51.7200      1248
    51.7400      1344
    51.7600      1460
    51.7800      1560
    51.8000      1600
    51.8200      1708
    51.8400      1800
    51.8600      1832
    51.8800      1880
    51.9000      1932
    51.9200      1880
    51.9400      1878
    51.9600      1794
    51.9800      1732
    52.0000      1704
    52.0200      1548
    52.0400      1436
    52.0600      1416
    52.0800      1212
    52.1000      1174
    52.1200      1082
    52.1400      1020
    52.1600       964
    52.1800       894
    52.2000       762
    52.2200       790
    52.2400       706
    52.2600       702
    52.2800       594
    52.3000       666
    52.3200       618
    52.3400       564
    52.3600       582
    52.3800       598
    52.4000       610
    52.4200       634
    52.4400       626
    52.4600       638
    52.4800       644
    52.5000       654
    52.5200       734
    52.5400       716
    52.5600       800
    52.5800       784
    52.6000       824
    52.6200       764
    52.6400       852
    52.6600       810
    52.6800       842
    52.7000       860
    52.7200       846
    52.7400       854
    52.7600       862
    52.7800       830
    52.8000       796
    52.8200       804
    52.8400       804
    52.8600       768
    52.8800       750
    52.9000       668
    52.9200       688
    52.9400       704
    52.9600       696
    52.9800       602
    53.0000       650
    53.0200       608
    53.0400       670
    53.0600       616
    53.0800       634
    53.1000       654
    53.1200       658
    53.1400       726
    53.1600       722
    53.1800       752
    53.2000       796
    53.2200       806
    53.2400       804
    53.2600       816
    53.2800       794
    53.3000       826
    53.3200       850
    53.3400       764
    53.3600       794
    53.3800       756
    53.4000       672
    53.4200       690
    53.4400       692
    53.4600       666
    53.4800       630
    53.5000       662
    53.5200       724
    53.5400       628
    53.5600       634
    53.5800       618
    53.6000       656
    53.6200       602
    53.6400       592
    53.6600       614
    53.6800       628
    53.7000       608
    53.7200       630
    53.7400       566
    53.7600       514
    53.7800       606
    53.8000       556
    53.8200       510
    53.8400       522
    53.8600       526
    53.8800       528
    53.9000       518
    53.9200       548
    53.9400       534
    53.9600       528
    53.9800       476
    54.0000       468
    54.0200       578
    54.0400       532
    54.0600       490
    54.0800       536
    54.1000       572
    54.1200       560
    54.1400       578
    54.1600       614
    54.1800       586
    54.2000       674
    54.2200       708
    54.2400       734
    54.2600       710
    54.2800       736
    54.3000       688
    54.3200       720
    54.3400       770
    54.3600       746
    54.3800       772
    54.4000       804
    54.4200       784
    54.4400       770
    54.4600       722
    54.4800       770
    54.5000       690
    54.5200       704
    54.5400       646
    54.5600       698
    54.5800       630
    54.6000       682
    54.6200       652
    54.6400       624
    54.6600       598
    54.6800       642
    54.7000       644
    54.7200       642
    54.7400       650
    54.7600       642
    54.7800       652
    54.8000       666
    54.8200       720
    54.8400       706
    54.8600       712
    54.8800       706
    54.9000       768
    54.9200       758
    54.9400       826
    54.9600       842
    54.9800       896
    55.0000       892
    55.0200       986
    55.0400      1018
    55.0600      1046
    55.0800      1124
    55.1000      1122
    55.1200      1188
    55.1400      1198
    55.1600      1264
    55.1800      1278
    55.2000      1224
    55.2200      1342
    55.2400      1298
    55.2600      1124
    55.2800      1188
    55.3000      1160
    55.3200      1122
    55.3400      1072
    55.3600       970
    55.3800      1024
    55.4000       892
    55.4200       844
    55.4400       792
    55.4600       774
    55.4800       714
    55.5000       686
    55.5200       634
    55.5400       604
    55.5600       552
    55.5800       580
    55.6000       544
    55.6200       446
    55.6400       458
    55.6600       462
    55.6800       430
    55.7000       452
    55.7200       424
    55.7400       372
    55.7600       400
    55.7800       390
    55.8000       412
    55.8200       438
    55.8400       366
    55.8600       368
    55.8800       376
    55.9000       370
    55.9200       332
    55.9400       384
    55.9600       370
    55.9800       362
    56.0000       332
    56.0200       356
    56.0400       374
    56.0600       370
    56.0800       356
    56.1000       366
    56.1200       342
    56.1400       350
    56.1600       380
    56.1800       364
    56.2000       332
    56.2200       384
    56.2400       346
    56.2600       370
    56.2800       358
    56.3000       358
    56.3200       364
    56.3400       396
    56.3600       374
    56.3800       374
    56.4000       432
    56.4200       392
    56.4400       424
    56.4600       422
    56.4800       464
    56.5000       456
    56.5200       450
    56.5400       516
    56.5600       478
    56.5800       538
    56.6000       574
    56.6200       570
    56.6400       630
    56.6600       574
    56.6800       664
    56.7000       636
    56.7200       614
    56.7400       660
    56.7600       616
    56.7800       642
    56.8000       584
    56.8200       580
    56.8400       554
    56.8600       596
    56.8800       576
    56.9000       550
    56.9200       552
    56.9400       496
    56.9600       518
    56.9800       474
    57.0000       444
    57.0200       438
    57.0400       438
    57.0600       436
    57.0800       458
    57.1000       406
    57.1200       436
    57.1400       438
    57.1600       506
    57.1800       538
    57.2000       478
    57.2200       518
    57.2400       582
    57.2600       558
    57.2800       660
    57.3000       654
    57.3200       660
    57.3400       684
    57.3600       720
    57.3800       778
    57.4000       750
    57.4200       754
    57.4400       754
    57.4600       718
    57.4800       680
    57.5000       674
    57.5200       726
    57.5400       698
    57.5600       712
    57.5800       748
    57.6000       674
    57.6200       708
    57.6400       716
    57.6600       784
    57.6800       754
    57.7000       786
    57.7200       724
    57.7400       788
    57.7600       744
    57.7800       740
    57.8000       724
    57.8200       680
    57.8400       698
    57.8600       668
    57.8800       608
    57.9000       652
    57.9200       660
    57.9400       594
    57.9600       600
    57.9800       570
    58.0000       522
    58.0200       548
    58.0400       602
    58.0600       532
    58.0800       528
    58.1000       522
    58.1200       576
    58.1400       570
    58.1600       590
    58.1800       618
    58.2000       656
    58.2200       682
    58.2400       664
    58.2600       714
    58.2800       730
    58.3000       780
    58.3200       764
    58.3400       794
    58.3600       786
    58.3800       872
    58.4000       854
    58.4200       904
    58.4400      1012
    58.4600      1046
    58.4800      1040
    58.5000      1012
    58.5200      1050
    58.5400      1042
    58.5600      1106
    58.5800      1074
    58.6000      1180
    58.6200      1190
    58.6400      1204
    58.6600      1236
    58.6800      1266
    58.7000      1256
    58.7200      1276
    58.7400      1182
    58.7600      1234
    58.7800      1240
    58.8000      1238
    58.8200      1184
    58.8400      1110
    58.8600      1144
    58.8800      1186
    58.9000      1054
    58.9200      1108
    58.9400      1048
    58.9600       924
    58.9800       918
    59.0000       878
    59.0200       898
    59.0400       792
    59.0600       792
    59.0800       802
    59.1000       802
    59.1200       812
    59.1400       844
    59.1600       826
    59.1800       802
    59.2000       888
    59.2200       842
    59.2400       896
    59.2600       988
    59.2800      1052
    59.3000      1066
    59.3200      1098
    59.3400      1240
    59.3600      1258
    59.3800      1326
    59.4000      1416
    59.4200      1462
    59.4400      1504
    59.4600      1532
    59.4800      1632
    59.5000      1548
    59.5200      1630
    59.5400      1552
    59.5600      1556
    59.5800      1556
    59.6000      1488
    59.6200      1472
    59.6400      1486
    59.6600      1444
    59.6800      1396
    59.7000      1392
    59.7200      1400
    59.7400      1320
    59.7600      1346
    59.7800      1244
    59.8000      1260
    59.8200      1182
    59.8400      1182
    59.8600      1148
    59.8800      1176
    59.9000      1218
    59.9200      1040
    59.9400      1082
    59.9600       992
    59.9800      1012
    60.0000      1000
    60.0200       896
    60.0400       918
    60.0600       902
    60.0800       836
    60.1000       716
    60.1200       666
    60.1400       690
    60.1600       704
    60.1800       600
    60.2000       616
    60.2200       566
    60.2400       612
    60.2600       544
    60.2800       500
    60.3000       516
    60.3200       526
    60.3400       434
    60.3600       490
    60.3800       448
    60.4000       478
    60.4200       468
    60.4400       464
    60.4600       410
    60.4800       450
    60.5000       450
    60.5200       476
    60.5400       462
    60.5600       454
    60.5800       428
    60.6000       448
    60.6200       444
    60.6400       456
    60.6600       474
    60.6800       450
    60.7000       460
    60.7200       454
    60.7400       482
    60.7600       464
    60.7800       474
    60.8000       488
    60.8200       504
    60.8400       552
    60.8600       546
    60.8800       536
    60.9000       574
    60.9200       532
    60.9400       578
    60.9600       574
    60.9800       628
    61.0000       630
    61.0200       644
    61.0400       700
    61.0600       712
    61.0800       760
    61.1000       746
    61.1200       812
    61.1400       856
    61.1600       842
    61.1800       908
    61.2000       906
    61.2200       980
    61.2400      1040
    61.2600      1122
    61.2800      1138
    61.3000      1110
    61.3200      1122
    61.3400      1156
    61.3600      1232
    61.3800      1228
    61.4000      1276
    61.4200      1382
    61.4400      1388
    61.4600      1390
    61.4800      1362
    61.5000      1386
    61.5200      1464
    61.5400      1276
    61.5600      1270
    61.5800      1304
    61.6000      1236
    61.6200      1212
    61.6400      1092
    61.6600      1050
    61.6800      1054
    61.7000       944
    61.7200       920
    61.7400       844
    61.7600       838
    61.7800       746
    61.8000       686
    61.8200       692
    61.8400       624
    61.8600       636
    61.8800       578
    61.9000       520
    61.9200       542
    61.9400       534
    61.9600       492
    61.9800       498
    62.0000       510
    62.0200       500
    62.0400       426
    62.0600       446
    62.0800       454
    62.1000       400
    62.1200       440
    62.1400       422
    62.1600       428
    62.1800       398
    62.2000       422
    62.2200       402
    62.2400       418
    62.2600       384
    62.2800       372
    62.3000       422
    62.3200       364
    62.3400       396
    62.3600       376
    62.3800       382
    62.4000       370
    62.4200       384
    62.4400       362
    62.4600       392
    62.4800       350
    62.5000       388
    62.5200       368
    62.5400       382
    62.5600       402
    62.5800       416
    62.6000       398
    62.6200       388
    62.6400       406
    62.6600       390
    62.6800       422
    62.7000       412
    62.7200       416
    62.7400       426
    62.7600       440
    62.7800       420
    62.8000       448
    62.8200       430
    62.8400       396
    62.8600       428
    62.8800       372
    62.9000       386
    62.9200       422
    62.9400       394
    62.9600       406
    62.9800       376
    63.0000       352
    63.0200       378
    63.0400       344
    63.0600       344
    63.0800       334
    63.1000       370
    63.1200       302
    63.1400       312
    63.1600       292
    63.1800       290
    63.2000       300
    63.2200       308
    63.2400       294
    63.2600       324
    63.2800       272
    63.3000       332
    63.3200       266
    63.3400       362
    63.3600       340
    63.3800       320
    63.4000       328
    63.4200       300
    63.4400       324
    63.4600       338
    63.4800       346
    63.5000       350
    63.5200       348
    63.5400       362
    63.5600       366
    63.5800       372
    63.6000       416
    63.6200       434
    63.6400       424
    63.6600       480
    63.6800       514
    63.7000       542
    63.7200       572
    63.7400       596
    63.7600       582
    63.7800       642
    63.8000       686
    63.8200       722
    63.8400       696
    63.8600       722
    63.8800       698
    63.9000       726
    63.9200       690
    63.9400       648
    63.9600       652
    63.9800       630
    64.0000       606
    64.0200       640
    64.0400       602
    64.0600       548
    64.0800       528
    64.1000       528
    64.1200       512
    64.1400       518
    64.1600       432
    64.1800       432
    64.2000       396
    64.2200       406
    64.2400       420
    64.2600       400
    64.2800       388
    64.3000       340
    64.3200       352
    64.3400       356
    64.3600       356
    64.3800       302
    64.4000       356
    64.4200       316
    64.4400       346
    64.4600       314
    64.4800       320
    64.5000       310
    64.5200       322
    64.5400       288
    64.5600       350
    64.5800       326
    64.6000       300
    64.6200       316
    64.6400       310
    64.6600       298
    64.6800       278
    64.7000       310
    64.7200       286
    64.7400       286
    64.7600       290
    64.7800       316
    64.8000       302
    64.8200       296
    64.8400       322
    64.8600       302
    64.8800       318
    64.9000       316
    64.9200       330
    64.9400       300
    64.9600       296
    64.9800       308
    65.0000       330
    65.0200       322
    65.0400       318
    65.0600       332
    65.0800       316
    65.1000       300
    65.1200       318
    65.1400       358
    65.1600       338
    65.1800       336
    65.2000       344
    65.2200       350
    65.2400       352
    65.2600       338
    65.2800       338
    65.3000       320
    65.3200       358
    65.3400       358
    65.3600       374
    65.3800       354
    65.4000       398
    65.4200       370
    65.4400       362
    65.4600       360
    65.4800       366
    65.5000       390
    65.5200       370
    65.5400       408
    65.5600       398
    65.5800       374
    65.6000       412
    65.6200       384
    65.6400       428
    65.6600       398
    65.6800       380
    65.7000       374
    65.7200       378
    65.7400       342
    65.7600       366
    65.7800       382
    65.8000       336
    65.8200       342
    65.8400       368
    65.8600       330
    65.8800       332
    65.9000       336
    65.9200       356
    65.9400       316
    65.9600       318
    65.9800       310
    66.0000       308
    66.0200       320
    66.0400       332
    66.0600       312
    66.0800       328
    66.1000       304
    66.1200       288
    66.1400       308
    66.1600       296
    66.1800       336
    66.2000       298
    66.2200       292
    66.2400       328
    66.2600       306
    66.2800       342
    66.3000       326
    66.3200       328
    66.3400       346
    66.3600       336
    66.3800       366
    66.4000       378
    66.4200       358
    66.4400       360
    66.4600       372
    66.4800       396
    66.5000       382
    66.5200       406
    66.5400       406
    66.5600       388
    66.5800       454
    66.6000       428
    66.6200       442
    66.6400       448
    66.6600       460
    66.6800       486
    66.7000       502
    66.7200       514
    66.7400       534
    66.7600       598
    66.7800       614
    66.8000       648
    66.8200       624
    66.8400       676
    66.8600       682
    66.8800       724
    66.9000       754
    66.9200       716
    66.9400       678
    66.9600       670
    66.9800       688
    67.0000       676
    67.0200       642
    67.0400       676
    67.0600       664
    67.0800       656
    67.1000       620
    67.1200       576
    67.1400       562
    67.1600       576
    67.1800       604
    67.2000       510
    67.2200       518
    67.2400       492
    67.2600       500
    67.2800       470
    67.3000       478
    67.3200       404
    67.3400       412
    67.3600       382
    67.3800       380
    67.4000       386
    67.4200       374
    67.4400       398
    67.4600       348
    67.4800       350
    67.5000       340
    67.5200       352
    67.5400       332
    67.5600       312
    67.5800       324
    67.6000       322
    67.6200       324
    67.6400       324
    67.6600       326
    67.6800       318
    67.7000       312
    67.7200       328
    67.7400       332
    67.7600       304
    67.7800       322
    67.8000       330
    67.8200       348
    67.8400       326
    67.8600       346
    67.8800       344
    67.9000       368
    67.9200       356
    67.9400       398
    67.9600       404
    67.9800       424
    68.0000       402
    68.0200       442
    68.0400       478
    68.0600       450
    68.0800       486
    68.1000       544
    68.1200       552
    68.1400       508
    68.1600       552
    68.1800       564
    68.2000       500
    68.2200       594
    68.2400       608
    68.2600       592
    68.2800       594
    68.3000       566
    68.3200       592
    68.3400       578
    68.3600       546
    68.3800       546
    68.4000       572
    68.4200       560
    68.4400       544
    68.4600       518
    68.4800       486
    68.5000       516
    68.5200       474
    68.5400       492
    68.5600       442
    68.5800       428
    68.6000       436
    68.6200       408
    68.6400       426
    68.6600       370
    68.6800       370
    68.7000       378
    68.7200       362
    68.7400       340
    68.7600       368
    68.7800       344
    68.8000       370
    68.8200       338
    68.8400       360
    68.8600       342
    68.8800       352
    68.9000       332
    68.9200       320
    68.9400       324
    68.9600       354
    68.9800       338
    69.0000       344
    69.0200       358
    69.0400       344
    69.0600       356
    69.0800       312
    69.1000       354
    69.1200       352
    69.1400       360
    69.1600       370
    69.1800       360
    69.2000       352
    69.2200       336
    69.2400       310
    69.2600       398
    69.2800       340
    69.3000       348
    69.3200       360
    69.3400       340
    69.3600       374
    69.3800       364
    69.4000       382
    69.4200       348
    69.4400       374
    69.4600       334
    69.4800       364
    69.5000       322
    69.5200       380
    69.5400       380
    69.5600       356
    69.5800       390
    69.6000       382
    69.6200       408
    69.6400       366
    69.6600       368
    69.6800       390
    69.7000       374
    69.7200       358
    69.7400       400
    69.7600       390
    69.7800       372
    69.8000       360
    69.8200       402
    69.8400       430
    69.8600       418
    69.8800       388
    69.9000       436
    69.9200       378
    69.9400       400
    69.9600       372
    69.9800       350
    70.0000       344
    70.0200       322
    70.0400       312
    70.0600       314
    70.0800       330
    70.1000       318
    70.1200       334
    70.1400       296
    70.1600       272
    70.1800       276
    70.2000       276
    70.2200       266
    70.2400       266
    70.2600       250
    70.2800       256
    70.3000       264
    70.3200       240
    70.3400       274
    70.3600       244
    70.3800       268
    70.4000       258
    70.4200       246
    70.4400       276
    70.4600       256
    70.4800       224
    70.5000       250
    70.5200       260
    70.5400       256
    70.5600       272
    70.5800       220
    70.6000       224
    70.6200       218
    70.6400       238
    70.6600       234
    70.6800       240
    70.7000       242
    70.7200       246
    70.7400       206
    70.7600       246
    70.7800       226
    70.8000       214
    70.8200       230
    70.8400       236
    70.8600       228
    70.8800       194
    70.9000       222
    70.9200       192
    70.9400       210
    70.9600       244
    70.9800       204
    71.0000       176
    71.0200       192
    71.0400       232
    71.0600       218
    71.0800       202
    71.1000       214
    71.1200       208
    71.1400       230
    71.1600       226
    71.1800       210
    71.2000       240
    71.2200       242
    71.2400       256
    71.2600       226
    71.2800       266
    71.3000       240
    71.3200       290
    71.3400       270
    71.3600       290
    71.3800       280
    71.4000       292
    71.4200       296
    71.4400       316
    71.4600       322
    71.4800       352
    71.5000       356
    71.5200       332
    71.5400       344
    71.5600       334
    71.5800       342
    71.6000       338
    71.6200       356
    71.6400       338
    71.6600       330
    71.6800       332
    71.7000       332
    71.7200       310
    71.7400       324
    71.7600       328
    71.7800       328
    71.8000       322
    71.8200       322
    71.8400       320
    71.8600       312
    71.8800       284
    71.9000       280
    71.9200       336
    71.9400       296
    71.9600       308
    71.9800       304
    72.0000       304
    72.0200       316
    72.0400       314
    72.0600       318
    72.0800       304
    72.1000       326
    72.1200       316
    72.1400       312
    72.1600       366
    72.1800       304
    72.2000       306
    72.2200       328
    72.2400       350
    72.2600       370
    72.2800       340
    72.3000       356
    72.3200       400
    72.3400       378
    72.3600       392
    72.3800       410
    72.4000       428
    72.4200       408
    72.4400       404
    72.4600       424
    72.4800       440
    72.5000       434
    72.5200       462
    72.5400       472
    72.5600       472
    72.5800       482
    72.6000       498
    72.6200       482
    72.6400       506
    72.6600       480
    72.6800       508
    72.7000       506
    72.7200       520
    72.7400       516
    72.7600       526
    72.7800       528
    72.8000       524
    72.8200       508
    72.8400       542
    72.8600       542
    72.8800       534
    72.9000       502
    72.9200       500
    72.9400       484
    72.9600       480
    72.9800       474
    73.0000       472
    73.0200       436
    73.0400       426
    73.0600       470
    73.0800       412
    73.1000       418
    73.1200       370
    73.1400       340
    73.1600       362
    73.1800       352
    73.2000       334
    73.2200       308
    73.2400       294
    73.2600       278
    73.2800       278
    73.3000       296
    73.3200       262
    73.3400       270
    73.3600       266
    73.3800       290
    73.4000       262
    73.4200       260
    73.4400       256
    73.4600       276
    73.4800       234
    73.5000       254
    73.5200       222
    73.5400       238
    73.5600       264
    73.5800       270
    73.6000       264
    73.6200       274
    73.6400       248
    73.6600       238
    73.6800       278
    73.7000       268
    73.7200       268
    73.7400       292
    73.7600       248
    73.7800       244
    73.8000       282
    73.8200       280
    73.8400       254
    73.8600       268
    73.8800       258
    73.9000       242
    73.9200       236
    73.9400       278
    73.9600       262
    73.9800       306
    74.0000       242
    74.0200       266
    74.0400       282
    74.0600       234
    74.0800       244
    74.1000       260
    74.1200       250
    74.1400       262
    74.1600       248
    74.1800       258
    74.2000       246
    74.2200       232
    74.2400       268
    74.2600       244
    74.2800       248
    74.3000       240
    74.3200       228
    74.3400       232
    74.3600       226
    74.3800       242
    74.4000       208
    74.4200       202
    74.4400       228
    74.4600       224
    74.4800       212
    74.5000       214
    74.5200       206
    74.5400       184
    74.5600       192
    74.5800       208
    74.6000       178
    74.6200       210
    74.6400       202
    74.6600       216
    74.6800       204
    74.7000       230
    74.7200       212
    74.7400       190
    74.7600       206
    74.7800       232
    74.8000       216
    74.8200       214
    74.8400       222
    74.8600       202
    74.8800       226
    74.9000       210
    74.9200       220
    74.9400       230
    74.9600       224
    74.9800       226
    75.0000       230
    75.0200       228
    75.0400       210
    75.0600       250
    75.0800       248
    75.1000       206
    75.1200       246
    75.1400       252
    75.1600       242
    75.1800       262
    75.2000       292
    75.2200       254
    75.2400       278
    75.2600       252
    75.2800       228
    75.3000       256
    75.3200       266
    75.3400       278
    75.3600       242
    75.3800       262
    75.4000       262
    75.4200       238
    75.4400       248
    75.4600       260
    75.4800       246
    75.5000       274
    75.5200       282
    75.5400       248
    75.5600       266
    75.5800       256
    75.6000       254
    75.6200       252
    75.6400       300
    75.6600       270
    75.6800       276
    75.7000       298
    75.7200       278
    75.7400       274
    75.7600       288
    75.7800       290
    75.8000       296
    75.8200       292
    75.8400       264
    75.8600       274
    75.8800       264
    75.9000       280
    75.9200       266
    75.9400       252
    75.9600       292
    75.9800       236
    76.0000       290
    76.0200       268
    76.0400       274
    76.0600       258
    76.0800       268
    76.1000       268
    76.1200       296
    76.1400       262
    76.1600       278
    76.1800       306
    76.2000       298
    76.2200       316
    76.2400       292
    76.2600       314
    76.2800       306
    76.3000       306
    76.3200       298
    76.3400       306
    76.3600       290
    76.3800       300
    76.4000       324
    76.4200       360
    76.4400       320
    76.4600       342
    76.4800       358
    76.5000       354
    76.5200       330
    76.5400       366
    76.5600       386
    76.5800       392
    76.6000       380
    76.6200       382
    76.6400       364
    76.6600       362
    76.6800       380
    76.7000       376
    76.7200       334
    76.7400       344
    76.7600       356
    76.7800       340
    76.8000       368
    76.8200       308
    76.8400       312
    76.8600       340
    76.8800       304
    76.9000       288
    76.9200       340
    76.9400       288
    76.9600       302
    76.9800       300
    77.0000       296
    77.0200       296
    77.0400       320
    77.0600       292
    77.0800       284
    77.1000       306
    77.1200       324
    77.1400       310
    77.1600       300
    77.1800       306
    77.2000       306
    77.2200       316
    77.2400       338
    77.2600       338
    77.2800       318
    77.3000       334
    77.3200       330
    77.3400       360
    77.3600       376
    77.3800       346
    77.4000       370
    77.4200       386
    77.4400       346
    77.4600       404
    77.4800       390
    77.5000       372
    77.5200       384
    77.5400       434
    77.5600       476
    77.5800       424
    77.6000       434
    77.6200       450
    77.6400       444
    77.6600       450
    77.6800       454
    77.7000       438
    77.7200       446
    77.7400       420
    77.7600       452
    77.7800       436
    77.8000       442
    77.8200       436
    77.8400       428
    77.8600       418
    77.8800       444
    77.9000       464
    77.9200       392
    77.9400       422
    77.9600       408
    77.9800       410
    78.0000       398
    78.0200       414
    78.0400       384
    78.0600       362
    78.0800       362
    78.1000       344
    78.1200       308
    78.1400       364
    78.1600       374
    78.1800       352
    78.2000       328
    78.2200       332
    78.2400       336
    78.2600       310
    78.2800       316
    78.3000       334
    78.3200       342
    78.3400       324
    78.3600       302
    78.3800       292
    78.4000       304
    78.4200       324
    78.4400       286
    78.4600       294
    78.4800       348
    78.5000       298
    78.5200       292
    78.5400       340
    78.5600       340
    78.5800       308
    78.6000       312
    78.6200       344
    78.6400       334
    78.6600       358
    78.6800       378
    78.7000       306
    78.7200       378
    78.7400       336
    78.7600       336
    78.7800       328
    78.8000       322
    78.8200       358
    78.8400       326
    78.8600       322
    78.8800       300
    78.9000       318
    78.9200       320
    78.9400       324
    78.9600       288
    78.9800       318
    79.0000       308
    79.0200       298
    79.0400       270
    79.0600       312
    79.0800       294
    79.1000       290
    79.1200       282
    79.1400       254
    79.1600       316
    79.1800       278
    79.2000       286
    79.2200       254
    79.2400       278
    79.2600       264
    79.2800       274
    79.3000       290
    79.3200       280
    79.3400       270
    79.3600       236
    79.3800       246
    79.4000       224
    79.4200       240
    79.4400       256
    79.4600       228
    79.4800       256
    79.5000       252
    79.5200       254
    79.5400       246
    79.5600       236
    79.5800       260
    79.6000       240
    79.6200       224
    79.6400       220
    79.6600       226
    79.6800       254
    79.7000       228
    79.7200       248
    79.7400       234
    79.7600       262
    79.7800       236
    79.8000       206
    79.8200       262
    79.8400       244
    79.8600       244
    79.8800       244
    79.9000       252
    79.9200       240
    79.9400       208
    79.9600       246
    79.9800       236
    80.0000       240
    80.0200       226
    80.0400       236
    80.0600       228
    80.0800       230
    80.1000       228
    80.1200       230
    80.1400       236
    80.1600       230
    80.1800       248
    80.2000       252
    80.2200       222
    80.2400       224
    80.2600       236
    80.2800       240
    80.3000       240
    80.3200       268
    80.3400       260
    80.3600       282
    80.3800       260
    80.4000       260
    80.4200       256
    80.4400       274
    80.4600       298
    80.4800       274
    80.5000       290
    80.5200       284
    80.5400       260
    80.5600       272
    80.5800       280
    80.6000       280
    80.6200       274
    80.6400       276
    80.6600       258
    80.6800       294
    80.7000       262
    80.7200       264
    80.7400       256
    80.7600       282
    80.7800       266
    80.8000       224
    80.8200       252
    80.8400       260
    80.8600       274
    80.8800       260
    80.9000       266
    80.9200       246
    80.9400       242
    80.9600       226
    80.9800       256
    81.0000       236
    81.0200       250
    81.0400       238
    81.0600       234
    81.0800       214
    81.1000       242
    81.1200       222
    81.1400       234
    81.1600       238
    81.1800       230
    81.2000       242
    81.2200       220
    81.2400       226
    81.2600       228
    81.2800       276
    81.3000       230
    81.3200       226
    81.3400       256
    81.3600       234
    81.3800       254
    81.4000       248
    81.4200       242
    81.4400       264
    81.4600       260
    81.4800       244
    81.5000       274
    81.5200       250
    81.5400       242
    81.5600       278
    81.5800       268
    81.6000       232
    81.6200       248
    81.6400       274
    81.6600       258
    81.6800       270
    81.7000       274
    81.7200       292
    81.7400       284
    81.7600       280
    81.7800       286
    81.8000       296
    81.8200       302
    81.8400       310
    81.8600       320
    81.8800       320
    81.9000       324
    81.9200       300
    81.9400       338
    81.9600       330
    81.9800       334
    82.0000       302
    82.0200       350
    82.0400       364
    82.0600       334
    82.0800       334
    82.1000       332
    82.1200       330
    82.1400       350
    82.1600       308
    82.1800       328
    82.2000       354
    82.2200       342
    82.2400       364
    82.2600       342
    82.2800       320
    82.3000       340
    82.3200       338
    82.3400       308
    82.3600       396
    82.3800       384
    82.4000       376
    82.4200       380
    82.4400       416
    82.4600       338
    82.4800       436
    82.5000       414
    82.5200       372
    82.5400       402
    82.5600       394
    82.5800       456
    82.6000       454
    82.6200       474
    82.6400       488
    82.6600       522
    82.6800       582
    82.7000       584
    82.7200       540
    82.7400       604
    82.7600       596
    82.7800       662
    82.8000       600
    82.8200       620
    82.8400       608
    82.8600       670
    82.8800       658
    82.9000       604
    82.9200       666
    82.9400       624
    82.9600       626
    82.9800       634
    83.0000       582
    83.0200       584
    83.0400       550
    83.0600       596
    83.0800       520
    83.1000       504
    83.1200       562
    83.1400       546
    83.1600       478
    83.1800       460
    83.2000       450
    83.2200       424
    83.2400       440
    83.2600       434
    83.2800       440
    83.3000       388
    83.3200       404
    83.3400       408
    83.3600       394
    83.3800       394
    83.4000       382
    83.4200       364
    83.4400       366
    83.4600       356
    83.4800       338
    83.5000       300
    83.5200       322
    83.5400       304
    83.5600       322
    83.5800       304
    83.6000       280
    83.6200       316
    83.6400       290
    83.6600       296
    83.6800       290
    83.7000       312
    83.7200       306
    83.7400       308
    83.7600       300
    83.7800       280
    83.8000       290
    83.8200       288
    83.8400       270
    83.8600       328
    83.8800       314
    83.9000       294
    83.9200       290
    83.9400       264
    83.9600       326
    83.9800       342
    84.0000       306
    84.0200       312
    84.0400       324
    84.0600       312
    84.0800       330
    84.1000       320
    84.1200       310
    84.1400       342
    84.1600       324
    84.1800       332
    84.2000       376
    84.2200       350
    84.2400       316
    84.2600       356
    84.2800       370
    84.3000       372
    84.3200       374
    84.3400       390
    84.3600       372
    84.3800       390
    84.4000       360
    84.4200       366
    84.4400       336
    84.4600       346
    84.4800       366
    84.5000       412
    84.5200       324
    84.5400       346
    84.5600       324
    84.5800       366
    84.6000       380
    84.6200       396
    84.6400       330
    84.6600       336
    84.6800       310
    84.7000       316
    84.7200       324
    84.7400       316
    84.7600       316
    84.7800       312
    84.8000       312
    84.8200       294
    84.8400       304
    84.8600       274
    84.8800       296
    84.9000       278
    84.9200       282
    84.9400       296
    84.9600       266
    84.9800       264
    85.0000       280
    85.0200       280
    85.0400       256
    85.0600       258
    85.0800       276
    85.1000       236
    85.1200       268
    85.1400       268
    85.1600       232
    85.1800       244
    85.2000       250
    85.2200       266
    85.2400       250
    85.2600       262
    85.2800       228
    85.3000       234
    85.3200       270
    85.3400       224
    85.3600       260
    85.3800       230
    85.4000       232
    85.4200       244
    85.4400       242
    85.4600       244
    85.4800       266
    85.5000       260
    85.5200       248
    85.5400       260
    85.5600       232
    85.5800       258
    85.6000       280
    85.6200       256
    85.6400       244
    85.6600       268
    85.6800       280
    85.7000       254
    85.7200       270
    85.7400       270
    85.7600       286
    85.7800       264
    85.8000       288
    85.8200       270
    85.8400       316
    85.8600       276
    85.8800       280
    85.9000       272
    85.9200       258
    85.9400       264
    85.9600       276
    85.9800       210
    86.0000       276
    86.0200       258
    86.0400       268
    86.0600       242
    86.0800       238
    86.1000       272
    86.1200       236
    86.1400       278
    86.1600       268
    86.1800       264
    86.2000       266
    86.2200       262
    86.2400       230
    86.2600       248
    86.2800       272
    86.3000       216
    86.3200       276
    86.3400       242
    86.3600       278
    86.3800       242
    86.4000       254
    86.4200       274
    86.4400       254
    86.4600       258
    86.4800       252
    86.5000       258
    86.5200       270
    86.5400       272
    86.5600       268
    86.5800       264
    86.6000       296
    86.6200       294
    86.6400       318
    86.6600       316
    86.6800       302
    86.7000       314
    86.7200       288
    86.7400       302
    86.7600       330
    86.7800       350
    86.8000       354
    86.8200       344
    86.8400       300
    86.8600       328
    86.8800       332
    86.9000       344
    86.9200       366
    86.9400       346
    86.9600       354
    86.9800       384
    87.0000       310
    87.0200       358
    87.0400       316
    87.0600       348
    87.0800       366
    87.1000       314
    87.1200       344
    87.1400       330
    87.1600       366
    87.1800       320
    87.2000       330
    87.2200       312
    87.2400       308
    87.2600       350
    87.2800       354
    87.3000       332
    87.3200       342
    87.3400       346
    87.3600       358
    87.3800       334
    87.4000       326
    87.4200       338
    87.4400       350
    87.4600       334
    87.4800       346
    87.5000       332
    87.5200       352
    87.5400       358
    87.5600       374
    87.5800       360
    87.6000       370
    87.6200       374
    87.6400       358
    87.6600       368
    87.6800       360
    87.7000       368
    87.7200       348
    87.7400       336
    87.7600       338
    87.7800       352
    87.8000       354
    87.8200       328
    87.8400       320
    87.8600       334
    87.8800       356
    87.9000       346
    87.9200       346
    87.9400       306
    87.9600       362
    87.9800       314
    88.0000       370
    88.0200       370
    88.0400       344
    88.0600       338
    88.0800       346
    88.1000       372
    88.1200       366
    88.1400       346
    88.1600       392
    88.1800       398
    88.2000       368
    88.2200       368
    88.2400       362
    88.2600       374
    88.2800       388
    88.3000       434
    88.3200       364
    88.3400       366
    88.3600       396
    88.3800       412
    88.4000       360
    88.4200       366
    88.4400       382
    88.4600       354
    88.4800       370
    88.5000       392
    88.5200       376
    88.5400       392
    88.5600       364
    88.5800       370
    88.6000       374
    88.6200       342
    88.6400       368
    88.6600       340
    88.6800       338
    88.7000       320
    88.7200       326
    88.7400       316
    88.7600       328
    88.7800       318
    88.8000       318
    88.8200       300
    88.8400       290
    88.8600       300
    88.8800       266
    88.9000       256
    88.9200       274
    88.9400       264
    88.9600       274
    88.9800       280
    89.0000       244
    89.0200       252
    89.0400       256
    89.0600       274
    89.0800       262
    89.1000       244
    89.1200       260
    89.1400       252
    89.1600       238
    89.1800       242
    89.2000       266
    89.2200       266
    89.2400       232
    89.2600       214
    89.2800       234
    89.3000       212
    89.3200       210
    89.3400       222
    89.3600       258
    89.3800       248
    89.4000       230
    89.4200       252
    89.4400       240
    89.4600       216
    89.4800       272
    89.5000       232
    89.5200       252
    89.5400       226
    89.5600       226
    89.5800       244
    89.6000       262
    89.6200       262
    89.6400       244
    89.6600       276
    89.6800       254
    89.7000       246
    89.7200       240
    89.7400       262
    89.7600       254
    89.7800       274
    89.8000       242
    89.8200       250
    89.8400       278
    89.8600       252
    89.8800       276
    89.9000       264
    89.9200       274
    89.9400       252
    89.9600       242
    89.9800       282
    90.0000       252
