    10.0000       370
    10.0200       356
    10.0400       374
    10.0600       382
    10.0800       370
    10.1000       330
    10.1200       366
    10.1400       378
    10.1600       364
    10.1800       340
    10.2000       368
    10.2200       354
    10.2400       374
    10.2600       348
    10.2800       334
    10.3000       330
    10.3200       348
    10.3400       318
    10.3600       390
    10.3800       368
    10.4000       354
    10.4200       330
    10.4400       344
    10.4600       340
    10.4800       374
    10.5000       360
    10.5200       360
    10.5400       340
    10.5600       336
    10.5800       372
    10.6000       320
    10.6200       386
    10.6400       342
    10.6600       360
    10.6800       314
    10.7000       378
    10.7200       312
    10.7400       356
    10.7600       358
    10.7800       330
    10.8000       338
    10.8200       294
    10.8400       334
    10.8600       314
    10.8800       338
    10.9000       300
    10.9200       320
    10.9400       310
    10.9600       328
    10.9800       330
    11.0000       352
    11.0200       332
    11.0400       326
    11.0600       358
    11.0800       358
    11.1000       316
    11.1200       328
    11.1400       342
    11.1600       354
    11.1800       314
    11.2000       304
    11.2200       330
    11.2400       322
    11.2600       306
    11.2800       298
    11.3000       300
    11.3200       318
    11.3400       318
    11.3600       336
    11.3800       328
    11.4000       354
    11.4200       304
    11.4400       312
    11.4600       304
    11.4800       346
    11.5000       346
    11.5200       320
    11.5400       316
    11.5600       332
    11.5800       334
    11.6000       362
    11.6200       306
    11.6400       322
    11.6600       322
    11.6800       322
    11.7000       334
    11.7200       356
    11.7400       326
    11.7600       316
    11.7800       368
    11.8000       374
    11.8200       326
    11.8400       390
    11.8600       402
    11.8800       382
    11.9000       386
    11.9200       458
    11.9400       442
    11.9600       410
    11.9800       450
    12.0000       494
    12.0200       506
    12.0400       548
    12.0600       584
    12.0800       592
    12.1000       650
    12.1200       682
    12.1400       744
    12.1600       812
    12.1800       806
    12.2000       866
    12.2200       890
    12.2400       784
    12.2600       706
    12.2800       584
    12.3000       490
    12.3200       414
    12.3400       414
    12.3600       382
    12.3800       358
    12.4000       332
    12.4200       336
    12.4400       352
    12.4600       340
    12.4800       302
    12.5000       356
    12.5200       316
    12.5400       320
    12.5600       308
    12.5800       284
    12.6000       312
    12.6200       292
    12.6400       310
    12.6600       276
    12.6800       278
    12.7000       272
    12.7200       292
    12.7400       296
    12.7600       350
    12.7800       308
    12.8000       294
    12.8200       262
    12.8400       288
    12.8600       306
    12.8800       286
    12.9000       288
    12.9200       332
    12.9400       286
    12.9600       302
    12.9800       262
    13.0000       288
    13.0200       286
    13.0400       284
    13.0600       270
    13.0800       282
    13.1000       306
    13.1200       302
    13.1400       312
    13.1600       256
    13.1800       266
    13.2000       282
    13.2200       274
    13.2400       290
    13.2600       272
    13.2800       276
    13.3000       282
    13.3200       270
    13.3400       274
    13.3600       278
    13.3800       284
    13.4000       290
    13.4200       282
    13.4400       270
    13.4600       252
    13.4800       286
    13.5000       280
    13.5200       294
    13.5400       286
    13.5600       246
    13.5800       270
    13.6000       260
    13.6200       286
    13.6400       290
    13.6600       274
    13.6800       270
    13.7000       278
    13.7200       294
    13.7400       292
    13.7600       256
    13.7800       276
    13.8000       274
    13.8200       268
    13.8400       300
    13.8600       264
    13.8800       312
    13.9000       264
    13.9200       296
    13.9400       290
    13.9600       264
    13.9800       252
    14.0000       292
    14.0200       262
    14.0400       284
    14.0600       318
    14.0800       276
    14.1000       294
    14.1200       234
    14.1400       272
    14.1600       238
    14.1800       288
    14.2000       276
    14.2200       278
    14.2400       280
    14.2600       248
    14.2800       288
    14.3000       274
    14.3200       266
    14.3400       296
    14.3600       280
    14.3800       302
    14.4000       288
    14.4200       276
    14.4400       268
    14.4600       308
    14.4800       276
    14.5000       314
    14.5200       276
    14.5400       296
    14.5600       304
    14.5800       302
    14.6000       308
    14.6200       328
    14.6400       310
    14.6600       306
    14.6800       356
    14.7000       376
    14.7200       348
    14.7400       422
    14.7600       440
    14.7800       414
    14.8000       464
    14.8200       568
    14.8400       586
    14.8600       578
    14.8800       648
    14.9000       722
    14.9200       812
    14.9400       860
    14.9600       966
    14.9800      1114
    15.0000      1142
    15.0200      1250
    15.0400      1286
    15.0600      1306
    15.0800      1254
    15.1000      1278
    15.1200      1334
    15.1400      1314
    15.1600      1436
    15.1800      1542
    15.2000      1542
    15.2200      1652
    15.2400      1476
    15.2600      1336
    15.2800      1056
    15.3000       798
    15.3200       686
    15.3400       582
    15.3600       508
    15.3800       416
    15.4000       392
    15.4200       366
    15.4400       340
    15.4600       354
    15.4800       310
    15.5000       344
    15.5200       312
    15.5400       272
    15.5600       292
    15.5800       288
    15.6000       272
    15.6200       290
    15.6400       286
    15.6600       256
    15.6800       266
    15.7000       258
    15.7200       280
    15.7400       274
    15.7600       256
    15.7800       260
    15.8000       266
    15.8200       264
    15.8400       264
    15.8600       264
    15.8800       268
    15.9000       244
    15.9200       250
    15.9400       262
    15.9600       224
    15.9800       244
    16.0000       262
    16.0200       304
    16.0400       250
    16.0600       276
    16.0800       270
    16.1000       330
    16.1200       288
    16.1400       314
    16.1600       302
    16.1800       318
    16.2000       332
    16.2200       316
    16.2400       346
    16.2600       320
    16.2800       338
    16.3000       324
    16.3200       352
    16.3400       328
    16.3600       322
    16.3800       338
    16.4000       296
    16.4200       306
    16.4400       316
    16.4600       304
    16.4800       334
    16.5000       286
    16.5200       298
    16.5400       330
    16.5600       316
    16.5800       338
    16.6000       320
    16.6200       348
    16.6400       358
    16.6600       374
    16.6800       444
    16.7000       430
    16.7200       478
    16.7400       506
    16.7600       508
    16.7800       556
    16.8000       606
    16.8200       654
    16.8400       800
    16.8600       794
    16.8800       862
    16.9000       988
    16.9200      1122
    16.9400      1264
    16.9600      1412
    16.9800      1752
    17.0000      1832
    17.0200      2034
    17.0400      2248
    17.0600      2520
    17.0800      2554
    17.1000      2460
    17.1200      2278
    17.1400      1826
    17.1600      1500
    17.1800      1256
    17.2000      1166
    17.2200      1138
    17.2400      1090
    17.2600      1042
    17.2800      1062
    17.3000      1086
    17.3200      1050
    17.3400      1012
    17.3600      1030
    17.3800       976
    17.4000       948
    17.4200      1014
    17.4400       996
    17.4600       978
    17.4800       958
    17.5000       918
    17.5200       812
    17.5400       686
    17.5600       720
    17.5800       626
    17.6000       574
    17.6200       626
    17.6400       566
    17.6600       640
    17.6800       690
    17.7000       720
    17.7200       820
    17.7400       796
    17.7600       862
    17.7800       970
    17.8000       870
    17.8200       886
    17.8400       866
    17.8600       796
    17.8800       746
    17.9000       648
    17.9200       532
    17.9400       440
    17.9600       396
    17.9800       356
    18.0000       338
    18.0200       314
    18.0400       298
    18.0600       304
    18.0800       306
    18.1000       260
    18.1200       262
    18.1400       262
    18.1600       242
    18.1800       252
    18.2000       196
    18.2200       232
    18.2400       252
    18.2600       238
    18.2800       252
    18.3000       232
    18.3200       236
    18.3400       264
    18.3600       230
    18.3800       250
    18.4000       218
    18.4200       246
    18.4400       236
    18.4600       242
    18.4800       238
    18.5000       208
    18.5200       266
    18.5400       212
    18.5600       236
    18.5800       228
    18.6000       238
    18.6200       274
    18.6400       246
    18.6600       232
    18.6800       246
    18.7000       254
    18.7200       234
    18.7400       240
    18.7600       220
    18.7800       244
    18.8000       244
    18.8200       234
    18.8400       226
    18.8600       212
    18.8800       260
    18.9000       270
    18.9200       244
    18.9400       226
    18.9600       242
    18.9800       262
    19.0000       260
    19.0200       258
    19.0400       270
    19.0600       262
    19.0800       272
    19.1000       288
    19.1200       286
    19.1400       296
    19.1600       268
    19.1800       302
    19.2000       332
    19.2200       318
    19.2400       344
    19.2600       350
    19.2800       392
    19.3000       408
    19.3200       440
    19.3400       436
    19.3600       520
    19.3800       574
    19.4000       580
    19.4200       686
    19.4400       736
    19.4600       782
    19.4800       830
    19.5000       958
    19.5200      1110
    19.5400      1174
    19.5600      1310
    19.5800      1340
    19.6000      1224
    19.6200      1136
    19.6400      1044
    19.6600       906
    19.6800       732
    19.7000       656
    19.7200       614
    19.7400       530
    19.7600       596
    19.7800       578
    19.8000       572
    19.8200       578
    19.8400       632
    19.8600       736
    19.8800       748
    19.9000       822
    19.9200       844
    19.9400       956
    19.9600       994
    19.9800      1006
    20.0000      1038
    20.0200      1056
    20.0400       998
    20.0600       906
    20.0800       852
    20.1000       696
    20.1200       602
    20.1400       524
    20.1600       520
    20.1800       434
    20.2000       436
    20.2200       378
    20.2400       370
    20.2600       340
    20.2800       316
    20.3000       308
    20.3200       310
    20.3400       292
    20.3600       278
    20.3800       290
    20.4000       248
    20.4200       288
    20.4400       272
    20.4600       242
    20.4800       254
    20.5000       260
    20.5200       266
    20.5400       246
    20.5600       280
    20.5800       266
    20.6000       258
    20.6200       276
    20.6400       240
    20.6600       264
    20.6800       266
    20.7000       236
    20.7200       300
    20.7400       274
    20.7600       314
    20.7800       322
    20.8000       370
    20.8200       374
    20.8400       366
    20.8600       390
    20.8800       424
    20.9000       480
    20.9200       498
    20.9400       650
    20.9600       586
    20.9800       694
    21.0000       776
    21.0200       882
    21.0400       976
    21.0600      1094
    21.0800      1300
    21.1000      1550
    21.1200      1786
    21.1400      2098
    21.1600      2264
    21.1800      2542
    21.2000      2758
    21.2200      2926
    21.2400      2740
    21.2600      2482
    21.2800      2166
    21.3000      1802
    21.3200      1422
    21.3400      1146
    21.3600       914
    21.3800       742
    21.4000       568
    21.4200       550
    21.4400       452
    21.4600       422
    21.4800       396
    21.5000       346
    21.5200       338
    21.5400       328
    21.5600       332
    21.5800       290
    21.6000       280
    21.6200       284
    21.6400       252
    21.6600       246
    21.6800       272
    21.7000       246
    21.7200       228
    21.7400       228
    21.7600       208
    21.7800       220
    21.8000       230
    21.8200       218
    21.8400       246
    21.8600       232
    21.8800       238
    21.9000       230
    21.9200       218
    21.9400       260
    21.9600       232
    21.9800       208
    22.0000       234
    22.0200       238
    22.0400       224
    22.0600       220
    22.0800       216
    22.1000       228
    22.1200       222
    22.1400       206
    22.1600       202
    22.1800       240
    22.2000       222
    22.2200       234
    22.2400       226
    22.2600       220
    22.2800       228
    22.3000       206
    22.3200       266
    22.3400       262
    22.3600       242
    22.3800       296
    22.4000       264
    22.4200       260
    22.4400       296
    22.4600       280
    22.4800       274
    22.5000       312
    22.5200       314
    22.5400       318
    22.5600       348
    22.5800       366
    22.6000       400
    22.6200       418
    22.6400       466
    22.6600       540
    22.6800       546
    22.7000       654
    22.7200       654
    22.7400       836
    22.7600       886
    22.7800      1038
    22.8000      1116
    22.8200      1258
    22.8400      1356
    22.8600      1506
    22.8800      1528
    22.9000      1542
    22.9200      1554
    22.9400      1364
    22.9600      1214
    22.9800      1052
    23.0000       878
    23.0200       704
    23.0400       600
    23.0600       540
    23.0800       488
    23.1000       420
    23.1200       378
    23.1400       380
    23.1600       316
    23.1800       344
    23.2000       278
    23.2200       300
    23.2400       330
    23.2600       262
    23.2800       278
    23.3000       260
    23.3200       280
    23.3400       262
    23.3600       252
    23.3800       214
    23.4000       248
    23.4200       258
    23.4400       236
    23.4600       238
    23.4800       232
    23.5000       220
    23.5200       228
    23.5400       242
    23.5600       214
    23.5800       234
    23.6000       248
    23.6200       216
    23.6400       244
    23.6600       244
    23.6800       240
    23.7000       232
    23.7200       236
    23.7400       242
    23.7600       258
    23.7800       210
    23.8000       264
    23.8200       276
    23.8400       206
    23.8600       254
    23.8800       264
    23.9000       232
    23.9200       240
    23.9400       254
    23.9600       238
    23.9800       262
    24.0000       278
    24.0200       254
    24.0400       278
    24.0600       252
    24.0800       306
    24.1000       276
    24.1200       328
    24.1400       332
    24.1600       332
    24.1800       340
    24.2000       362
    24.2200       398
    24.2400       406
    24.2600       412
    24.2800       464
    24.3000       514
    24.3200       544
    24.3400       636
    24.3600       730
    24.3800       760
    24.4000       840
    24.4200       966
    24.4400      1132
    24.4600      1314
    24.4800      1396
    24.5000      1626
    24.5200      1708
    24.5400      1800
    24.5600      1792
    24.5800      1788
    24.6000      1608
    24.6200      1504
    24.6400      1284
    24.6600      1204
    24.6800      1060
    24.7000       924
    24.7200       896
    24.7400       828
    24.7600       892
    24.7800       826
    24.8000       822
    24.8200       774
    24.8400       788
    24.8600       750
    24.8800       734
    24.9000       722
    24.9200       750
    24.9400       770
    24.9600       780
    24.9800       864
    25.0000       780
    25.0200       778
    25.0400       724
    25.0600       694
    25.0800       688
    25.1000       632
    25.1200       676
    25.1400       742
    25.1600       770
    25.1800       826
    25.2000       934
    25.2200       972
    25.2400      1118
    25.2600      1188
    25.2800      1296
    25.3000      1340
    25.3200      1386
    25.3400      1198
    25.3600      1188
    25.3800      1084
    25.4000       898
    25.4200       818
    25.4400       700
    25.4600       608
    25.4800       594
    25.5000       540
    25.5200       530
    25.5400       602
    25.5600       592
    25.5800       600
    25.6000       560
    25.6200       560
    25.6400       570
    25.6600       556
    25.6800       524
    25.7000       544
    25.7200       484
    25.7400       444
    25.7600       448
    25.7800       384
    25.8000       388
    25.8200       370
    25.8400       342
    25.8600       350
    25.8800       328
    25.9000       328
    25.9200       318
    25.9400       306
    25.9600       320
    25.9800       298
    26.0000       288
    26.0200       268
    26.0400       272
    26.0600       254
    26.0800       278
    26.1000       304
    26.1200       286
    26.1400       278
    26.1600       226
    26.1800       294
    26.2000       232
    26.2200       254
    26.2400       300
    26.2600       270
    26.2800       284
    26.3000       300
    26.3200       282
    26.3400       328
    26.3600       344
    26.3800       350
    26.4000       332
    26.4200       344
    26.4400       376
    26.4600       390
    26.4800       396
    26.5000       398
    26.5200       420
    26.5400       412
    26.5600       436
    26.5800       438
    26.6000       418
    26.6200       442
    26.6400       428
    26.6600       390
    26.6800       404
    26.7000       424
    26.7200       388
    26.7400       386
    26.7600       368
    26.7800       348
    26.8000       332
    26.8200       324
    26.8400       300
    26.8600       300
    26.8800       290
    26.9000       294
    26.9200       284
    26.9400       288
    26.9600       304
    26.9800       282
    27.0000       302
    27.0200       300
    27.0400       312
    27.0600       314
    27.0800       338
    27.1000       324
    27.1200       346
    27.1400       400
    27.1600       398
    27.1800       418
    27.2000       438
    27.2200       414
    27.2400       502
    27.2600       558
    27.2800       594
    27.3000       590
    27.3200       762
    27.3400       842
    27.3600       926
    27.3800      1034
    27.4000      1168
    27.4200      1362
    27.4400      1524
    27.4600      1740
    27.4800      1782
    27.5000      1844
    27.5200      1828
    27.5400      1716
    27.5600      1534
    27.5800      1438
    27.6000      1162
    27.6200       992
    27.6400       874
    27.6600       692
    27.6800       642
    27.7000       584
    27.7200       474
    27.7400       458
    27.7600       424
    27.7800       416
    27.8000       342
    27.8200       368
    27.8400       376
    27.8600       320
    27.8800       292
    27.9000       314
    27.9200       286
    27.9400       330
    27.9600       286
    27.9800       296
    28.0000       270
    28.0200       280
    28.0400       320
    28.0600       288
    28.0800       270
    28.1000       276
    28.1200       262
    28.1400       290
    28.1600       308
    28.1800       292
    28.2000       304
    28.2200       272
    28.2400       288
    28.2600       314
    28.2800       310
    28.3000       296
    28.3200       322
    28.3400       332
    28.3600       328
    28.3800       330
    28.4000       296
    28.4200       312
    28.4400       342
    28.4600       306
    28.4800       286
    28.5000       322
    28.5200       310
    28.5400       308
    28.5600       332
    28.5800       310
    28.6000       340
    28.6200       346
    28.6400       364
    28.6600       410
    28.6800       408
    28.7000       444
    28.7200       426
    28.7400       432
    28.7600       474
    28.7800       452
    28.8000       486
    28.8200       458
    28.8400       412
    28.8600       408
    28.8800       410
    28.9000       406
    28.9200       392
    28.9400       398
    28.9600       364
    28.9800       396
    29.0000       336
    29.0200       362
    29.0400       330
    29.0600       352
    29.0800       348
    29.1000       346
    29.1200       342
    29.1400       328
    29.1600       342
    29.1800       340
    29.2000       390
    29.2200       366
    29.2400       420
    29.2600       392
    29.2800       468
    29.3000       466
    29.3200       540
    29.3400       546
    29.3600       672
    29.3800       690
    29.4000       712
    29.4200       836
    29.4400       870
    29.4600       920
    29.4800       998
    29.5000       918
    29.5200      1066
    29.5400      1074
    29.5600      1146
    29.5800      1132
    29.6000      1260
    29.6200      1266
    29.6400      1406
    29.6600      1410
    29.6800      1378
    29.7000      1262
    29.7200      1198
    29.7400      1114
    29.7600      1004
    29.7800       912
    29.8000       904
    29.8200       844
    29.8400       798
    29.8600       786
    29.8800       790
    29.9000       810
    29.9200       840
    29.9400       862
    29.9600      1002
    29.9800      1082
    30.0000      1176
    30.0200      1326
    30.0400      1508
    30.0600      1780
    30.0800      1964
    30.1000      2296
    30.1200      2608
    30.1400      2982
    30.1600      3370
    30.1800      3634
    30.2000      3812
    30.2200      3856
    30.2400      3966
    30.2600      3920
    30.2800      3618
    30.3000      3432
    30.3200      3190
    30.3400      2932
    30.3600      2672
    30.3800      2390
    30.4000      2234
    30.4200      2174
    30.4400      2280
    30.4600      2282
    30.4800      2546
    30.5000      2720
    30.5200      2992
    30.5400      3464
    30.5600      3976
    30.5800      4464
    30.6000      5172
    30.6200      5860
    30.6400      6452
    30.6600      7208
    30.6800      7494
    30.7000      7528
    30.7200      7168
    30.7400      6794
    30.7600      5892
    30.7800      5264
    30.8000      4534
    30.8200      3874
    30.8400      3242
    30.8600      2764
    30.8800      2386
    30.9000      2444
    30.9200      2314
    30.9400      2394
    30.9600      2340
    30.9800      2368
    31.0000      2156
    31.0200      2002
    31.0400      1772
    31.0600      1688
    31.0800      1478
    31.1000      1234
    31.1200      1012
    31.1400       900
    31.1600       762
    31.1800       708
    31.2000       644
    31.2200       578
    31.2400       584
    31.2600       518
    31.2800       482
    31.3000       456
    31.3200       428
    31.3400       436
    31.3600       422
    31.3800       422
    31.4000       396
    31.4200       366
    31.4400       400
    31.4600       410
    31.4800       338
    31.5000       344
    31.5200       398
    31.5400       360
    31.5600       356
    31.5800       390
    31.6000       388
    31.6200       362
    31.6400       424
    31.6600       408
    31.6800       440
    31.7000       406
    31.7200       430
    31.7400       436
    31.7600       488
    31.7800       482
    31.8000       508
    31.8200       528
    31.8400       566
    31.8600       590
    31.8800       544
    31.9000       656
    31.9200       650
    31.9400       764
    31.9600       788
    31.9800       806
    32.0000       874
    32.0200       956
    32.0400       936
    32.0600       912
    32.0800       952
    32.1000       880
    32.1200       888
    32.1400       842
    32.1600       800
    32.1800       738
    32.2000       796
    32.2200       686
    32.2400       704
    32.2600       744
    32.2800       736
    32.3000       832
    32.3200       838
    32.3400       894
    32.3600       962
    32.3800      1114
    32.4000      1152
    32.4200      1338
    32.4400      1490
    32.4600      1622
    32.4800      1896
    32.5000      2068
    32.5200      2426
    32.5400      2538
    32.5600      2702
    32.5800      2904
    32.6000      2968
    32.6200      3024
    32.6400      2942
    32.6600      2818
    32.6800      2672
    32.7000      2446
    32.7200      2056
    32.7400      1836
    32.7600      1662
    32.7800      1400
    32.8000      1178
    32.8200      1104
    32.8400       994
    32.8600       906
    32.8800       798
    32.9000       768
    32.9200       690
    32.9400       708
    32.9600       724
    32.9800       688
    33.0000       692
    33.0200       700
    33.0400       704
    33.0600       724
    33.0800       724
    33.1000       768
    33.1200       814
    33.1400       750
    33.1600       700
    33.1800       676
    33.2000       608
    33.2200       596
    33.2400       516
    33.2600       494
    33.2800       450
    33.3000       406
    33.3200       428
    33.3400       398
    33.3600       370
    33.3800       364
    33.4000       336
    33.4200       328
    33.4400       302
    33.4600       332
    33.4800       320
    33.5000       286
    33.5200       286
    33.5400       236
    33.5600       270
    33.5800       252
    33.6000       264
    33.6200       242
    33.6400       262
    33.6600       236
    33.6800       266
    33.7000       262
    33.7200       258
    33.7400       254
    33.7600       240
    33.7800       252
    33.8000       228
    33.8200       254
    33.8400       226
    33.8600       240
    33.8800       240
    33.9000       248
    33.9200       274
    33.9400       266
    33.9600       272
    33.9800       218
    34.0000       246
    34.0200       250
    34.0400       260
    34.0600       262
    34.0800       240
    34.1000       256
    34.1200       250
    34.1400       246
    34.1600       298
    34.1800       258
    34.2000       296
    34.2200       302
    34.2400       282
    34.2600       320
    34.2800       314
    34.3000       314
    34.3200       356
    34.3400       370
    34.3600       380
    34.3800       370
    34.4000       440
    34.4200       430
    34.4400       488
    34.4600       544
    34.4800       640
    34.5000       680
    34.5200       670
    34.5400       714
    34.5600       698
    34.5800       658
    34.6000       626
    34.6200       604
    34.6400       524
    34.6600       492
    34.6800       482
    34.7000       418
    34.7200       370
    34.7400       396
    34.7600       334
    34.7800       390
    34.8000       342
    34.8200       346
    34.8400       338
    34.8600       330
    34.8800       344
    34.9000       324
    34.9200       348
    34.9400       320
    34.9600       368
    34.9800       300
    35.0000       268
    35.0200       324
    35.0400       328
    35.0600       308
    35.0800       342
    35.1000       318
    35.1200       342
    35.1400       336
    35.1600       312
    35.1800       274
    35.2000       326
    35.2200       306
    35.2400       318
    35.2600       308
    35.2800       298
    35.3000       306
    35.3200       328
    35.3400       312
    35.3600       336
    35.3800       302
    35.4000       308
    35.4200       308
    35.4400       292
    35.4600       274
    35.4800       318
    35.5000       276
    35.5200       302
    35.5400       280
    35.5600       318
    35.5800       296
    35.6000       296
    35.6200       286
    35.6400       282
    35.6600       302
    35.6800       288
    35.7000       304
    35.7200       338
    35.7400       354
    35.7600       342
    35.7800       344
    35.8000       370
    35.8200       388
    35.8400       404
    35.8600       402
    35.8800       440
    35.9000       476
    35.9200       476
    35.9400       496
    35.9600       544
    35.9800       566
    36.0000       654
    36.0200       686
    36.0400       740
    36.0600       760
    36.0800       820
    36.1000       862
    36.1200       882
    36.1400       846
    36.1600       786
    36.1800       754
    36.2000       736
    36.2200       696
    36.2400       676
    36.2600       592
    36.2800       564
    36.3000       444
    36.3200       448
    36.3400       468
    36.3600       440
    36.3800       406
    36.4000       384
    36.4200       344
    36.4400       382
    36.4600       386
    36.4800       370
    36.5000       342
    36.5200       360
    36.5400       384
    36.5600       358
    36.5800       382
    36.6000       450
    36.6200       436
    36.6400       448
    36.6600       478
    36.6800       416
    36.7000       422
    36.7200       480
    36.7400       514
    36.7600       574
    36.7800       574
    36.8000       682
    36.8200       668
    36.8400       756
    36.8600       844
    36.8800       856
    36.9000       902
    36.9200       910
    36.9400       984
    36.9600       992
    36.9800       956
    37.0000       972
    37.0200       908
    37.0400       972
    37.0600       932
    37.0800       960
    37.1000      1018
    37.1200      1018
    37.1400       990
    37.1600      1100
    37.1800      1000
    37.2000      1044
    37.2200      1060
    37.2400       944
    37.2600       974
    37.2800       914
    37.3000       892
    37.3200       784
    37.3400       710
    37.3600       658
    37.3800       586
    37.4000       540
    37.4200       544
    37.4400       482
    37.4600       494
    37.4800       498
    37.5000       476
    37.5200       494
    37.5400       454
    37.5600       490
    37.5800       468
    37.6000       464
    37.6200       452
    37.6400       478
    37.6600       484
    37.6800       440
    37.7000       514
    37.7200       498
    37.7400       522
    37.7600       588
    37.7800       532
    37.8000       596
    37.8200       618
    37.8400       664
    37.8600       684
    37.8800       758
    37.9000       854
    37.9200       904
    37.9400      1000
    37.9600      1050
    37.9800      1196
    38.0000      1254
    38.0200      1330
    38.0400      1314
    38.0600      1286
    38.0800      1274
    38.1000      1328
    38.1200      1286
    38.1400      1170
    38.1600      1116
    38.1800      1112
    38.2000      1074
    38.2200      1078
    38.2400       982
    38.2600      1102
    38.2800      1112
    38.3000      1142
    38.3200      1252
    38.3400      1272
    38.3600      1424
    38.3800      1510
    38.4000      1696
    38.4200      1796
    38.4400      2040
    38.4600      2232
    38.4800      2380
    38.5000      2754
    38.5200      3022
    38.5400      3282
    38.5600      3616
    38.5800      3928
    38.6000      4156
    38.6200      4280
    38.6400      4782
    38.6600      4680
    38.6800      4650
    38.7000      4462
    38.7200      4364
    38.7400      4014
    38.7600      3750
    38.7800      3496
    38.8000      3284
    38.8200      2864
    38.8400      2496
    38.8600      2260
    38.8800      2198
    38.9000      1934
    38.9200      1690
    38.9400      1626
    38.9600      1526
    38.9800      1536
    39.0000      1534
    39.0200      1490
    39.0400      1548
    39.0600      1588
    39.0800      1646
    39.1000      1690
    39.1200      1842
    39.1400      1826
    39.1600      1772
    39.1800      1784
    39.2000      1722
    39.2200      1708
    39.2400      1756
    39.2600      1640
    39.2800      1692
    39.3000      1620
    39.3200      1658
    39.3400      1530
    39.3600      1502
    39.3800      1422
    39.4000      1422
    39.4200      1370
    39.4400      1232
    39.4600      1216
    39.4800      1120
    39.5000      1034
    39.5200      1042
    39.5400       976
    39.5600      1004
    39.5800       922
    39.6000       956
    39.6200      1022
    39.6400       960
    39.6600      1028
    39.6800      1090
    39.7000      1058
    39.7200      1132
    39.7400      1118
    39.7600      1096
    39.7800      1128
    39.8000      1146
    39.8200      1166
    39.8400      1074
    39.8600       988
    39.8800       930
    39.9000       918
    39.9200       864
    39.9400       814
    39.9600       846
    39.9800       774
    40.0000       784
    40.0200       770
    40.0400       860
    40.0600       874
    40.0800       924
    40.1000      1024
    40.1200      1090
    40.1400      1196
    40.1600      1234
    40.1800      1318
    40.2000      1304
    40.2200      1352
    40.2400      1294
    40.2600      1198
    40.2800      1188
    40.3000      1172
    40.3200      1198
    40.3400      1088
    40.3600      1074
    40.3800      1072
    40.4000      1038
    40.4200      1120
    40.4400      1172
    40.4600      1178
    40.4800      1224
    40.5000      1290
    40.5200      1366
    40.5400      1342
    40.5600      1352
    40.5800      1366
    40.6000      1322
    40.6200      1304
    40.6400      1204
    40.6600      1134
    40.6800      1090
    40.7000       974
    40.7200       982
    40.7400       938
    40.7600       852
    40.7800       808
    40.8000       784
    40.8200       736
    40.8400       694
    40.8600       682
    40.8800       616
    40.9000       624
    40.9200       680
    40.9400       648
    40.9600       672
    40.9800       696
    41.0000       648
    41.0200       746
    41.0400       796
    41.0600       844
    41.0800       898
    41.1000      1010
    41.1200      1076
    41.1400      1232
    41.1600      1344
    41.1800      1480
    41.2000      1690
    41.2200      1896
    41.2400      2038
    41.2600      2174
    41.2800      2240
    41.3000      2330
    41.3200      2334
    41.3400      2470
    41.3600      2436
    41.3800      2308
    41.4000      2380
    41.4200      2332
    41.4400      2274
    41.4600      2164
    41.4800      2184
    41.5000      2138
    41.5200      1946
    41.5400      1938
    41.5600      1720
    41.5800      1574
    41.6000      1520
    41.6200      1382
    41.6400      1274
    41.6600      1120
    41.6800      1098
    41.7000       966
    41.7200       954
    41.7400       858
    41.7600       890
    41.7800       840
    41.8000       854
    41.8200       796
    41.8400       832
    41.8600       832
    41.8800       942
    41.9000       850
    41.9200       874
    41.9400       898
    41.9600       876
    41.9800       864
    42.0000       874
    42.0200       762
    42.0400       726
    42.0600       740
    42.0800       732
    42.1000       702
    42.1200       596
    42.1400       580
    42.1600       542
    42.1800       504
    42.2000       558
    42.2200       514
    42.2400       496
    42.2600       434
    42.2800       430
    42.3000       446
    42.3200       446
    42.3400       424
    42.3600       392
    42.3800       408
    42.4000       422
    42.4200       400
    42.4400       384
    42.4600       432
    42.4800       416
    42.5000       376
    42.5200       404
    42.5400       404
    42.5600       364
    42.5800       362
    42.6000       326
    42.6200       350
    42.6400       360
    42.6600       334
    42.6800       364
    42.7000       378
    42.7200       336
    42.7400       372
    42.7600       314
    42.7800       366
    42.8000       336
    42.8200       398
    42.8400       360
    42.8600       358
    42.8800       372
    42.9000       382
    42.9200       368
    42.9400       400
    42.9600       404
    42.9800       454
    43.0000       442
    43.0200       492
    43.0400       554
    43.0600       536
    43.0800       572
    43.1000       624
    43.1200       714
    43.1400       718
    43.1600       774
    43.1800       754
    43.2000       886
    43.2200       906
    43.2400       942
    43.2600       932
    43.2800       976
    43.3000       936
    43.3200       948
    43.3400       856
    43.3600       850
    43.3800       754
    43.4000       714
    43.4200       686
    43.4400       608
    43.4600       606
    43.4800       538
    43.5000       524
    43.5200       468
    43.5400       492
    43.5600       468
    43.5800       440
    43.6000       422
    43.6200       418
    43.6400       404
    43.6600       438
    43.6800       442
    43.7000       422
    43.7200       410
    43.7400       458
    43.7600       490
    43.7800       490
    43.8000       456
    43.8200       542
    43.8400       528
    43.8600       524
    43.8800       540
    43.9000       506
    43.9200       480
    43.9400       494
    43.9600       500
    43.9800       504
    44.0000       450
    44.0200       514
    44.0400       480
    44.0600       454
    44.0800       468
    44.1000       470
    44.1200       418
    44.1400       500
    44.1600       452
    44.1800       498
    44.2000       486
    44.2200       520
    44.2400       560
    44.2600       618
    44.2800       576
    44.3000       566
    44.3200       628
    44.3400       608
    44.3600       594
    44.3800       632
    44.4000       566
    44.4200       552
    44.4400       550
    44.4600       594
    44.4800       508
    44.5000       534
    44.5200       526
    44.5400       522
    44.5600       542
    44.5800       528
    44.6000       566
    44.6200       546
    44.6400       548
    44.6600       576
    44.6800       588
    44.7000       640
    44.7200       648
    44.7400       678
    44.7600       672
    44.7800       716
    44.8000       756
    44.8200       790
    44.8400       904
    44.8600       964
    44.8800      1062
    44.9000      1204
    44.9200      1354
    44.9400      1506
    44.9600      1664
    44.9800      1922
    45.0000      2108
    45.0200      2332
    45.0400      2442
    45.0600      2622
    45.0800      2650
    45.1000      2808
    45.1200      2644
    45.1400      2662
    45.1600      2666
    45.1800      2666
    45.2000      2700
    45.2200      2684
    45.2400      2556
    45.2600      2512
    45.2800      2578
    45.3000      2212
    45.3200      2198
    45.3400      2104
    45.3600      1994
    45.3800      1930
    45.4000      1836
    45.4200      1716
    45.4400      1626
    45.4600      1566
    45.4800      1632
    45.5000      1466
    45.5200      1504
    45.5400      1362
    45.5600      1288
    45.5800      1228
    45.6000      1200
    45.6200      1182
    45.6400      1086
    45.6600       998
    45.6800      1036
    45.7000       930
    45.7200       860
    45.7400       774
    45.7600       800
    45.7800       806
    45.8000       748
    45.8200       768
    45.8400       744
    45.8600       728
    45.8800       750
    45.9000       760
    45.9200       742
    45.9400       686
    45.9600       754
    45.9800       760
    46.0000       756
    46.0200       788
    46.0400       828
    46.0600       936
    46.0800       892
    46.1000       964
    46.1200       954
    46.1400       950
    46.1600       968
    46.1800       984
    46.2000       916
    46.2200       922
    46.2400       910
    46.2600       998
    46.2800       890
    46.3000       916
    46.3200       898
    46.3400       940
    46.3600      1010
    46.3800      1018
    46.4000      1014
    46.4200      1122
    46.4400      1248
    46.4600      1266
    46.4800      1350
    46.5000      1496
    46.5200      1510
    46.5400      1684
    46.5600      1752
    46.5800      1916
    46.6000      2048
    46.6200      2174
    46.6400      2354
    46.6600      2532
    46.6800      2794
    46.7000      2862
    46.7200      3078
    46.7400      3208
    46.7600      3298
    46.7800      3224
    46.8000      3108
    46.8200      3136
    46.8400      2882
    46.8600      2724
    46.8800      2520
    46.9000      2332
    46.9200      2092
    46.9400      1818
    46.9600      1704
    46.9800      1540
    47.0000      1408
    47.0200      1256
    47.0400      1078
    47.0600       982
    47.0800       938
    47.1000       914
    47.1200       862
    47.1400       756
    47.1600       716
    47.1800       692
    47.2000       622
    47.2200       636
    47.2400       580
    47.2600       542
    47.2800       496
    47.3000       512
    47.3200       552
    47.3400       464
    47.3600       488
    47.3800       442
    47.4000       460
    47.4200       494
    47.4400       430
    47.4600       440
    47.4800       484
    47.5000       440
    47.5200       436
    47.5400       408
    47.5600       412
    47.5800       416
    47.6000       408
    47.6200       436
    47.6400       438
    47.6600       398
    47.6800       436
    47.7000       414
    47.7200       430
    47.7400       438
    47.7600       430
    47.7800       446
    47.8000       428
    47.8200       464
    47.8400       524
    47.8600       498
    47.8800       502
    47.9000       494
    47.9200       466
    47.9400       484
    47.9600       522
    47.9800       520
    48.0000       490
    48.0200       512
    48.0400       478
    48.0600       498
    48.0800       494
    48.1000       520
    48.1200       440
    48.1400       548
    48.1600       506
    48.1800       570
    48.2000       528
    48.2200       576
    48.2400       632
    48.2600       634
    48.2800       622
    48.3000       638
    48.3200       690
    48.3400       728
    48.3600       720
    48.3800       774
    48.4000       802
    48.4200       880
    48.4400       890
    48.4600       948
    48.4800      1036
    48.5000      1176
    48.5200      1204
    48.5400      1348
    48.5600      1468
    48.5800      1520
    48.6000      1586
    48.6200      1610
    48.6400      1662
    48.6600      1596
    48.6800      1542
    48.7000      1464
    48.7200      1378
    48.7400      1356
    48.7600      1116
    48.7800      1130
    48.8000      1022
    48.8200       960
    48.8400       852
    48.8600       810
    48.8800       736
    48.9000       632
    48.9200       582
    48.9400       564
    48.9600       518
    48.9800       462
    49.0000       486
    49.0200       468
    49.0400       468
    49.0600       410
    49.0800       414
    49.1000       444
    49.1200       400
    49.1400       402
    49.1600       376
    49.1800       322
    49.2000       370
    49.2200       370
    49.2400       318
    49.2600       350
    49.2800       350
    49.3000       334
    49.3200       350
    49.3400       320
    49.3600       364
    49.3800       348
    49.4000       324
    49.4200       352
    49.4400       362
    49.4600       342
    49.4800       332
    49.5000       344
    49.5200       374
    49.5400       358
    49.5600       384
    49.5800       348
    49.6000       346
    49.6200       366
    49.6400       332
    49.6600       372
    49.6800       388
    49.7000       402
    49.7200       396
    49.7400       412
    49.7600       464
    49.7800       420
    49.8000       436
    49.8200       502
    49.8400       538
    49.8600       510
    49.8800       564
    49.9000       564
    49.9200       622
    49.9400       612
    49.9600       622
    49.9800       656
    50.0000       670
    50.0200       664
    50.0400       736
    50.0600       740
    50.0800       806
    50.1000       804
    50.1200       854
    50.1400       924
    50.1600       962
    50.1800      1100
    50.2000      1192
    50.2200      1318
    50.2400      1398
    50.2600      1598
    50.2800      1752
    50.3000      1708
    50.3200      1824
    50.3400      1858
    50.3600      1822
    50.3800      1856
    50.4000      1734
    50.4200      1734
    50.4400      1688
    50.4600      1654
    50.4800      1548
    50.5000      1514
    50.5200      1390
    50.5400      1338
    50.5600      1320
    50.5800      1214
    50.6000      1246
    50.6200      1242
    50.6400      1284
    50.6600      1476
    50.6800      1456
    50.7000      1560
    50.7200      1670
    50.7400      1830
    50.7600      1940
    50.7800      2066
    50.8000      2120
    50.8200      2228
    50.8400      2102
    50.8600      2158
    50.8800      2162
    50.9000      2000
    50.9200      1894
    50.9400      1778
    50.9600      1818
    50.9800      1690
    51.0000      1642
    51.0200      1570
    51.0400      1494
    51.0600      1410
    51.0800      1282
    51.1000      1356
    51.1200      1338
    51.1400      1346
    51.1600      1460
    51.1800      1552
    51.2000      1562
    51.2200      1644
    51.2400      1558
    51.2600      1612
    51.2800      1460
    51.3000      1456
    51.3200      1356
    51.3400      1302
    51.3600      1364
    51.3800      1270
    51.4000      1156
    51.4200      1158
    51.4400      1114
    51.4600      1018
    51.4800       904
    51.5000       964
    51.5200       876
    51.5400       898
    51.5600       872
    51.5800       890
    51.6000       912
    51.6200       942
    51.6400       990
    51.6600       996
    51.6800      1008
    51.7000      1128
    51.7200      1128
    51.7400      1220
    51.7600      1274
    51.7800      1346
    51.8000      1350
    51.8200      1466
    51.8400      1514
    51.8600      1572
    51.8800      1762
    51.9000      1830
    51.9200      1966
    51.9400      2026
    51.9600      2058
    51.9800      2070
    52.0000      2046
    52.0200      2010
    52.0400      1882
    52.0600      1776
    52.0800      1716
    52.1000      1574
    52.1200      1474
    52.1400      1370
    52.1600      1286
    52.1800      1140
    52.2000      1094
    52.2200       934
    52.2400       868
    52.2600       854
    52.2800       730
    52.3000       750
    52.3200       720
    52.3400       692
    52.3600       682
    52.3800       658
    52.4000       634
    52.4200       620
    52.4400       666
    52.4600       670
    52.4800       650
    52.5000       736
    52.5200       732
    52.5400       692
    52.5600       770
    52.5800       816
    52.6000       862
    52.6200       740
    52.6400       786
    52.6600       842
    52.6800       896
    52.7000       860
    52.7200       880
    52.7400       908
    52.7600       964
    52.7800       896
    52.8000       872
    52.8200       866
    52.8400       820
    52.8600       832
    52.8800       806
    52.9000       808
    52.9200       770
    52.9400       682
    52.9600       696
    52.9800       620
    53.0000       664
    53.0200       614
    53.0400       606
    53.0600       602
    53.0800       594
    53.1000       622
    53.1200       596
    53.1400       634
    53.1600       612
    53.1800       634
    53.2000       636
    53.2200       728
    53.2400       696
    53.2600       748
    53.2800       758
    53.3000       882
    53.3200       846
    53.3400       830
    53.3600       796
    53.3800       784
    53.4000       816
    53.4200       842
    53.4400       778
    53.4600       770
    53.4800       770
    53.5000       780
    53.5200       748
    53.5400       688
    53.5600       744
    53.5800       632
    53.6000       714
    53.6200       604
    53.6400       672
    53.6600       676
    53.6800       606
    53.7000       630
    53.7200       636
    53.7400       654
    53.7600       626
    53.7800       616
    53.8000       632
    53.8200       634
    53.8400       622
    53.8600       590
    53.8800       580
    53.9000       542
    53.9200       560
    53.9400       566
    53.9600       516
    53.9800       556
    54.0000       528
    54.0200       548
    54.0400       520
    54.0600       534
    54.0800       480
    54.1000       556
    54.1200       538
    54.1400       540
    54.1600       582
    54.1800       562
    54.2000       554
    54.2200       632
    54.2400       636
    54.2600       672
    54.2800       682
    54.3000       678
    54.3200       716
    54.3400       696
    54.3600       802
    54.3800       756
    54.4000       754
    54.4200       802
    54.4400       778
    54.4600       814
    54.4800       796
    54.5000       810
    54.5200       840
    54.5400       784
    54.5600       734
    54.5800       716
    54.6000       694
    54.6200       718
    54.6400       742
    54.6600       676
    54.6800       720
    54.7000       682
    54.7200       678
    54.7400       686
    54.7600       640
    54.7800       644
    54.8000       624
    54.8200       710
    54.8400       706
    54.8600       708
    54.8800       774
    54.9000       714
    54.9200       788
    54.9400       822
    54.9600       916
    54.9800       864
    55.0000       894
    55.0200       936
    55.0400       988
    55.0600      1094
    55.0800      1106
    55.1000      1212
    55.1200      1290
    55.1400      1320
    55.1600      1380
    55.1800      1452
    55.2000      1344
    55.2200      1386
    55.2400      1332
    55.2600      1290
    55.2800      1220
    55.3000      1206
    55.3200      1186
    55.3400      1134
    55.3600      1098
    55.3800      1018
    55.4000       988
    55.4200       882
    55.4400       834
    55.4600       798
    55.4800       724
    55.5000       674
    55.5200       632
    55.5400       598
    55.5600       550
    55.5800       498
    55.6000       506
    55.6200       478
    55.6400       486
    55.6600       404
    55.6800       398
    55.7000       420
    55.7200       358
    55.7400       388
    55.7600       396
    55.7800       370
    55.8000       344
    55.8200       348
    55.8400       384
    55.8600       334
    55.8800       376
    55.9000       316
    55.9200       330
    55.9400       364
    55.9600       308
    55.9800       296
    56.0000       320
    56.0200       300
    56.0400       320
    56.0600       338
    56.0800       326
    56.1000       294
    56.1200       294
    56.1400       322
    56.1600       300
    56.1800       334
    56.2000       322
    56.2200       340
    56.2400       312
    56.2600       340
    56.2800       338
    56.3000       308
    56.3200       328
    56.3400       336
    56.3600       342
    56.3800       334
    56.4000       370
    56.4200       352
    56.4400       404
    56.4600       384
    56.4800       382
    56.5000       404
    56.5200       412
    56.5400       444
    56.5600       442
    56.5800       424
    56.6000       462
    56.6200       486
    56.6400       486
    56.6600       530
    56.6800       594
    56.7000       572
    56.7200       606
    56.7400       694
    56.7600       630
    56.7800       654
    56.8000       698
    56.8200       678
    56.8400       634
    56.8600       634
    56.8800       634
    56.9000       586
    56.9200       574
    56.9400       532
    56.9600       520
    56.9800       522
    57.0000       508
    57.0200       470
    57.0400       460
    57.0600       456
    57.0800       414
    57.1000       468
    57.1200       406
    57.1400       454
    57.1600       454
    57.1800       434
    57.2000       466
    57.2200       478
    57.2400       496
    57.2600       534
    57.2800       548
    57.3000       536
    57.3200       536
    57.3400       574
    57.3600       638
    57.3800       646
    57.4000       688
    57.4200       744
    57.4400       758
    57.4600       756
    57.4800       724
    57.5000       764
    57.5200       724
    57.5400       726
    57.5600       748
    57.5800       726
    57.6000       700
    57.6200       708
    57.6400       682
    57.6600       738
    57.6800       638
    57.7000       730
    57.7200       702
    57.7400       712
    57.7600       762
    57.7800       686
    57.8000       722
    57.8200       732
    57.8400       714
    57.8600       704
    57.8800       710
    57.9000       716
    57.9200       690
    57.9400       658
    57.9600       650
    57.9800       682
    58.0000       662
    58.0200       606
    58.0400       598
    58.0600       578
    58.0800       554
    58.1000       588
    58.1200       592
    58.1400       610
    58.1600       582
    58.1800       610
    58.2000       672
    58.2200       660
    58.2400       672
    58.2600       622
    58.2800       716
    58.3000       732
    58.3200       718
    58.3400       714
    58.3600       742
    58.3800       802
    58.4000       768
    58.4200       776
    58.4400       870
    58.4600       866
    58.4800       886
    58.5000       884
    58.5200       914
    58.5400       956
    58.5600      1010
    58.5800      1028
    58.6000      1034
    58.6200      1020
    58.6400      1094
    58.6600      1072
    58.6800      1154
    58.7000      1178
    58.7200      1246
    58.7400      1298
    58.7600      1264
    58.7800      1218
    58.8000      1278
    58.8200      1274
    58.8400      1274
    58.8600      1290
    58.8800      1172
    58.9000      1150
    58.9200      1198
    58.9400      1044
    58.9600      1068
    58.9800      1138
    59.0000      1058
    59.0200      1014
    59.0400       944
    59.0600       958
    59.0800       904
    59.1000       924
    59.1200       918
    59.1400       908
    59.1600       880
    59.1800       920
    59.2000       874
    59.2200       962
    59.2400       984
    59.2600       990
    59.2800      1062
    59.3000      1086
    59.3200      1170
    59.3400      1248
    59.3600      1368
    59.3800      1442
    59.4000      1520
    59.4200      1632
    59.4400      1702
    59.4600      1770
    59.4800      1794
    59.5000      1784
    59.5200      1766
    59.5400      1734
    59.5600      1652
    59.5800      1618
    59.6000      1654
    59.6200      1648
    59.6400      1586
    59.6600      1570
    59.6800      1502
    59.7000      1534
    59.7200      1452
    59.7400      1480
    59.7600      1456
    59.7800      1490
    59.8000      1432
    59.8200      1550
    59.8400      1426
    59.8600      1420
    59.8800      1458
    59.9000      1412
    59.9200      1292
    59.9400      1258
    59.9600      1202
    59.9800      1130
    60.0000      1052
    60.0200      1036
    60.0400       982
    60.0600       952
    60.0800       886
    60.1000       850
    60.1200       800
    60.1400       718
    60.1600       680
    60.1800       676
    60.2000       584
    60.2200       542
    60.2400       532
    60.2600       508
    60.2800       476
    60.3000       478
    60.3200       458
    60.3400       468
    60.3600       464
    60.3800       460
    60.4000       486
    60.4200       408
    60.4400       432
    60.4600       400
    60.4800       468
    60.5000       426
    60.5200       420
    60.5400       418
    60.5600       436
    60.5800       432
    60.6000       474
    60.6200       468
    60.6400       488
    60.6600       482
    60.6800       488
    60.7000       452
    60.7200       492
    60.7400       436
    60.7600       474
    60.7800       450
    60.8000       474
    60.8200       500
    60.8400       522
    60.8600       502
    60.8800       540
    60.9000       554
    60.9200       556
    60.9400       594
    60.9600       610
    60.9800       656
    61.0000       686
    61.0200       708
    61.0400       746
    61.0600       774
    61.0800       808
    61.1000       906
    61.1200       830
    61.1400       906
    61.1600       910
    61.1800       900
    61.2000       906
    61.2200       984
    61.2400       926
    61.2600      1062
    61.2800      1030
    61.3000      1010
    61.3200      1076
    61.3400      1106
    61.3600      1110
    61.3800      1158
    61.4000      1132
    61.4200      1240
    61.4400      1208
    61.4600      1246
    61.4800      1356
    61.5000      1350
    61.5200      1464
    61.5400      1486
    61.5600      1504
    61.5800      1518
    61.6000      1426
    61.6200      1450
    61.6400      1372
    61.6600      1342
    61.6800      1286
    61.7000      1212
    61.7200      1164
    61.7400      1072
    61.7600      1056
    61.7800       960
    61.8000       904
    61.8200       842
    61.8400       792
    61.8600       720
    61.8800       726
    61.9000       708
    61.9200       618
    61.9400       572
    61.9600       628
    61.9800       556
    62.0000       544
    62.0200       494
    62.0400       516
    62.0600       464
    62.0800       478
    62.1000       466
    62.1200       456
    62.1400       464
    62.1600       452
    62.1800       474
    62.2000       458
    62.2200       436
    62.2400       418
    62.2600       400
    62.2800       406
    62.3000       410
    62.3200       414
    62.3400       432
    62.3600       392
    62.3800       392
    62.4000       384
    62.4200       380
    62.4400       370
    62.4600       406
    62.4800       352
    62.5000       398
    62.5200       384
    62.5400       400
    62.5600       388
    62.5800       402
    62.6000       446
    62.6200       384
    62.6400       466
    62.6600       430
    62.6800       452
    62.7000       482
    62.7200       422
    62.7400       454
    62.7600       468
    62.7800       444
    62.8000       498
    62.8200       460
    62.8400       472
    62.8600       436
    62.8800       424
    62.9000       418
    62.9200       434
    62.9400       470
    62.9600       408
    62.9800       380
    63.0000       436
    63.0200       406
    63.0400       362
    63.0600       388
    63.0800       364
    63.1000       360
    63.1200       364
    63.1400       334
    63.1600       346
    63.1800       288
    63.2000       308
    63.2200       318
    63.2400       296
    63.2600       278
    63.2800       294
    63.3000       312
    63.3200       254
    63.3400       284
    63.3600       296
    63.3800       286
    63.4000       292
    63.4200       296
    63.4400       330
    63.4600       332
    63.4800       300
    63.5000       336
    63.5200       338
    63.5400       360
    63.5600       340
    63.5800       374
    63.6000       388
    63.6200       390
    63.6400       372
    63.6600       398
    63.6800       400
    63.7000       458
    63.7200       492
    63.7400       504
    63.7600       510
    63.7800       540
    63.8000       570
    63.8200       626
    63.8400       692
    63.8600       690
    63.8800       714
    63.9000       726
    63.9200       740
    63.9400       738
    63.9600       718
    63.9800       706
    64.0000       664
    64.0200       660
    64.0400       704
    64.0600       632
    64.0800       632
    64.1000       598
    64.1200       580
    64.1400       582
    64.1600       504
    64.1800       508
    64.2000       508
    64.2200       496
    64.2400       414
    64.2600       448
    64.2800       412
    64.3000       438
    64.3200       358
    64.3400       390
    64.3600       392
    64.3800       408
    64.4000       352
    64.4200       374
    64.4400       372
    64.4600       382
    64.4800       354
    64.5000       346
    64.5200       328
    64.5400       360
    64.5600       356
    64.5800       378
    64.6000       376
    64.6200       336
    64.6400       334
    64.6600       276
    64.6800       346
    64.7000       342
    64.7200       326
    64.7400       342
    64.7600       288
    64.7800       326
    64.8000       280
    64.8200       302
    64.8400       306
    64.8600       254
    64.8800       280
    64.9000       308
    64.9200       266
    64.9400       258
    64.9600       296
    64.9800       306
    65.0000       306
    65.0200       298
    65.0400       336
    65.0600       330
    65.0800       316
    65.1000       304
    65.1200       282
    65.1400       370
    65.1600       308
    65.1800       344
    65.2000       354
    65.2200       338
    65.2400       316
    65.2600       324
    65.2800       342
    65.3000       332
    65.3200       356
    65.3400       366
    65.3600       370
    65.3800       360
    65.4000       358
    65.4200       386
    65.4400       374
    65.4600       378
    65.4800       376
    65.5000       394
    65.5200       400
    65.5400       352
    65.5600       434
    65.5800       392
    65.6000       446
    65.6200       422
    65.6400       458
    65.6600       420
    65.6800       422
    65.7000       440
    65.7200       402
    65.7400       402
    65.7600       386
    65.7800       358
    65.8000       360
    65.8200       404
    65.8400       376
    65.8600       328
    65.8800       370
    65.9000       376
    65.9200       356
    65.9400       308
    65.9600       328
    65.9800       352
    66.0000       316
    66.0200       292
    66.0400       336
    66.0600       330
    66.0800       316
    66.1000       322
    66.1200       320
    66.1400       334
    66.1600       330
    66.1800       300
    66.2000       338
    66.2200       330
    66.2400       314
    66.2600       278
    66.2800       332
    66.3000       338
    66.3200       300
    66.3400       340
    66.3600       376
    66.3800       346
    66.4000       368
    66.4200       388
    66.4400       404
    66.4600       392
    66.4800       376
    66.5000       390
    66.5200       404
    66.5400       418
    66.5600       406
    66.5800       432
    66.6000       448
    66.6200       478
    66.6400       474
    66.6600       500
    66.6800       494
    66.7000       504
    66.7200       516
    66.7400       530
    66.7600       578
    66.7800       574
    66.8000       604
    66.8200       626
    66.8400       648
    66.8600       662
    66.8800       694
    66.9000       672
    66.9200       794
    66.9400       790
    66.9600       822
    66.9800       812
    67.0000       812
    67.0200       764
    67.0400       788
    67.0600       790
    67.0800       760
    67.1000       756
    67.1200       782
    67.1400       720
    67.1600       692
    67.1800       638
    67.2000       636
    67.2200       610
    67.2400       616
    67.2600       600
    67.2800       558
    67.3000       514
    67.3200       524
    67.3400       470
    67.3600       490
    67.3800       420
    67.4000       392
    67.4200       406
    67.4400       380
    67.4600       360
    67.4800       392
    67.5000       354
    67.5200       364
    67.5400       366
    67.5600       384
    67.5800       402
    67.6000       346
    67.6200       322
    67.6400       312
    67.6600       318
    67.6800       306
    67.7000       352
    67.7200       326
    67.7400       310
    67.7600       342
    67.7800       330
    67.8000       332
    67.8200       294
    67.8400       320
    67.8600       334
    67.8800       316
    67.9000       352
    67.9200       358
    67.9400       372
    67.9600       342
    67.9800       354
    68.0000       418
    68.0200       426
    68.0400       418
    68.0600       376
    68.0800       428
    68.1000       456
    68.1200       454
    68.1400       476
    68.1600       478
    68.1800       546
    68.2000       570
    68.2200       542
    68.2400       582
    68.2600       574
    68.2800       556
    68.3000       604
    68.3200       620
    68.3400       618
    68.3600       618
    68.3800       642
    68.4000       592
    68.4200       578
    68.4400       602
    68.4600       590
    68.4800       530
    68.5000       578
    68.5200       590
    68.5400       554
    68.5600       548
    68.5800       504
    68.6000       524
    68.6200       500
    68.6400       504
    68.6600       460
    68.6800       474
    68.7000       414
    68.7200       396
    68.7400       406
    68.7600       394
    68.7800       398
    68.8000       392
    68.8200       378
    68.8400       354
    68.8600       360
    68.8800       358
    68.9000       352
    68.9200       344
    68.9400       340
    68.9600       318
    68.9800       344
    69.0000       346
    69.0200       346
    69.0400       354
    69.0600       346
    69.0800       348
    69.1000       358
    69.1200       366
    69.1400       324
    69.1600       366
    69.1800       352
    69.2000       358
    69.2200       360
    69.2400       384
    69.2600       332
    69.2800       370
    69.3000       344
    69.3200       328
    69.3400       384
    69.3600       344
    69.3800       324
    69.4000       358
    69.4200       350
    69.4400       384
    69.4600       386
    69.4800       370
    69.5000       364
    69.5200       396
    69.5400       384
    69.5600       358
    69.5800       380
    69.6000       366
    69.6200       314
    69.6400       402
    69.6600       380
    69.6800       400
    69.7000       386
    69.7200       358
    69.7400       412
    69.7600       390
    69.7800       386
    69.8000       388
    69.8200       392
    69.8400       438
    69.8600       412
    69.8800       460
    69.9000       450
    69.9200       432
    69.9400       408
    69.9600       408
    69.9800       392
    70.0000       380
    70.0200       388
    70.0400       392
    70.0600       374
    70.0800       378
    70.1000       330
    70.1200       368
    70.1400       378
    70.1600       422
    70.1800       320
    70.2000       354
    70.2200       324
    70.2400       320
    70.2600       346
    70.2800       316
    70.3000       354
    70.3200       340
    70.3400       308
    70.3600       354
    70.3800       302
    70.4000       286
    70.4200       266
    70.4400       290
    70.4600       280
    70.4800       276
    70.5000       302
    70.5200       266
    70.5400       252
    70.5600       302
    70.5800       272
    70.6000       270
    70.6200       244
    70.6400       254
    70.6600       222
    70.6800       258
    70.7000       244
    70.7200       228
    70.7400       258
    70.7600       266
    70.7800       224
    70.8000       244
    70.8200       240
    70.8400       248
    70.8600       230
    70.8800       220
    70.9000       202
    70.9200       234
    70.9400       232
    70.9600       238
    70.9800       206
    71.0000       184
    71.0200       190
    71.0400       226
    71.0600       216
    71.0800       258
    71.1000       218
    71.1200       236
    71.1400       226
    71.1600       214
    71.1800       220
    71.2000       244
    71.2200       248
    71.2400       246
    71.2600       230
    71.2800       254
    71.3000       254
    71.3200       262
    71.3400       276
    71.3600       260
    71.3800       262
    71.4000       246
    71.4200       272
    71.4400       292
    71.4600       292
    71.4800       346
    71.5000       314
    71.5200       318
    71.5400       364
    71.5600       324
    71.5800       324
    71.6000       332
    71.6200       354
    71.6400       392
    71.6600       336
    71.6800       358
    71.7000       360
    71.7200       336
    71.7400       342
    71.7600       356
    71.7800       320
    71.8000       306
    71.8200       334
    71.8400       320
    71.8600       332
    71.8800       308
    71.9000       338
    71.9200       304
    71.9400       312
    71.9600       292
    71.9800       300
    72.0000       306
    72.0200       300
    72.0400       314
    72.0600       324
    72.0800       320
    72.1000       280
    72.1200       300
    72.1400       330
    72.1600       302
    72.1800       380
    72.2000       340
    72.2200       326
    72.2400       350
    72.2600       330
    72.2800       330
    72.3000       372
    72.3200       412
    72.3400       424
    72.3600       432
    72.3800       414
    72.4000       440
    72.4200       414
    72.4400       450
    72.4600       458
    72.4800       496
    72.5000       516
    72.5200       458
    72.5400       462
    72.5600       482
    72.5800       528
    72.6000       532
    72.6200       546
    72.6400       534
    72.6600       532
    72.6800       556
    72.7000       576
    72.7200       544
    72.7400       554
    72.7600       550
    72.7800       636
    72.8000       594
    72.8200       604
    72.8400       598
    72.8600       598
    72.8800       586
    72.9000       510
    72.9200       618
    72.9400       602
    72.9600       524
    72.9800       582
    73.0000       470
    73.0200       514
    73.0400       496
    73.0600       428
    73.0800       448
    73.1000       448
    73.1200       374
    73.1400       370
    73.1600       340
    73.1800       354
    73.2000       364
    73.2200       348
    73.2400       334
    73.2600       308
    73.2800       308
    73.3000       278
    73.3200       278
    73.3400       260
    73.3600       264
    73.3800       254
    73.4000       232
    73.4200       238
    73.4400       252
    73.4600       242
    73.4800       232
    73.5000       242
    73.5200       250
    73.5400       198
    73.5600       260
    73.5800       218
    73.6000       262
    73.6200       230
    73.6400       262
    73.6600       234
    73.6800       226
    73.7000       220
    73.7200       250
    73.7400       280
    73.7600       238
    73.7800       244
    73.8000       262
    73.8200       252
    73.8400       262
    73.8600       264
    73.8800       250
    73.9000       268
    73.9200       258
    73.9400       254
    73.9600       272
    73.9800       252
    74.0000       266
    74.0200       230
    74.0400       256
    74.0600       244
    74.0800       268
    74.1000       258
    74.1200       250
    74.1400       252
    74.1600       242
    74.1800       256
    74.2000       236
    74.2200       232
    74.2400       244
    74.2600       234
    74.2800       222
    74.3000       248
    74.3200       204
    74.3400       222
    74.3600       212
    74.3800       214
    74.4000       202
    74.4200       222
    74.4400       212
    74.4600       194
    74.4800       224
    74.5000       226
    74.5200       254
    74.5400       222
    74.5600       236
    74.5800       210
    74.6000       234
    74.6200       222
    74.6400       230
    74.6600       222
    74.6800       242
    74.7000       236
    74.7200       246
    74.7400       218
    74.7600       222
    74.7800       244
    74.8000       230
    74.8200       196
    74.8400       244
    74.8600       228
    74.8800       264
    74.9000       226
    74.9200       230
    74.9400       250
    74.9600       242
    74.9800       210
    75.0000       262
    75.0200       242
    75.0400       230
    75.0600       282
    75.0800       222
    75.1000       238
    75.1200       284
    75.1400       274
    75.1600       286
    75.1800       306
    75.2000       246
    75.2200       266
    75.2400       292
    75.2600       268
    75.2800       302
    75.3000       280
    75.3200       290
    75.3400       276
    75.3600       286
    75.3800       284
    75.4000       268
    75.4200       316
    75.4400       270
    75.4600       266
    75.4800       296
    75.5000       318
    75.5200       246
    75.5400       256
    75.5600       250
    75.5800       258
    75.6000       260
    75.6200       268
    75.6400       274
    75.6600       304
    75.6800       278
    75.7000       272
    75.7200       260
    75.7400       270
    75.7600       288
    75.7800       262
    75.8000       284
    75.8200       264
    75.8400       296
    75.8600       302
    75.8800       302
    75.9000       276
    75.9200       274
    75.9400       324
    75.9600       284
    75.9800       306
    76.0000       268
    76.0200       310
    76.0400       300
    76.0600       292
    76.0800       286
    76.1000       286
    76.1200       276
    76.1400       320
    76.1600       312
    76.1800       292
    76.2000       284
    76.2200       300
    76.2400       260
    76.2600       312
    76.2800       316
    76.3000       290
    76.3200       292
    76.3400       308
    76.3600       296
    76.3800       314
    76.4000       336
    76.4200       340
    76.4400       304
    76.4600       374
    76.4800       358
    76.5000       346
    76.5200       352
    76.5400       394
    76.5600       356
    76.5800       360
    76.6000       418
    76.6200       410
    76.6400       418
    76.6600       386
    76.6800       392
    76.7000       418
    76.7200       408
    76.7400       358
    76.7600       384
    76.7800       426
    76.8000       402
    76.8200       360
    76.8400       344
    76.8600       372
    76.8800       400
    76.9000       358
    76.9200       360
    76.9400       342
    76.9600       334
    76.9800       338
    77.0000       320
    77.0200       320
    77.0400       316
    77.0600       320
    77.0800       314
    77.1000       284
    77.1200       294
    77.1400       348
    77.1600       314
    77.1800       334
    77.2000       316
    77.2200       354
    77.2400       304
    77.2600       330
    77.2800       326
    77.3000       360
    77.3200       306
    77.3400       360
    77.3600       328
    77.3800       336
    77.4000       340
    77.4200       352
    77.4400       374
    77.4600       360
    77.4800       372
    77.5000       374
    77.5200       368
    77.5400       390
    77.5600       386
    77.5800       412
    77.6000       406
    77.6200       392
    77.6400       424
    77.6600       420
    77.6800       418
    77.7000       416
    77.7200       442
    77.7400       454
    77.7600       466
    77.7800       456
    77.8000       476
    77.8200       438
    77.8400       452
    77.8600       490
    77.8800       480
    77.9000       478
    77.9200       444
    77.9400       446
    77.9600       482
    77.9800       432
    78.0000       424
    78.0200       452
    78.0400       410
    78.0600       390
    78.0800       394
    78.1000       388
    78.1200       378
    78.1400       350
    78.1600       392
    78.1800       340
    78.2000       306
    78.2200       304
    78.2400       332
    78.2600       298
    78.2800       316
    78.3000       286
    78.3200       296
    78.3400       280
    78.3600       316
    78.3800       284
    78.4000       288
    78.4200       292
    78.4400       298
    78.4600       300
    78.4800       316
    78.5000       276
    78.5200       292
    78.5400       312
    78.5600       326
    78.5800       306
    78.6000       278
    78.6200       302
    78.6400       336
    78.6600       340
    78.6800       332
    78.7000       304
    78.7200       338
    78.7400       338
    78.7600       346
    78.7800       332
    78.8000       302
    78.8200       334
    78.8400       352
    78.8600       338
    78.8800       334
    78.9000       338
    78.9200       348
    78.9400       348
    78.9600       312
    78.9800       298
    79.0000       314
    79.0200       322
    79.0400       292
    79.0600       314
    79.0800       324
    79.1000       336
    79.1200       330
    79.1400       290
    79.1600       332
    79.1800       300
    79.2000       308
    79.2200       266
    79.2400       260
    79.2600       290
    79.2800       272
    79.3000       282
    79.3200       284
    79.3400       294
    79.3600       322
    79.3800       254
    79.4000       266
    79.4200       264
    79.4400       274
    79.4600       268
    79.4800       274
    79.5000       252
    79.5200       274
    79.5400       256
    79.5600       250
    79.5800       258
    79.6000       244
    79.6200       234
    79.6400       248
    79.6600       250
    79.6800       232
    79.7000       238
    79.7200       230
    79.7400       256
    79.7600       240
    79.7800       238
    79.8000       256
    79.8200       240
    79.8400       224
    79.8600       234
    79.8800       234
    79.9000       206
    79.9200       208
    79.9400       204
    79.9600       238
    79.9800       230
    80.0000       270
    80.0200       252
    80.0400       228
    80.0600       222
    80.0800       246
    80.1000       214
    80.1200       234
    80.1400       244
    80.1600       248
    80.1800       210
    80.2000       266
    80.2200       222
    80.2400       214
    80.2600       210
    80.2800       256
    80.3000       222
    80.3200       252
    80.3400       250
    80.3600       254
    80.3800       284
    80.4000       244
    80.4200       230
    80.4400       270
    80.4600       286
    80.4800       288
    80.5000       304
    80.5200       322
    80.5400       312
    80.5600       320
    80.5800       294
    80.6000       312
    80.6200       264
    80.6400       300
    80.6600       310
    80.6800       276
    80.7000       286
    80.7200       298
    80.7400       296
    80.7600       288
    80.7800       270
    80.8000       272
    80.8200       270
    80.8400       274
    80.8600       252
    80.8800       258
    80.9000       254
    80.9200       284
    80.9400       226
    80.9600       242
    80.9800       222
    81.0000       234
    81.0200       222
    81.0400       246
    81.0600       216
    81.0800       216
    81.1000       216
    81.1200       224
    81.1400       234
    81.1600       216
    81.1800       228
    81.2000       226
    81.2200       284
    81.2400       258
    81.2600       266
    81.2800       254
    81.3000       260
    81.3200       260
    81.3400       236
    81.3600       240
    81.3800       252
    81.4000       242
    81.4200       280
    81.4400       272
    81.4600       256
    81.4800       286
    81.5000       264
    81.5200       308
    81.5400       254
    81.5600       258
    81.5800       252
    81.6000       264
    81.6200       240
    81.6400       300
    81.6600       280
    81.6800       272
    81.7000       290
    81.7200       274
    81.7400       304
    81.7600       282
    81.7800       304
    81.8000       326
    81.8200       334
    81.8400       310
    81.8600       304
    81.8800       336
    81.9000       298
    81.9200       330
    81.9400       314
    81.9600       320
    81.9800       330
    82.0000       310
    82.0200       308
    82.0400       344
    82.0600       344
    82.0800       316
    82.1000       326
    82.1200       318
    82.1400       312
    82.1600       310
    82.1800       336
    82.2000       342
    82.2200       346
    82.2400       380
    82.2600       338
    82.2800       336
    82.3000       336
    82.3200       334
    82.3400       292
    82.3600       310
    82.3800       328
    82.4000       362
    82.4200       362
    82.4400       336
    82.4600       356
    82.4800       364
    82.5000       374
    82.5200       386
    82.5400       376
    82.5600       388
    82.5800       450
    82.6000       430
    82.6200       428
    82.6400       470
    82.6600       486
    82.6800       502
    82.7000       476
    82.7200       506
    82.7400       514
    82.7600       582
    82.7800       564
    82.8000       602
    82.8200       632
    82.8400       644
    82.8600       674
    82.8800       712
    82.9000       736
    82.9200       730
    82.9400       710
    82.9600       630
    82.9800       722
    83.0000       688
    83.0200       690
    83.0400       682
    83.0600       576
    83.0800       640
    83.1000       598
    83.1200       612
    83.1400       600
    83.1600       580
    83.1800       580
    83.2000       574
    83.2200       586
    83.2400       502
    83.2600       514
    83.2800       520
    83.3000       480
    83.3200       474
    83.3400       442
    83.3600       456
    83.3800       438
    83.4000       422
    83.4200       412
    83.4400       390
    83.4600       378
    83.4800       380
    83.5000       330
    83.5200       312
    83.5400       352
    83.5600       344
    83.5800       368
    83.6000       340
    83.6200       328
    83.6400       342
    83.6600       316
    83.6800       306
    83.7000       302
    83.7200       302
    83.7400       334
    83.7600       328
    83.7800       306
    83.8000       310
    83.8200       282
    83.8400       342
    83.8600       322
    83.8800       318
    83.9000       338
    83.9200       322
    83.9400       380
    83.9600       336
    83.9800       392
    84.0000       384
    84.0200       376
    84.0400       388
    84.0600       414
    84.0800       378
    84.1000       406
    84.1200       368
    84.1400       376
    84.1600       410
    84.1800       412
    84.2000       370
    84.2200       412
    84.2400       346
    84.2600       394
    84.2800       434
    84.3000       404
    84.3200       388
    84.3400       408
    84.3600       388
    84.3800       360
    84.4000       386
    84.4200       394
    84.4400       392
    84.4600       424
    84.4800       418
    84.5000       408
    84.5200       384
    84.5400       362
    84.5600       364
    84.5800       338
    84.6000       376
    84.6200       376
    84.6400       376
    84.6600       356
    84.6800       340
    84.7000       326
    84.7200       350
    84.7400       370
    84.7600       324
    84.7800       334
    84.8000       356
    84.8200       320
    84.8400       320
    84.8600       306
    84.8800       272
    84.9000       304
    84.9200       304
    84.9400       296
    84.9600       284
    84.9800       294
    85.0000       280
    85.0200       262
    85.0400       272
    85.0600       296
    85.0800       296
    85.1000       282
    85.1200       256
    85.1400       264
    85.1600       282
    85.1800       256
    85.2000       266
    85.2200       294
    85.2400       254
    85.2600       256
    85.2800       288
    85.3000       272
    85.3200       246
    85.3400       260
    85.3600       244
    85.3800       220
    85.4000       232
    85.4200       262
    85.4400       246
    85.4600       274
    85.4800       242
    85.5000       256
    85.5200       254
    85.5400       254
    85.5600       290
    85.5800       268
    85.6000       268
    85.6200       294
    85.6400       306
    85.6600       304
    85.6800       260
    85.7000       328
    85.7200       278
    85.7400       280
    85.7600       280
    85.7800       296
    85.8000       310
    85.8200       322
    85.8400       268
    85.8600       316
    85.8800       304
    85.9000       294
    85.9200       292
    85.9400       284
    85.9600       266
    85.9800       316
    86.0000       286
    86.0200       288
    86.0400       302
    86.0600       260
    86.0800       274
    86.1000       292
    86.1200       244
    86.1400       264
    86.1600       272
    86.1800       252
    86.2000       258
    86.2200       246
    86.2400       248
    86.2600       234
    86.2800       254
    86.3000       232
    86.3200       248
    86.3400       248
    86.3600       272
    86.3800       244
    86.4000       268
    86.4200       276
    86.4400       276
    86.4600       226
    86.4800       258
    86.5000       296
    86.5200       264
    86.5400       268
    86.5600       248
    86.5800       284
    86.6000       268
    86.6200       272
    86.6400       298
    86.6600       280
    86.6800       310
    86.7000       308
    86.7200       346
    86.7400       336
    86.7600       346
    86.7800       340
    86.8000       378
    86.8200       346
    86.8400       374
    86.8600       348
    86.8800       396
    86.9000       370
    86.9200       346
    86.9400       372
    86.9600       364
    86.9800       374
    87.0000       424
    87.0200       362
    87.0400       364
    87.0600       388
    87.0800       368
    87.1000       412
    87.1200       338
    87.1400       370
    87.1600       368
    87.1800       344
    87.2000       334
    87.2200       342
    87.2400       358
    87.2600       360
    87.2800       318
    87.3000       344
    87.3200       348
    87.3400       306
    87.3600       326
    87.3800       282
    87.4000       330
    87.4200       350
    87.4400       352
    87.4600       324
    87.4800       332
    87.5000       294
    87.5200       294
    87.5400       344
    87.5600       352
    87.5800       342
    87.6000       348
    87.6200       392
    87.6400       366
    87.6600       322
    87.6800       374
    87.7000       404
    87.7200       370
    87.7400       414
    87.7600       430
    87.7800       404
    87.8000       382
    87.8200       406
    87.8400       402
    87.8600       348
    87.8800       366
    87.9000       364
    87.9200       356
    87.9400       334
    87.9600       374
    87.9800       352
    88.0000       382
    88.0200       382
    88.0400       424
    88.0600       390
    88.0800       372
    88.1000       384
    88.1200       380
    88.1400       388
    88.1600       364
    88.1800       394
    88.2000       402
    88.2200       420
    88.2400       436
    88.2600       408
    88.2800       446
    88.3000       474
    88.3200       458
    88.3400       458
    88.3600       472
    88.3800       420
    88.4000       460
    88.4200       412
    88.4400       400
    88.4600       426
    88.4800       434
    88.5000       410
    88.5200       390
    88.5400       438
    88.5600       380
    88.5800       372
    88.6000       410
    88.6200       344
    88.6400       386
    88.6600       344
    88.6800       354
    88.7000       342
    88.7200       340
    88.7400       344
    88.7600       360
    88.7800       306
    88.8000       332
    88.8200       328
    88.8400       288
    88.8600       320
    88.8800       300
    88.9000       276
    88.9200       278
    88.9400       286
    88.9600       282
    88.9800       292
    89.0000       256
    89.0200       294
    89.0400       232
    89.0600       282
    89.0800       278
    89.1000       266
    89.1200       260
    89.1400       268
    89.1600       240
    89.1800       230
    89.2000       220
    89.2200       232
    89.2400       230
    89.2600       252
    89.2800       212
    89.3000       230
    89.3200       240
    89.3400       260
    89.3600       266
    89.3800       240
    89.4000       228
    89.4200       234
    89.4400       218
    89.4600       258
    89.4800       240
    89.5000       248
    89.5200       224
    89.5400       256
    89.5600       254
    89.5800       248
    89.6000       226
    89.6200       232
    89.6400       236
    89.6600       240
    89.6800       252
    89.7000       294
    89.7200       268
    89.7400       282
    89.7600       250
    89.7800       254
    89.8000       240
    89.8200       242
    89.8400       246
    89.8600       248
    89.8800       246
    89.9000       268
    89.9200       262
    89.9400       274
    89.9600       290
    89.9800       248
    90.0000       258
