    10.0000       384
    10.0200       418
    10.0400       410
    10.0600       388
    10.0800       404
    10.1000       416
    10.1200       362
    10.1400       358
    10.1600       390
    10.1800       368
    10.2000       412
    10.2200       356
    10.2400       348
    10.2600       366
    10.2800       372
    10.3000       326
    10.3200       364
    10.3400       366
    10.3600       384
    10.3800       342
    10.4000       358
    10.4200       348
    10.4400       342
    10.4600       352
    10.4800       330
    10.5000       334
    10.5200       320
    10.5400       340
    10.5600       372
    10.5800       352
    10.6000       330
    10.6200       356
    10.6400       322
    10.6600       354
    10.6800       318
    10.7000       314
    10.7200       340
    10.7400       348
    10.7600       316
    10.7800       308
    10.8000       314
    10.8200       340
    10.8400       332
    10.8600       346
    10.8800       326
    10.9000       338
    10.9200       310
    10.9400       354
    10.9600       304
    10.9800       322
    11.0000       364
    11.0200       300
    11.0400       342
    11.0600       336
    11.0800       330
    11.1000       320
    11.1200       356
    11.1400       312
    11.1600       320
    11.1800       348
    11.2000       308
    11.2200       336
    11.2400       332
    11.2600       348
    11.2800       342
    11.3000       276
    11.3200       306
    11.3400       330
    11.3600       320
    11.3800       312
    11.4000       296
    11.4200       302
    11.4400       306
    11.4600       310
    11.4800       344
    11.5000       332
    11.5200       310
    11.5400       300
    11.5600       322
    11.5800       358
    11.6000       346
    11.6200       314
    11.6400       330
    11.6600       350
    11.6800       336
    11.7000       300
    11.7200       336
    11.7400       374
    11.7600       354
    11.7800       356
    11.8000       356
    11.8200       378
    11.8400       376
    11.8600       378
    11.8800       376
    11.9000       406
    11.9200       420
    11.9400       420
    11.9600       408
    11.9800       454
    12.0000       516
    12.0200       526
    12.0400       564
    12.0600       646
    12.0800       644
    12.1000       648
    12.1200       748
    12.1400       780
    12.1600       812
    12.1800       844
    12.2000       914
    12.2200       902
    12.2400       822
    12.2600       684
    12.2800       594
    12.3000       494
    12.3200       432
    12.3400       414
    12.3600       392
    12.3800       320
    12.4000       322
    12.4200       326
    12.4400       346
    12.4600       286
    12.4800       366
    12.5000       294
    12.5200       326
    12.5400       296
    12.5600       308
    12.5800       300
    12.6000       316
    12.6200       294
    12.6400       304
    12.6600       276
    12.6800       292
    12.7000       292
    12.7200       280
    12.7400       290
    12.7600       292
    12.7800       300
    12.8000       288
    12.8200       278
    12.8400       286
    12.8600       292
    12.8800       294
    12.9000       314
    12.9200       270
    12.9400       318
    12.9600       256
    12.9800       288
    13.0000       290
    13.0200       290
    13.0400       262
    13.0600       270
    13.0800       308
    13.1000       318
    13.1200       278
    13.1400       300
    13.1600       300
    13.1800       264
    13.2000       298
    13.2200       272
    13.2400       276
    13.2600       280
    13.2800       284
    13.3000       276
    13.3200       262
    13.3400       236
    13.3600       300
    13.3800       272
    13.4000       252
    13.4200       264
    13.4400       302
    13.4600       264
    13.4800       264
    13.5000       278
    13.5200       280
    13.5400       290
    13.5600       242
    13.5800       260
    13.6000       246
    13.6200       278
    13.6400       260
    13.6600       298
    13.6800       266
    13.7000       256
    13.7200       264
    13.7400       270
    13.7600       254
    13.7800       264
    13.8000       260
    13.8200       248
    13.8400       318
    13.8600       244
    13.8800       258
    13.9000       260
    13.9200       280
    13.9400       260
    13.9600       272
    13.9800       286
    14.0000       252
    14.0200       242
    14.0400       266
    14.0600       286
    14.0800       258
    14.1000       276
    14.1200       254
    14.1400       230
    14.1600       274
    14.1800       266
    14.2000       282
    14.2200       260
    14.2400       264
    14.2600       272
    14.2800       256
    14.3000       268
    14.3200       276
    14.3400       248
    14.3600       258
    14.3800       266
    14.4000       266
    14.4200       278
    14.4400       264
    14.4600       304
    14.4800       296
    14.5000       304
    14.5200       290
    14.5400       292
    14.5600       306
    14.5800       324
    14.6000       308
    14.6200       298
    14.6400       362
    14.6600       360
    14.6800       340
    14.7000       388
    14.7200       412
    14.7400       442
    14.7600       418
    14.7800       482
    14.8000       554
    14.8200       564
    14.8400       644
    14.8600       708
    14.8800       794
    14.9000       802
    14.9200       946
    14.9400      1074
    14.9600      1248
    14.9800      1314
    15.0000      1326
    15.0200      1362
    15.0400      1376
    15.0600      1176
    15.0800      1042
    15.1000      1086
    15.1200      1074
    15.1400      1050
    15.1600      1194
    15.1800      1166
    15.2000      1178
    15.2200      1144
    15.2400      1036
    15.2600       890
    15.2800       714
    15.3000       560
    15.3200       476
    15.3400       374
    15.3600       358
    15.3800       338
    15.4000       342
    15.4200       332
    15.4400       298
    15.4600       296
    15.4800       312
    15.5000       284
    15.5200       270
    15.5400       284
    15.5600       268
    15.5800       268
    15.6000       262
    15.6200       244
    15.6400       264
    15.6600       270
    15.6800       240
    15.7000       286
    15.7200       216
    15.7400       250
    15.7600       260
    15.7800       218
    15.8000       246
    15.8200       274
    15.8400       254
    15.8600       260
    15.8800       266
    15.9000       264
    15.9200       248
    15.9400       224
    15.9600       230
    15.9800       270
    16.0000       266
    16.0200       252
    16.0400       250
    16.0600       246
    16.0800       246
    16.1000       234
    16.1200       274
    16.1400       290
    16.1600       242
    16.1800       264
    16.2000       270
    16.2200       254
    16.2400       278
    16.2600       314
    16.2800       278
    16.3000       300
    16.3200       296
    16.3400       296
    16.3600       292
    16.3800       254
    16.4000       248
    16.4200       316
    16.4400       264
    16.4600       276
    16.4800       276
    16.5000       282
    16.5200       262
    16.5400       284
    16.5600       274
    16.5800       276
    16.6000       312
    16.6200       300
    16.6400       322
    16.6600       368
    16.6800       348
    16.7000       336
    16.7200       378
    16.7400       368
    16.7600       418
    16.7800       464
    16.8000       520
    16.8200       548
    16.8400       526
    16.8600       628
    16.8800       662
    16.9000       774
    16.9200       838
    16.9400      1016
    16.9600      1052
    16.9800      1246
    17.0000      1416
    17.0200      1546
    17.0400      1702
    17.0600      1832
    17.0800      1890
    17.1000      1830
    17.1200      1616
    17.1400      1478
    17.1600      1360
    17.1800      1192
    17.2000      1132
    17.2200      1076
    17.2400      1126
    17.2600      1130
    17.2800      1116
    17.3000      1172
    17.3200      1220
    17.3400      1268
    17.3600      1210
    17.3800      1266
    17.4000      1268
    17.4200      1350
    17.4400      1430
    17.4600      1384
    17.4800      1324
    17.5000      1062
    17.5200       924
    17.5400       770
    17.5600       666
    17.5800       614
    17.6000       582
    17.6200       572
    17.6400       568
    17.6600       642
    17.6800       656
    17.7000       722
    17.7200       630
    17.7400       730
    17.7600       694
    17.7800       752
    17.8000       724
    17.8200       698
    17.8400       654
    17.8600       594
    17.8800       530
    17.9000       446
    17.9200       366
    17.9400       358
    17.9600       332
    17.9800       292
    18.0000       292
    18.0200       252
    18.0400       254
    18.0600       250
    18.0800       226
    18.1000       240
    18.1200       248
    18.1400       206
    18.1600       238
    18.1800       240
    18.2000       200
    18.2200       230
    18.2400       232
    18.2600       200
    18.2800       252
    18.3000       220
    18.3200       188
    18.3400       224
    18.3600       224
    18.3800       218
    18.4000       242
    18.4200       250
    18.4400       224
    18.4600       218
    18.4800       226
    18.5000       218
    18.5200       218
    18.5400       216
    18.5600       228
    18.5800       246
    18.6000       206
    18.6200       202
    18.6400       214
    18.6600       208
    18.6800       224
    18.7000       200
    18.7200       248
    18.7400       206
    18.7600       208
    18.7800       228
    18.8000       202
    18.8200       214
    18.8400       226
    18.8600       246
    18.8800       224
    18.9000       202
    18.9200       222
    18.9400       226
    18.9600       240
    18.9800       234
    19.0000       254
    19.0200       232
    19.0400       230
    19.0600       274
    19.0800       238
    19.1000       250
    19.1200       282
    19.1400       276
    19.1600       278
    19.1800       276
    19.2000       304
    19.2200       268
    19.2400       304
    19.2600       278
    19.2800       326
    19.3000       354
    19.3200       370
    19.3400       368
    19.3600       422
    19.3800       476
    19.4000       484
    19.4200       494
    19.4400       602
    19.4600       686
    19.4800       684
    19.5000       788
    19.5200       870
    19.5400       994
    19.5600      1050
    19.5800      1088
    19.6000      1058
    19.6200       994
    19.6400       968
    19.6600       770
    19.6800       726
    19.7000       536
    19.7200       518
    19.7400       496
    19.7600       528
    19.7800       498
    19.8000       552
    19.8200       592
    19.8400       632
    19.8600       728
    19.8800       708
    19.9000       810
    19.9200       848
    19.9400       842
    19.9600      1020
    19.9800      1066
    20.0000      1036
    20.0200      1052
    20.0400      1004
    20.0600       950
    20.0800       862
    20.1000       764
    20.1200       690
    20.1400       618
    20.1600       602
    20.1800       522
    20.2000       496
    20.2200       530
    20.2400       522
    20.2600       552
    20.2800       494
    20.3000       486
    20.3200       436
    20.3400       418
    20.3600       408
    20.3800       342
    20.4000       352
    20.4200       308
    20.4400       306
    20.4600       296
    20.4800       310
    20.5000       274
    20.5200       278
    20.5400       274
    20.5600       306
    20.5800       294
    20.6000       282
    20.6200       278
    20.6400       254
    20.6600       296
    20.6800       304
    20.7000       278
    20.7200       302
    20.7400       272
    20.7600       320
    20.7800       320
    20.8000       366
    20.8200       382
    20.8400       386
    20.8600       424
    20.8800       482
    20.9000       474
    20.9200       520
    20.9400       550
    20.9600       714
    20.9800       724
    21.0000       822
    21.0200       968
    21.0400      1050
    21.0600      1246
    21.0800      1436
    21.1000      1682
    21.1200      2040
    21.1400      2240
    21.1600      2504
    21.1800      2810
    21.2000      3010
    21.2200      3066
    21.2400      3062
    21.2600      2594
    21.2800      2236
    21.3000      1888
    21.3200      1494
    21.3400      1164
    21.3600       834
    21.3800       742
    21.4000       608
    21.4200       536
    21.4400       504
    21.4600       440
    21.4800       372
    21.5000       368
    21.5200       328
    21.5400       328
    21.5600       314
    21.5800       300
    21.6000       270
    21.6200       272
    21.6400       256
    21.6600       244
    21.6800       254
    21.7000       226
    21.7200       238
    21.7400       200
    21.7600       232
    21.7800       240
    21.8000       242
    21.8200       206
    21.8400       220
    21.8600       254
    21.8800       228
    21.9000       260
    21.9200       210
    21.9400       214
    21.9600       210
    21.9800       234
    22.0000       212
    22.0200       214
    22.0400       200
    22.0600       230
    22.0800       214
    22.1000       228
    22.1200       230
    22.1400       226
    22.1600       194
    22.1800       210
    22.2000       218
    22.2200       220
    22.2400       224
    22.2600       226
    22.2800       218
    22.3000       224
    22.3200       248
    22.3400       234
    22.3600       238
    22.3800       210
    22.4000       232
    22.4200       260
    22.4400       244
    22.4600       214
    22.4800       260
    22.5000       272
    22.5200       292
    22.5400       276
    22.5600       288
    22.5800       340
    22.6000       358
    22.6200       338
    22.6400       378
    22.6600       400
    22.6800       460
    22.7000       506
    22.7200       564
    22.7400       590
    22.7600       670
    22.7800       704
    22.8000       858
    22.8200      1010
    22.8400      1142
    22.8600      1232
    22.8800      1354
    22.9000      1348
    22.9200      1262
    22.9400      1154
    22.9600      1064
    22.9800       874
    23.0000       742
    23.0200       616
    23.0400       516
    23.0600       432
    23.0800       380
    23.1000       360
    23.1200       346
    23.1400       326
    23.1600       318
    23.1800       286
    23.2000       238
    23.2200       254
    23.2400       252
    23.2600       240
    23.2800       230
    23.3000       248
    23.3200       234
    23.3400       254
    23.3600       204
    23.3800       208
    23.4000       226
    23.4200       228
    23.4400       202
    23.4600       214
    23.4800       220
    23.5000       222
    23.5200       224
    23.5400       226
    23.5600       228
    23.5800       208
    23.6000       236
    23.6200       230
    23.6400       230
    23.6600       208
    23.6800       206
    23.7000       226
    23.7200       248
    23.7400       188
    23.7600       232
    23.7800       244
    23.8000       208
    23.8200       220
    23.8400       268
    23.8600       230
    23.8800       242
    23.9000       238
    23.9200       260
    23.9400       242
    23.9600       256
    23.9800       284
    24.0000       304
    24.0200       294
    24.0400       286
    24.0600       290
    24.0800       320
    24.1000       326
    24.1200       346
    24.1400       364
    24.1600       352
    24.1800       400
    24.2000       446
    24.2200       502
    24.2400       518
    24.2600       572
    24.2800       644
    24.3000       672
    24.3200       802
    24.3400       824
    24.3600       960
    24.3800      1072
    24.4000      1220
    24.4200      1354
    24.4400      1574
    24.4600      1834
    24.4800      2036
    24.5000      2266
    24.5200      2382
    24.5400      2322
    24.5600      2384
    24.5800      2256
    24.6000      2074
    24.6200      1802
    24.6400      1560
    24.6600      1394
    24.6800      1176
    24.7000      1108
    24.7200       976
    24.7400       954
    24.7600       856
    24.7800       898
    24.8000       848
    24.8200       826
    24.8400       872
    24.8600       834
    24.8800       898
    24.9000       974
    24.9200      1036
    24.9400      1036
    24.9600      1056
    24.9800      1028
    25.0000       964
    25.0200       864
    25.0400       742
    25.0600       698
    25.0800       602
    25.1000       604
    25.1200       622
    25.1400       664
    25.1600       728
    25.1800       758
    25.2000       796
    25.2200       852
    25.2400       922
    25.2600       974
    25.2800       994
    25.3000      1064
    25.3200       966
    25.3400       884
    25.3600       838
    25.3800       732
    25.4000       634
    25.4200       522
    25.4400       450
    25.4600       458
    25.4800       428
    25.5000       410
    25.5200       428
    25.5400       438
    25.5600       434
    25.5800       480
    25.6000       478
    25.6200       504
    25.6400       460
    25.6600       484
    25.6800       476
    25.7000       436
    25.7200       418
    25.7400       364
    25.7600       344
    25.7800       336
    25.8000       306
    25.8200       318
    25.8400       286
    25.8600       270
    25.8800       246
    25.9000       284
    25.9200       248
    25.9400       266
    25.9600       274
    25.9800       288
    26.0000       276
    26.0200       280
    26.0400       260
    26.0600       266
    26.0800       256
    26.1000       292
    26.1200       270
    26.1400       286
    26.1600       312
    26.1800       326
    26.2000       330
    26.2200       354
    26.2400       352
    26.2600       404
    26.2800       406
    26.3000       476
    26.3200       492
    26.3400       568
    26.3600       588
    26.3800       632
    26.4000       732
    26.4200       742
    26.4400       758
    26.4600       832
    26.4800       888
    26.5000       888
    26.5200       902
    26.5400       918
    26.5600       970
    26.5800      1018
    26.6000      1046
    26.6200       976
    26.6400      1004
    26.6600      1004
    26.6800       942
    26.7000       894
    26.7200       852
    26.7400       834
    26.7600       710
    26.7800       684
    26.8000       608
    26.8200       576
    26.8400       530
    26.8600       440
    26.8800       456
    26.9000       424
    26.9200       418
    26.9400       400
    26.9600       402
    26.9800       384
    27.0000       368
    27.0200       350
    27.0400       430
    27.0600       368
    27.0800       406
    27.1000       404
    27.1200       424
    27.1400       426
    27.1600       442
    27.1800       452
    27.2000       510
    27.2200       512
    27.2400       538
    27.2600       588
    27.2800       618
    27.3000       704
    27.3200       806
    27.3400       890
    27.3600      1010
    27.3800      1146
    27.4000      1316
    27.4200      1504
    27.4400      1734
    27.4600      1898
    27.4800      2014
    27.5000      2008
    27.5200      2000
    27.5400      1804
    27.5600      1668
    27.5800      1514
    27.6000      1298
    27.6200      1096
    27.6400       910
    27.6600       756
    27.6800       602
    27.7000       582
    27.7200       548
    27.7400       432
    27.7600       392
    27.7800       406
    27.8000       372
    27.8200       342
    27.8400       292
    27.8600       338
    27.8800       322
    27.9000       288
    27.9200       296
    27.9400       270
    27.9600       284
    27.9800       280
    28.0000       268
    28.0200       256
    28.0400       270
    28.0600       280
    28.0800       278
    28.1000       264
    28.1200       288
    28.1400       276
    28.1600       296
    28.1800       244
    28.2000       278
    28.2200       282
    28.2400       302
    28.2600       278
    28.2800       312
    28.3000       302
    28.3200       286
    28.3400       294
    28.3600       290
    28.3800       278
    28.4000       310
    28.4200       276
    28.4400       288
    28.4600       274
    28.4800       268
    28.5000       284
    28.5200       270
    28.5400       256
    28.5600       296
    28.5800       286
    28.6000       312
    28.6200       306
    28.6400       328
    28.6600       324
    28.6800       386
    28.7000       358
    28.7200       388
    28.7400       412
    28.7600       406
    28.7800       372
    28.8000       378
    28.8200       438
    28.8400       402
    28.8600       402
    28.8800       388
    28.9000       410
    28.9200       356
    28.9400       336
    28.9600       374
    28.9800       342
    29.0000       348
    29.0200       338
    29.0400       326
    29.0600       304
    29.0800       308
    29.1000       306
    29.1200       360
    29.1400       338
    29.1600       346
    29.1800       358
    29.2000       354
    29.2200       416
    29.2400       414
    29.2600       470
    29.2800       482
    29.3000       574
    29.3200       638
    29.3400       736
    29.3600       756
    29.3800       838
    29.4000       906
    29.4200      1032
    29.4400      1056
    29.4600      1010
    29.4800      1016
    29.5000      1026
    29.5200      1018
    29.5400      1008
    29.5600      1008
    29.5800      1094
    29.6000      1050
    29.6200      1062
    29.6400      1072
    29.6600      1120
    29.6800      1040
    29.7000       978
    29.7200       930
    29.7400       852
    29.7600       800
    29.7800       736
    29.8000       714
    29.8200       672
    29.8400       660
    29.8600       672
    29.8800       748
    29.9000       758
    29.9200       816
    29.9400       868
    29.9600       996
    29.9800      1156
    30.0000      1250
    30.0200      1422
    30.0400      1630
    30.0600      1898
    30.0800      2262
    30.1000      2796
    30.1200      3298
    30.1400      3672
    30.1600      4182
    30.1800      4620
    30.2000      4968
    30.2200      5270
    30.2400      5396
    30.2600      5172
    30.2800      4908
    30.3000      4278
    30.3200      3788
    30.3400      3304
    30.3600      2912
    30.3800      2504
    30.4000      2278
    30.4200      2104
    30.4400      1994
    30.4600      1914
    30.4800      2154
    30.5000      2386
    30.5200      2600
    30.5400      2900
    30.5600      3278
    30.5800      3848
    30.6000      4116
    30.6200      4760
    30.6400      5318
    30.6600      5512
    30.6800      5576
    30.7000      5572
    30.7200      5368
    30.7400      4636
    30.7600      4186
    30.7800      3586
    30.8000      3270
    30.8200      2906
    30.8400      2618
    30.8600      2472
    30.8800      2490
    30.9000      2750
    30.9200      2922
    30.9400      3066
    30.9600      3076
    30.9800      3070
    31.0000      2716
    31.0200      2370
    31.0400      2118
    31.0600      1818
    31.0800      1520
    31.1000      1198
    31.1200       934
    31.1400       810
    31.1600       694
    31.1800       666
    31.2000       536
    31.2200       564
    31.2400       536
    31.2600       496
    31.2800       446
    31.3000       438
    31.3200       414
    31.3400       386
    31.3600       356
    31.3800       410
    31.4000       340
    31.4200       392
    31.4400       332
    31.4600       358
    31.4800       332
    31.5000       370
    31.5200       382
    31.5400       380
    31.5600       344
    31.5800       370
    31.6000       388
    31.6200       396
    31.6400       398
    31.6600       458
    31.6800       476
    31.7000       462
    31.7200       472
    31.7400       498
    31.7600       520
    31.7800       572
    31.8000       578
    31.8200       546
    31.8400       590
    31.8600       582
    31.8800       580
    31.9000       624
    31.9200       636
    31.9400       668
    31.9600       646
    31.9800       730
    32.0000       834
    32.0200       828
    32.0400       910
    32.0600       918
    32.0800       910
    32.1000       884
    32.1200       782
    32.1400       810
    32.1600       778
    32.1800       724
    32.2000       684
    32.2200       710
    32.2400       658
    32.2600       674
    32.2800       666
    32.3000       680
    32.3200       756
    32.3400       826
    32.3600       808
    32.3800       846
    32.4000       902
    32.4200      1018
    32.4400      1168
    32.4600      1224
    32.4800      1446
    32.5000      1612
    32.5200      1800
    32.5400      2088
    32.5600      2168
    32.5800      2418
    32.6000      2626
    32.6200      2612
    32.6400      2562
    32.6600      2494
    32.6800      2286
    32.7000      2214
    32.7200      1962
    32.7400      1724
    32.7600      1468
    32.7800      1292
    32.8000      1020
    32.8200       998
    32.8400       858
    32.8600       698
    32.8800       702
    32.9000       684
    32.9200       620
    32.9400       596
    32.9600       574
    32.9800       548
    33.0000       594
    33.0200       578
    33.0400       548
    33.0600       570
    33.0800       586
    33.1000       624
    33.1200       590
    33.1400       624
    33.1600       586
    33.1800       532
    33.2000       532
    33.2200       492
    33.2400       446
    33.2600       398
    33.2800       402
    33.3000       376
    33.3200       312
    33.3400       330
    33.3600       316
    33.3800       312
    33.4000       274
    33.4200       270
    33.4400       258
    33.4600       266
    33.4800       280
    33.5000       230
    33.5200       266
    33.5400       250
    33.5600       242
    33.5800       226
    33.6000       220
    33.6200       224
    33.6400       212
    33.6600       218
    33.6800       204
    33.7000       246
    33.7200       230
    33.7400       212
    33.7600       222
    33.7800       226
    33.8000       242
    33.8200       208
    33.8400       214
    33.8600       260
    33.8800       230
    33.9000       220
    33.9200       260
    33.9400       244
    33.9600       242
    33.9800       238
    34.0000       206
    34.0200       200
    34.0400       228
    34.0600       240
    34.0800       210
    34.1000       218
    34.1200       252
    34.1400       240
    34.1600       256
    34.1800       232
    34.2000       246
    34.2200       246
    34.2400       254
    34.2600       254
    34.2800       242
    34.3000       248
    34.3200       288
    34.3400       304
    34.3600       306
    34.3800       318
    34.4000       358
    34.4200       398
    34.4400       408
    34.4600       458
    34.4800       508
    34.5000       540
    34.5200       538
    34.5400       550
    34.5600       584
    34.5800       576
    34.6000       516
    34.6200       530
    34.6400       500
    34.6600       474
    34.6800       410
    34.7000       356
    34.7200       362
    34.7400       344
    34.7600       346
    34.7800       342
    34.8000       318
    34.8200       322
    34.8400       282
    34.8600       276
    34.8800       296
    34.9000       266
    34.9200       312
    34.9400       288
    34.9600       316
    34.9800       346
    35.0000       260
    35.0200       304
    35.0400       290
    35.0600       332
    35.0800       320
    35.1000       326
    35.1200       294
    35.1400       342
    35.1600       316
    35.1800       302
    35.2000       346
    35.2200       344
    35.2400       340
    35.2600       360
    35.2800       366
    35.3000       380
    35.3200       394
    35.3400       380
    35.3600       362
    35.3800       326
    35.4000       328
    35.4200       298
    35.4400       332
    35.4600       276
    35.4800       264
    35.5000       306
    35.5200       276
    35.5400       300
    35.5600       284
    35.5800       292
    35.6000       292
    35.6200       316
    35.6400       296
    35.6600       310
    35.6800       350
    35.7000       326
    35.7200       328
    35.7400       376
    35.7600       326
    35.7800       398
    35.8000       384
    35.8200       404
    35.8400       434
    35.8600       446
    35.8800       450
    35.9000       464
    35.9200       534
    35.9400       504
    35.9600       508
    35.9800       478
    36.0000       552
    36.0200       614
    36.0400       606
    36.0600       614
    36.0800       646
    36.1000       654
    36.1200       654
    36.1400       610
    36.1600       570
    36.1800       572
    36.2000       570
    36.2200       536
    36.2400       500
    36.2600       470
    36.2800       462
    36.3000       430
    36.3200       434
    36.3400       344
    36.3600       364
    36.3800       368
    36.4000       366
    36.4200       316
    36.4400       330
    36.4600       320
    36.4800       328
    36.5000       342
    36.5200       304
    36.5400       318
    36.5600       332
    36.5800       356
    36.6000       324
    36.6200       360
    36.6400       356
    36.6600       388
    36.6800       398
    36.7000       408
    36.7200       404
    36.7400       456
    36.7600       526
    36.7800       480
    36.8000       520
    36.8200       540
    36.8400       644
    36.8600       624
    36.8800       788
    36.9000       774
    36.9200       810
    36.9400       816
    36.9600       898
    36.9800       912
    37.0000       904
    37.0200       916
    37.0400       912
    37.0600       850
    37.0800       938
    37.1000      1024
    37.1200       974
    37.1400      1056
    37.1600      1144
    37.1800      1164
    37.2000      1134
    37.2200      1142
    37.2400      1024
    37.2600      1008
    37.2800       986
    37.3000       844
    37.3200       790
    37.3400       750
    37.3600       688
    37.3800       602
    37.4000       558
    37.4200       534
    37.4400       498
    37.4600       532
    37.4800       484
    37.5000       460
    37.5200       464
    37.5400       498
    37.5600       456
    37.5800       434
    37.6000       428
    37.6200       432
    37.6400       490
    37.6600       444
    37.6800       478
    37.7000       496
    37.7200       498
    37.7400       534
    37.7600       548
    37.7800       618
    37.8000       656
    37.8200       642
    37.8400       694
    37.8600       712
    37.8800       858
    37.9000       926
    37.9200      1096
    37.9400      1206
    37.9600      1386
    37.9800      1436
    38.0000      1430
    38.0200      1366
    38.0400      1366
    38.0600      1404
    38.0800      1360
    38.1000      1326
    38.1200      1234
    38.1400      1144
    38.1600      1046
    38.1800      1006
    38.2000      1020
    38.2200       948
    38.2400       880
    38.2600       910
    38.2800       930
    38.3000       996
    38.3200       966
    38.3400      1006
    38.3600      1066
    38.3800      1178
    38.4000      1290
    38.4200      1388
    38.4400      1546
    38.4600      1706
    38.4800      1766
    38.5000      2094
    38.5200      2426
    38.5400      2572
    38.5600      2922
    38.5800      3054
    38.6000      3426
    38.6200      3456
    38.6400      3778
    38.6600      3738
    38.6800      3712
    38.7000      3564
    38.7200      3288
    38.7400      2994
    38.7600      2904
    38.7800      2622
    38.8000      2416
    38.8200      2174
    38.8400      1996
    38.8600      1886
    38.8800      1732
    38.9000      1586
    38.9200      1542
    38.9400      1522
    38.9600      1536
    38.9800      1566
    39.0000      1652
    39.0200      1680
    39.0400      1936
    39.0600      2154
    39.0800      2134
    39.1000      2196
    39.1200      2254
    39.1400      2060
    39.1600      2080
    39.1800      2102
    39.2000      1908
    39.2200      1846
    39.2400      1872
    39.2600      1734
    39.2800      1626
    39.3000      1666
    39.3200      1582
    39.3400      1454
    39.3600      1412
    39.3800      1336
    39.4000      1300
    39.4200      1192
    39.4400      1082
    39.4600      1014
    39.4800       948
    39.5000       932
    39.5200       894
    39.5400       854
    39.5600       778
    39.5800       770
    39.6000       828
    39.6200       788
    39.6400       844
    39.6600       832
    39.6800       862
    39.7000       882
    39.7200       902
    39.7400      1056
    39.7600      1024
    39.7800      1096
    39.8000      1020
    39.8200      1102
    39.8400      1028
    39.8600       994
    39.8800       906
    39.9000       904
    39.9200       804
    39.9400       846
    39.9600       814
    39.9800       808
    40.0000       816
    40.0200       918
    40.0400       918
    40.0600      1024
    40.0800      1144
    40.1000      1242
    40.1200      1320
    40.1400      1360
    40.1600      1466
    40.1800      1512
    40.2000      1434
    40.2200      1398
    40.2400      1368
    40.2600      1306
    40.2800      1192
    40.3000      1226
    40.3200      1202
    40.3400      1066
    40.3600       952
    40.3800       978
    40.4000       994
    40.4200       986
    40.4400      1056
    40.4600      1036
    40.4800      1106
    40.5000      1098
    40.5200      1084
    40.5400      1094
    40.5600      1098
    40.5800      1092
    40.6000      1122
    40.6200      1020
    40.6400       990
    40.6600       974
    40.6800       912
    40.7000       844
    40.7200       808
    40.7400       824
    40.7600       748
    40.7800       764
    40.8000       736
    40.8200       694
    40.8400       696
    40.8600       636
    40.8800       662
    40.9000       664
    40.9200       680
    40.9400       698
    40.9600       702
    40.9800       732
    41.0000       734
    41.0200       798
    41.0400       820
    41.0600       866
    41.0800       934
    41.1000      1026
    41.1200      1154
    41.1400      1246
    41.1600      1450
    41.1800      1592
    41.2000      1754
    41.2200      1898
    41.2400      2186
    41.2600      2364
    41.2800      2472
    41.3000      2450
    41.3200      2534
    41.3400      2542
    41.3600      2392
    41.3800      2416
    41.4000      2282
    41.4200      2380
    41.4400      2138
    41.4600      2038
    41.4800      1902
    41.5000      1794
    41.5200      1628
    41.5400      1446
    41.5600      1396
    41.5800      1224
    41.6000      1180
    41.6200      1070
    41.6400       964
    41.6600       824
    41.6800       838
    41.7000       786
    41.7200       736
    41.7400       700
    41.7600       672
    41.7800       694
    41.8000       636
    41.8200       706
    41.8400       702
    41.8600       696
    41.8800       726
    41.9000       732
    41.9200       756
    41.9400       760
    41.9600       756
    41.9800       752
    42.0000       700
    42.0200       736
    42.0400       670
    42.0600       674
    42.0800       636
    42.1000       624
    42.1200       560
    42.1400       562
    42.1600       498
    42.1800       472
    42.2000       486
    42.2200       430
    42.2400       426
    42.2600       428
    42.2800       424
    42.3000       404
    42.3200       386
    42.3400       390
    42.3600       434
    42.3800       356
    42.4000       384
    42.4200       334
    42.4400       380
    42.4600       374
    42.4800       342
    42.5000       362
    42.5200       320
    42.5400       360
    42.5600       344
    42.5800       352
    42.6000       292
    42.6200       348
    42.6400       290
    42.6600       310
    42.6800       306
    42.7000       352
    42.7200       316
    42.7400       328
    42.7600       292
    42.7800       326
    42.8000       322
    42.8200       376
    42.8400       320
    42.8600       354
    42.8800       354
    42.9000       338
    42.9200       346
    42.9400       370
    42.9600       358
    42.9800       414
    43.0000       446
    43.0200       400
    43.0400       444
    43.0600       488
    43.0800       510
    43.1000       536
    43.1200       594
    43.1400       606
    43.1600       712
    43.1800       744
    43.2000       762
    43.2200       882
    43.2400       912
    43.2600       918
    43.2800       918
    43.3000       930
    43.3200       790
    43.3400       806
    43.3600       792
    43.3800       738
    43.4000       720
    43.4200       670
    43.4400       572
    43.4600       534
    43.4800       534
    43.5000       458
    43.5200       456
    43.5400       492
    43.5600       434
    43.5800       406
    43.6000       400
    43.6200       390
    43.6400       394
    43.6600       400
    43.6800       368
    43.7000       430
    43.7200       442
    43.7400       464
    43.7600       436
    43.7800       468
    43.8000       470
    43.8200       498
    43.8400       452
    43.8600       480
    43.8800       484
    43.9000       484
    43.9200       534
    43.9400       468
    43.9600       478
    43.9800       466
    44.0000       494
    44.0200       480
    44.0400       480
    44.0600       478
    44.0800       506
    44.1000       482
    44.1200       554
    44.1400       546
    44.1600       516
    44.1800       576
    44.2000       584
    44.2200       662
    44.2400       652
    44.2600       718
    44.2800       732
    44.3000       750
    44.3200       756
    44.3400       694
    44.3600       734
    44.3800       704
    44.4000       674
    44.4200       710
    44.4400       620
    44.4600       718
    44.4800       656
    44.5000       574
    44.5200       612
    44.5400       612
    44.5600       596
    44.5800       602
    44.6000       556
    44.6200       620
    44.6400       636
    44.6600       648
    44.6800       672
    44.7000       612
    44.7200       670
    44.7400       720
    44.7600       686
    44.7800       792
    44.8000       808
    44.8200       868
    44.8400       966
    44.8600      1034
    44.8800      1072
    44.9000      1194
    44.9200      1448
    44.9400      1518
    44.9600      1770
    44.9800      1948
    45.0000      2232
    45.0200      2488
    45.0400      2532
    45.0600      2670
    45.0800      2774
    45.1000      2782
    45.1200      2694
    45.1400      2740
    45.1600      2590
    45.1800      2586
    45.2000      2516
    45.2200      2420
    45.2400      2382
    45.2600      2118
    45.2800      2106
    45.3000      2000
    45.3200      1830
    45.3400      1708
    45.3600      1630
    45.3800      1456
    45.4000      1370
    45.4200      1370
    45.4400      1382
    45.4600      1322
    45.4800      1166
    45.5000      1204
    45.5200      1210
    45.5400      1134
    45.5600      1034
    45.5800      1000
    45.6000      1018
    45.6200       916
    45.6400       870
    45.6600       842
    45.6800       788
    45.7000       814
    45.7200       758
    45.7400       716
    45.7600       696
    45.7800       662
    45.8000       678
    45.8200       610
    45.8400       628
    45.8600       648
    45.8800       656
    45.9000       676
    45.9200       732
    45.9400       730
    45.9600       750
    45.9800       792
    46.0000       882
    46.0200       938
    46.0400       992
    46.0600      1018
    46.0800      1162
    46.1000      1146
    46.1200      1106
    46.1400      1070
    46.1600      1022
    46.1800       950
    46.2000       930
    46.2200      1004
    46.2400       908
    46.2600       918
    46.2800       842
    46.3000       760
    46.3200       810
    46.3400       830
    46.3600       826
    46.3800       876
    46.4000       912
    46.4200      1012
    46.4400      1000
    46.4600      1036
    46.4800      1158
    46.5000      1198
    46.5200      1204
    46.5400      1324
    46.5600      1410
    46.5800      1386
    46.6000      1640
    46.6200      1688
    46.6400      1860
    46.6600      2074
    46.6800      2272
    46.7000      2466
    46.7200      2688
    46.7400      2910
    46.7600      2994
    46.7800      2930
    46.8000      2912
    46.8200      2870
    46.8400      2788
    46.8600      2562
    46.8800      2510
    46.9000      2334
    46.9200      2100
    46.9400      1864
    46.9600      1660
    46.9800      1502
    47.0000      1364
    47.0200      1208
    47.0400      1112
    47.0600      1010
    47.0800       928
    47.1000       816
    47.1200       762
    47.1400       730
    47.1600       614
    47.1800       632
    47.2000       594
    47.2200       586
    47.2400       568
    47.2600       550
    47.2800       534
    47.3000       504
    47.3200       470
    47.3400       502
    47.3600       452
    47.3800       464
    47.4000       470
    47.4200       432
    47.4400       406
    47.4600       434
    47.4800       448
    47.5000       412
    47.5200       404
    47.5400       424
    47.5600       428
    47.5800       374
    47.6000       390
    47.6200       422
    47.6400       410
    47.6600       464
    47.6800       438
    47.7000       416
    47.7200       426
    47.7400       442
    47.7600       442
    47.7800       482
    47.8000       448
    47.8200       460
    47.8400       490
    47.8600       486
    47.8800       514
    47.9000       552
    47.9200       496
    47.9400       528
    47.9600       550
    47.9800       560
    48.0000       566
    48.0200       524
    48.0400       542
    48.0600       562
    48.0800       604
    48.1000       528
    48.1200       576
    48.1400       528
    48.1600       554
    48.1800       606
    48.2000       594
    48.2200       632
    48.2400       626
    48.2600       664
    48.2800       654
    48.3000       714
    48.3200       710
    48.3400       772
    48.3600       800
    48.3800       862
    48.4000       826
    48.4200       882
    48.4400       944
    48.4600      1022
    48.4800      1140
    48.5000      1284
    48.5200      1344
    48.5400      1414
    48.5600      1650
    48.5800      1668
    48.6000      1720
    48.6200      1734
    48.6400      1766
    48.6600      1714
    48.6800      1602
    48.7000      1624
    48.7200      1550
    48.7400      1378
    48.7600      1256
    48.7800      1110
    48.8000      1118
    48.8200      1000
    48.8400       926
    48.8600       814
    48.8800       756
    48.9000       692
    48.9200       612
    48.9400       544
    48.9600       544
    48.9800       518
    49.0000       486
    49.0200       454
    49.0400       452
    49.0600       380
    49.0800       426
    49.1000       364
    49.1200       390
    49.1400       392
    49.1600       394
    49.1800       388
    49.2000       336
    49.2200       364
    49.2400       352
    49.2600       372
    49.2800       332
    49.3000       328
    49.3200       338
    49.3400       364
    49.3600       334
    49.3800       336
    49.4000       334
    49.4200       334
    49.4400       338
    49.4600       324
    49.4800       318
    49.5000       366
    49.5200       368
    49.5400       342
    49.5600       340
    49.5800       350
    49.6000       402
    49.6200       358
    49.6400       358
    49.6600       398
    49.6800       430
    49.7000       398
    49.7200       408
    49.7400       448
    49.7600       522
    49.7800       498
    49.8000       556
    49.8200       626
    49.8400       674
    49.8600       690
    49.8800       720
    49.9000       724
    49.9200       724
    49.9400       752
    49.9600       746
    49.9800       732
    50.0000       814
    50.0200       846
    50.0400       848
    50.0600       858
    50.0800       938
    50.1000       948
    50.1200      1036
    50.1400      1164
    50.1600      1266
    50.1800      1422
    50.2000      1540
    50.2200      1640
    50.2400      1788
    50.2600      1932
    50.2800      2174
    50.3000      2158
    50.3200      2200
    50.3400      2116
    50.3600      2238
    50.3800      2136
    50.4000      2008
    50.4200      1950
    50.4400      1860
    50.4600      1806
    50.4800      1666
    50.5000      1540
    50.5200      1504
    50.5400      1436
    50.5600      1364
    50.5800      1264
    50.6000      1284
    50.6200      1198
    50.6400      1264
    50.6600      1226
    50.6800      1416
    50.7000      1388
    50.7200      1534
    50.7400      1584
    50.7600      1656
    50.7800      1690
    50.8000      1750
    50.8200      1808
    50.8400      1824
    50.8600      1718
    50.8800      1652
    50.9000      1658
    50.9200      1620
    50.9400      1532
    50.9600      1566
    50.9800      1536
    51.0000      1454
    51.0200      1502
    51.0400      1468
    51.0600      1526
    51.0800      1632
    51.1000      1724
    51.1200      1888
    51.1400      2066
    51.1600      2350
    51.1800      2404
    51.2000      2464
    51.2200      2320
    51.2400      2258
    51.2600      2076
    51.2800      1954
    51.3000      1946
    51.3200      1796
    51.3400      1700
    51.3600      1634
    51.3800      1416
    51.4000      1318
    51.4200      1138
    51.4400      1008
    51.4600      1022
    51.4800       926
    51.5000       894
    51.5200       896
    51.5400       902
    51.5600       892
    51.5800       934
    51.6000       920
    51.6200       968
    51.6400      1028
    51.6600      1072
    51.6800      1176
    51.7000      1238
    51.7200      1318
    51.7400      1352
    51.7600      1372
    51.7800      1292
    51.8000      1372
    51.8200      1362
    51.8400      1412
    51.8600      1610
    51.8800      1732
    51.9000      1722
    51.9200      1774
    51.9400      1674
    51.9600      1632
    51.9800      1676
    52.0000      1620
    52.0200      1494
    52.0400      1460
    52.0600      1384
    52.0800      1288
    52.1000      1192
    52.1200      1102
    52.1400      1030
    52.1600       960
    52.1800       868
    52.2000       792
    52.2200       682
    52.2400       690
    52.2600       588
    52.2800       628
    52.3000       560
    52.3200       524
    52.3400       566
    52.3600       564
    52.3800       588
    52.4000       532
    52.4200       542
    52.4400       568
    52.4600       594
    52.4800       566
    52.5000       636
    52.5200       602
    52.5400       632
    52.5600       626
    52.5800       654
    52.6000       688
    52.6200       722
    52.6400       652
    52.6600       690
    52.6800       692
    52.7000       712
    52.7200       720
    52.7400       720
    52.7600       760
    52.7800       770
    52.8000       776
    52.8200       690
    52.8400       634
    52.8600       706
    52.8800       702
    52.9000       614
    52.9200       622
    52.9400       580
    52.9600       542
    52.9800       528
    53.0000       518
    53.0200       546
    53.0400       544
    53.0600       478
    53.0800       480
    53.1000       424
    53.1200       506
    53.1400       512
    53.1600       546
    53.1800       552
    53.2000       552
    53.2200       578
    53.2400       600
    53.2600       674
    53.2800       664
    53.3000       664
    53.3200       732
    53.3400       806
    53.3600       728
    53.3800       760
    53.4000       760
    53.4200       756
    53.4400       734
    53.4600       706
    53.4800       708
    53.5000       706
    53.5200       734
    53.5400       668
    53.5600       722
    53.5800       678
    53.6000       698
    53.6200       680
    53.6400       684
    53.6600       660
    53.6800       674
    53.7000       664
    53.7200       696
    53.7400       652
    53.7600       674
    53.7800       616
    53.8000       680
    53.8200       638
    53.8400       614
    53.8600       576
    53.8800       588
    53.9000       548
    53.9200       560
    53.9400       506
    53.9600       478
    53.9800       504
    54.0000       484
    54.0200       464
    54.0400       470
    54.0600       534
    54.0800       526
    54.1000       518
    54.1200       528
    54.1400       558
    54.1600       502
    54.1800       524
    54.2000       536
    54.2200       556
    54.2400       578
    54.2600       594
    54.2800       638
    54.3000       618
    54.3200       604
    54.3400       656
    54.3600       630
    54.3800       616
    54.4000       682
    54.4200       654
    54.4400       648
    54.4600       650
    54.4800       644
    54.5000       594
    54.5200       604
    54.5400       636
    54.5600       616
    54.5800       576
    54.6000       574
    54.6200       574
    54.6400       572
    54.6600       560
    54.6800       588
    54.7000       644
    54.7200       588
    54.7400       564
    54.7600       670
    54.7800       652
    54.8000       630
    54.8200       730
    54.8400       714
    54.8600       798
    54.8800       820
    54.9000       884
    54.9200       972
    54.9400       938
    54.9600      1048
    54.9800      1052
    55.0000      1050
    55.0200      1094
    55.0400      1080
    55.0600      1158
    55.0800      1186
    55.1000      1276
    55.1200      1264
    55.1400      1396
    55.1600      1506
    55.1800      1520
    55.2000      1434
    55.2200      1442
    55.2400      1432
    55.2600      1368
    55.2800      1334
    55.3000      1194
    55.3200      1242
    55.3400      1230
    55.3600      1082
    55.3800      1070
    55.4000       984
    55.4200       926
    55.4400       834
    55.4600       800
    55.4800       726
    55.5000       664
    55.5200       636
    55.5400       596
    55.5600       528
    55.5800       526
    55.6000       510
    55.6200       466
    55.6400       464
    55.6600       452
    55.6800       436
    55.7000       418
    55.7200       410
    55.7400       404
    55.7600       378
    55.7800       346
    55.8000       360
    55.8200       356
    55.8400       380
    55.8600       356
    55.8800       350
    55.9000       338
    55.9200       316
    55.9400       344
    55.9600       336
    55.9800       330
    56.0000       334
    56.0200       340
    56.0400       320
    56.0600       332
    56.0800       316
    56.1000       302
    56.1200       332
    56.1400       342
    56.1600       326
    56.1800       330
    56.2000       306
    56.2200       336
    56.2400       352
    56.2600       334
    56.2800       302
    56.3000       332
    56.3200       320
    56.3400       332
    56.3600       314
    56.3800       342
    56.4000       316
    56.4200       336
    56.4400       344
    56.4600       370
    56.4800       390
    56.5000       396
    56.5200       408
    56.5400       424
    56.5600       442
    56.5800       398
    56.6000       424
    56.6200       470
    56.6400       546
    56.6600       548
    56.6800       560
    56.7000       594
    56.7200       578
    56.7400       584
    56.7600       556
    56.7800       570
    56.8000       618
    56.8200       566
    56.8400       530
    56.8600       532
    56.8800       518
    56.9000       476
    56.9200       472
    56.9400       482
    56.9600       402
    56.9800       396
    57.0000       412
    57.0200       386
    57.0400       386
    57.0600       372
    57.0800       364
    57.1000       424
    57.1200       420
    57.1400       356
    57.1600       372
    57.1800       388
    57.2000       394
    57.2200       400
    57.2400       438
    57.2600       416
    57.2800       462
    57.3000       448
    57.3200       490
    57.3400       492
    57.3600       518
    57.3800       524
    57.4000       594
    57.4200       608
    57.4400       634
    57.4600       670
    57.4800       714
    57.5000       682
    57.5200       680
    57.5400       640
    57.5600       672
    57.5800       642
    57.6000       660
    57.6200       628
    57.6400       594
    57.6600       604
    57.6800       618
    57.7000       628
    57.7200       626
    57.7400       574
    57.7600       668
    57.7800       620
    57.8000       646
    57.8200       650
    57.8400       678
    57.8600       664
    57.8800       708
    57.9000       656
    57.9200       700
    57.9400       684
    57.9600       610
    57.9800       626
    58.0000       596
    58.0200       586
    58.0400       590
    58.0600       576
    58.0800       600
    58.1000       588
    58.1200       592
    58.1400       564
    58.1600       604
    58.1800       602
    58.2000       550
    58.2200       644
    58.2400       612
    58.2600       636
    58.2800       642
    58.3000       672
    58.3200       674
    58.3400       716
    58.3600       702
    58.3800       696
    58.4000       708
    58.4200       728
    58.4400       682
    58.4600       764
    58.4800       726
    58.5000       808
    58.5200       738
    58.5400       796
    58.5600       818
    58.5800       842
    58.6000       828
    58.6200       880
    58.6400       938
    58.6600       938
    58.6800       970
    58.7000       958
    58.7200      1004
    58.7400      1018
    58.7600      1000
    58.7800      1062
    58.8000      1016
    58.8200      1048
    58.8400      1070
    58.8600      1048
    58.8800      1026
    58.9000       994
    58.9200       986
    58.9400      1048
    58.9600       992
    58.9800      1004
    59.0000       904
    59.0200       894
    59.0400       914
    59.0600       840
    59.0800       846
    59.1000       822
    59.1200       778
    59.1400       812
    59.1600       780
    59.1800       748
    59.2000       746
    59.2200       770
    59.2400       810
    59.2600       836
    59.2800       922
    59.3000       872
    59.3200       930
    59.3400       988
    59.3600      1048
    59.3800      1124
    59.4000      1162
    59.4200      1268
    59.4400      1286
    59.4600      1340
    59.4800      1404
    59.5000      1412
    59.5200      1392
    59.5400      1380
    59.5600      1386
    59.5800      1416
    59.6000      1420
    59.6200      1360
    59.6400      1350
    59.6600      1350
    59.6800      1388
    59.7000      1454
    59.7200      1514
    59.7400      1484
    59.7600      1558
    59.7800      1684
    59.8000      1710
    59.8200      1770
    59.8400      1824
    59.8600      1798
    59.8800      1714
    59.9000      1668
    59.9200      1516
    59.9400      1420
    59.9600      1490
    59.9800      1350
    60.0000      1312
    60.0200      1236
    60.0400      1188
    60.0600      1066
    60.0800       996
    60.1000       864
    60.1200       780
    60.1400       746
    60.1600       692
    60.1800       612
    60.2000       600
    60.2200       604
    60.2400       526
    60.2600       522
    60.2800       562
    60.3000       524
    60.3200       512
    60.3400       454
    60.3600       448
    60.3800       434
    60.4000       510
    60.4200       456
    60.4400       460
    60.4600       488
    60.4800       450
    60.5000       498
    60.5200       518
    60.5400       540
    60.5600       522
    60.5800       552
    60.6000       548
    60.6200       538
    60.6400       546
    60.6600       558
    60.6800       516
    60.7000       538
    60.7200       514
    60.7400       526
    60.7600       578
    60.7800       550
    60.8000       556
    60.8200       562
    60.8400       558
    60.8600       622
    60.8800       618
    60.9000       644
    60.9200       678
    60.9400       780
    60.9600       826
    60.9800       878
    61.0000       852
    61.0200       844
    61.0400       920
    61.0600       964
    61.0800       998
    61.1000      1032
    61.1200      1042
    61.1400      1082
    61.1600      1042
    61.1800       974
    61.2000      1040
    61.2200      1010
    61.2400       974
    61.2600      1066
    61.2800      1054
    61.3000      1078
    61.3200      1072
    61.3400      1090
    61.3600      1086
    61.3800      1146
    61.4000      1146
    61.4200      1122
    61.4400      1150
    61.4600      1150
    61.4800      1156
    61.5000      1178
    61.5200      1238
    61.5400      1234
    61.5600      1232
    61.5800      1206
    61.6000      1146
    61.6200      1050
    61.6400      1050
    61.6600       982
    61.6800       870
    61.7000       914
    61.7200       822
    61.7400       776
    61.7600       762
    61.7800       696
    61.8000       696
    61.8200       622
    61.8400       536
    61.8600       574
    61.8800       520
    61.9000       468
    61.9200       452
    61.9400       442
    61.9600       436
    61.9800       448
    62.0000       424
    62.0200       384
    62.0400       384
    62.0600       442
    62.0800       370
    62.1000       360
    62.1200       400
    62.1400       386
    62.1600       356
    62.1800       366
    62.2000       384
    62.2200       378
    62.2400       398
    62.2600       344
    62.2800       348
    62.3000       356
    62.3200       386
    62.3400       368
    62.3600       378
    62.3800       406
    62.4000       340
    62.4200       408
    62.4400       370
    62.4600       380
    62.4800       428
    62.5000       398
    62.5200       378
    62.5400       394
    62.5600       382
    62.5800       402
    62.6000       444
    62.6200       444
    62.6400       442
    62.6600       466
    62.6800       466
    62.7000       442
    62.7200       498
    62.7400       470
    62.7600       518
    62.7800       504
    62.8000       540
    62.8200       528
    62.8400       484
    62.8600       510
    62.8800       522
    62.9000       534
    62.9200       504
    62.9400       508
    62.9600       440
    62.9800       510
    63.0000       478
    63.0200       418
    63.0400       406
    63.0600       378
    63.0800       390
    63.1000       358
    63.1200       376
    63.1400       362
    63.1600       328
    63.1800       310
    63.2000       292
    63.2200       296
    63.2400       274
    63.2600       266
    63.2800       284
    63.3000       284
    63.3200       288
    63.3400       252
    63.3600       254
    63.3800       280
    63.4000       280
    63.4200       284
    63.4400       296
    63.4600       246
    63.4800       302
    63.5000       288
    63.5200       304
    63.5400       284
    63.5600       286
    63.5800       282
    63.6000       320
    63.6200       304
    63.6400       330
    63.6600       366
    63.6800       376
    63.7000       372
    63.7200       444
    63.7400       408
    63.7600       442
    63.7800       484
    63.8000       462
    63.8200       510
    63.8400       594
    63.8600       596
    63.8800       590
    63.9000       626
    63.9200       586
    63.9400       570
    63.9600       576
    63.9800       554
    64.0000       548
    64.0200       532
    64.0400       514
    64.0600       490
    64.0800       536
    64.1000       522
    64.1200       490
    64.1400       460
    64.1600       446
    64.1800       446
    64.2000       448
    64.2200       422
    64.2400       438
    64.2600       396
    64.2800       406
    64.3000       400
    64.3200       380
    64.3400       386
    64.3600       348
    64.3800       386
    64.4000       392
    64.4200       392
    64.4400       462
    64.4600       408
    64.4800       430
    64.5000       434
    64.5200       448
    64.5400       448
    64.5600       406
    64.5800       364
    64.6000       336
    64.6200       366
    64.6400       358
    64.6600       352
    64.6800       342
    64.7000       400
    64.7200       326
    64.7400       336
    64.7600       316
    64.7800       274
    64.8000       292
    64.8200       302
    64.8400       290
    64.8600       306
    64.8800       290
    64.9000       282
    64.9200       236
    64.9400       300
    64.9600       260
    64.9800       260
    65.0000       284
    65.0200       282
    65.0400       308
    65.0600       320
    65.0800       292
    65.1000       304
    65.1200       258
    65.1400       284
    65.1600       300
    65.1800       302
    65.2000       276
    65.2200       328
    65.2400       320
    65.2600       286
    65.2800       306
    65.3000       334
    65.3200       356
    65.3400       340
    65.3600       302
    65.3800       318
    65.4000       374
    65.4200       320
    65.4400       314
    65.4600       376
    65.4800       348
    65.5000       352
    65.5200       358
    65.5400       342
    65.5600       362
    65.5800       396
    65.6000       428
    65.6200       412
    65.6400       424
    65.6600       400
    65.6800       414
    65.7000       388
    65.7200       430
    65.7400       398
    65.7600       382
    65.7800       380
    65.8000       394
    65.8200       384
    65.8400       418
    65.8600       398
    65.8800       364
    65.9000       360
    65.9200       340
    65.9400       336
    65.9600       310
    65.9800       302
    66.0000       332
    66.0200       328
    66.0400       348
    66.0600       306
    66.0800       316
    66.1000       306
    66.1200       278
    66.1400       320
    66.1600       334
    66.1800       284
    66.2000       292
    66.2200       310
    66.2400       264
    66.2600       314
    66.2800       312
    66.3000       342
    66.3200       350
    66.3400       318
    66.3600       294
    66.3800       342
    66.4000       342
    66.4200       348
    66.4400       356
    66.4600       392
    66.4800       412
    66.5000       378
    66.5200       426
    66.5400       416
    66.5600       452
    66.5800       412
    66.6000       474
    66.6200       486
    66.6400       486
    66.6600       488
    66.6800       490
    66.7000       502
    66.7200       490
    66.7400       502
    66.7600       516
    66.7800       550
    66.8000       542
    66.8200       606
    66.8400       600
    66.8600       636
    66.8800       642
    66.9000       650
    66.9200       624
    66.9400       676
    66.9600       706
    66.9800       724
    67.0000       702
    67.0200       748
    67.0400       726
    67.0600       708
    67.0800       752
    67.1000       708
    67.1200       692
    67.1400       622
    67.1600       598
    67.1800       616
    67.2000       604
    67.2200       578
    67.2400       588
    67.2600       500
    67.2800       524
    67.3000       464
    67.3200       472
    67.3400       444
    67.3600       436
    67.3800       388
    67.4000       434
    67.4200       412
    67.4400       376
    67.4600       402
    67.4800       362
    67.5000       330
    67.5200       342
    67.5400       342
    67.5600       324
    67.5800       320
    67.6000       342
    67.6200       318
    67.6400       296
    67.6600       320
    67.6800       308
    67.7000       292
    67.7200       300
    67.7400       282
    67.7600       274
    67.7800       304
    67.8000       260
    67.8200       294
    67.8400       308
    67.8600       284
    67.8800       322
    67.9000       276
    67.9200       306
    67.9400       292
    67.9600       316
    67.9800       308
    68.0000       308
    68.0200       322
    68.0400       340
    68.0600       330
    68.0800       346
    68.1000       418
    68.1200       410
    68.1400       412
    68.1600       420
    68.1800       440
    68.2000       430
    68.2200       492
    68.2400       548
    68.2600       484
    68.2800       502
    68.3000       520
    68.3200       530
    68.3400       572
    68.3600       552
    68.3800       508
    68.4000       576
    68.4200       582
    68.4400       570
    68.4600       548
    68.4800       538
    68.5000       506
    68.5200       504
    68.5400       518
    68.5600       528
    68.5800       478
    68.6000       450
    68.6200       482
    68.6400       428
    68.6600       434
    68.6800       390
    68.7000       412
    68.7200       338
    68.7400       396
    68.7600       334
    68.7800       362
    68.8000       330
    68.8200       302
    68.8400       334
    68.8600       328
    68.8800       348
    68.9000       296
    68.9200       290
    68.9400       304
    68.9600       312
    68.9800       306
    69.0000       356
    69.0200       308
    69.0400       316
    69.0600       342
    69.0800       344
    69.1000       340
    69.1200       316
    69.1400       326
    69.1600       318
    69.1800       322
    69.2000       268
    69.2200       314
    69.2400       300
    69.2600       274
    69.2800       302
    69.3000       304
    69.3200       320
    69.3400       302
    69.3600       320
    69.3800       330
    69.4000       274
    69.4200       274
    69.4400       294
    69.4600       310
    69.4800       284
    69.5000       328
    69.5200       316
    69.5400       304
    69.5600       322
    69.5800       320
    69.6000       326
    69.6200       326
    69.6400       294
    69.6600       346
    69.6800       330
    69.7000       362
    69.7200       332
    69.7400       388
    69.7600       392
    69.7800       346
    69.8000       390
    69.8200       412
    69.8400       370
    69.8600       374
    69.8800       404
    69.9000       320
    69.9200       378
    69.9400       398
    69.9600       346
    69.9800       344
    70.0000       334
    70.0200       336
    70.0400       302
    70.0600       358
    70.0800       366
    70.1000       366
    70.1200       326
    70.1400       318
    70.1600       360
    70.1800       338
    70.2000       358
    70.2200       354
    70.2400       364
    70.2600       402
    70.2800       368
    70.3000       350
    70.3200       330
    70.3400       326
    70.3600       294
    70.3800       302
    70.4000       326
    70.4200       306
    70.4400       282
    70.4600       288
    70.4800       288
    70.5000       290
    70.5200       266
    70.5400       266
    70.5600       258
    70.5800       262
    70.6000       214
    70.6200       220
    70.6400       228
    70.6600       216
    70.6800       232
    70.7000       232
    70.7200       194
    70.7400       224
    70.7600       206
    70.7800       216
    70.8000       214
    70.8200       186
    70.8400       202
    70.8600       202
    70.8800       190
    70.9000       234
    70.9200       218
    70.9400       228
    70.9600       210
    70.9800       220
    71.0000       222
    71.0200       194
    71.0400       206
    71.0600       222
    71.0800       204
    71.1000       224
    71.1200       220
    71.1400       178
    71.1600       228
    71.1800       214
    71.2000       194
    71.2200       206
    71.2400       218
    71.2600       218
    71.2800       230
    71.3000       210
    71.3200       236
    71.3400       248
    71.3600       206
    71.3800       214
    71.4000       264
    71.4200       244
    71.4400       262
    71.4600       230
    71.4800       244
    71.5000       288
    71.5200       250
    71.5400       264
    71.5600       260
    71.5800       268
    71.6000       296
    71.6200       290
    71.6400       308
    71.6600       282
    71.6800       290
    71.7000       298
    71.7200       308
    71.7400       302
    71.7600       310
    71.7800       318
    71.8000       292
    71.8200       290
    71.8400       316
    71.8600       282
    71.8800       306
    71.9000       302
    71.9200       284
    71.9400       308
    71.9600       280
    71.9800       290
    72.0000       286
    72.0200       280
    72.0400       288
    72.0600       252
    72.0800       268
    72.1000       318
    72.1200       294
    72.1400       282
    72.1600       278
    72.1800       276
    72.2000       294
    72.2200       284
    72.2400       288
    72.2600       314
    72.2800       294
    72.3000       340
    72.3200       378
    72.3400       332
    72.3600       394
    72.3800       390
    72.4000       370
    72.4200       380
    72.4400       454
    72.4600       422
    72.4800       436
    72.5000       428
    72.5200       486
    72.5400       508
    72.5600       502
    72.5800       508
    72.6000       518
    72.6200       480
    72.6400       484
    72.6600       456
    72.6800       450
    72.7000       498
    72.7200       468
    72.7400       470
    72.7600       500
    72.7800       528
    72.8000       506
    72.8200       480
    72.8400       512
    72.8600       478
    72.8800       480
    72.9000       468
    72.9200       456
    72.9400       458
    72.9600       434
    72.9800       420
    73.0000       398
    73.0200       388
    73.0400       370
    73.0600       356
    73.0800       378
    73.1000       378
    73.1200       348
    73.1400       304
    73.1600       348
    73.1800       310
    73.2000       278
    73.2200       268
    73.2400       296
    73.2600       278
    73.2800       232
    73.3000       274
    73.3200       264
    73.3400       250
    73.3600       214
    73.3800       266
    73.4000       228
    73.4200       220
    73.4400       212
    73.4600       204
    73.4800       214
    73.5000       208
    73.5200       206
    73.5400       206
    73.5600       238
    73.5800       202
    73.6000       242
    73.6200       242
    73.6400       218
    73.6600       202
    73.6800       234
    73.7000       222
    73.7200       220
    73.7400       234
    73.7600       222
    73.7800       224
    73.8000       230
    73.8200       240
    73.8400       252
    73.8600       232
    73.8800       254
    73.9000       240
    73.9200       248
    73.9400       244
    73.9600       270
    73.9800       250
    74.0000       238
    74.0200       242
    74.0400       250
    74.0600       214
    74.0800       236
    74.1000       252
    74.1200       256
    74.1400       256
    74.1600       244
    74.1800       246
    74.2000       246
    74.2200       234
    74.2400       228
    74.2600       210
    74.2800       244
    74.3000       234
    74.3200       232
    74.3400       238
    74.3600       230
    74.3800       240
    74.4000       256
    74.4200       252
    74.4400       252
    74.4600       248
    74.4800       262
    74.5000       234
    74.5200       250
    74.5400       272
    74.5600       252
    74.5800       254
    74.6000       250
    74.6200       258
    74.6400       286
    74.6600       300
    74.6800       290
    74.7000       322
    74.7200       262
    74.7400       276
    74.7600       260
    74.7800       286
    74.8000       270
    74.8200       244
    74.8400       270
    74.8600       240
    74.8800       250
    74.9000       236
    74.9200       254
    74.9400       246
    74.9600       266
    74.9800       254
    75.0000       272
    75.0200       244
    75.0400       250
    75.0600       238
    75.0800       258
    75.1000       242
    75.1200       266
    75.1400       272
    75.1600       262
    75.1800       264
    75.2000       284
    75.2200       254
    75.2400       312
    75.2600       290
    75.2800       278
    75.3000       282
    75.3200       266
    75.3400       254
    75.3600       254
    75.3800       254
    75.4000       220
    75.4200       288
    75.4400       280
    75.4600       264
    75.4800       240
    75.5000       252
    75.5200       254
    75.5400       244
    75.5600       244
    75.5800       280
    75.6000       268
    75.6200       270
    75.6400       258
    75.6600       254
    75.6800       254
    75.7000       252
    75.7200       286
    75.7400       286
    75.7600       268
    75.7800       260
    75.8000       284
    75.8200       280
    75.8400       250
    75.8600       318
    75.8800       312
    75.9000       304
    75.9200       318
    75.9400       326
    75.9600       350
    75.9800       308
    76.0000       350
    76.0200       310
    76.0400       320
    76.0600       292
    76.0800       308
    76.1000       292
    76.1200       310
    76.1400       266
    76.1600       304
    76.1800       274
    76.2000       316
    76.2200       252
    76.2400       292
    76.2600       296
    76.2800       288
    76.3000       266
    76.3200       298
    76.3400       272
    76.3600       268
    76.3800       292
    76.4000       288
    76.4200       362
    76.4400       338
    76.4600       354
    76.4800       320
    76.5000       326
    76.5200       326
    76.5400       372
    76.5600       382
    76.5800       404
    76.6000       338
    76.6200       372
    76.6400       374
    76.6600       388
    76.6800       376
    76.7000       316
    76.7200       366
    76.7400       356
    76.7600       350
    76.7800       350
    76.8000       394
    76.8200       358
    76.8400       326
    76.8600       318
    76.8800       322
    76.9000       312
    76.9200       302
    76.9400       306
    76.9600       294
    76.9800       318
    77.0000       298
    77.0200       292
    77.0400       306
    77.0600       294
    77.0800       330
    77.1000       284
    77.1200       306
    77.1400       274
    77.1600       256
    77.1800       276
    77.2000       330
    77.2200       314
    77.2400       284
    77.2600       306
    77.2800       358
    77.3000       322
    77.3200       316
    77.3400       322
    77.3600       310
    77.3800       320
    77.4000       324
    77.4200       324
    77.4400       336
    77.4600       348
    77.4800       330
    77.5000       356
    77.5200       342
    77.5400       344
    77.5600       356
    77.5800       368
    77.6000       360
    77.6200       368
    77.6400       380
    77.6600       382
    77.6800       408
    77.7000       366
    77.7200       402
    77.7400       384
    77.7600       448
    77.7800       406
    77.8000       418
    77.8200       426
    77.8400       456
    77.8600       416
    77.8800       462
    77.9000       450
    77.9200       462
    77.9400       426
    77.9600       450
    77.9800       444
    78.0000       406
    78.0200       416
    78.0400       416
    78.0600       402
    78.0800       458
    78.1000       368
    78.1200       382
    78.1400       370
    78.1600       354
    78.1800       342
    78.2000       296
    78.2200       336
    78.2400       330
    78.2600       296
    78.2800       302
    78.3000       296
    78.3200       290
    78.3400       288
    78.3600       252
    78.3800       302
    78.4000       300
    78.4200       306
    78.4400       290
    78.4600       278
    78.4800       306
    78.5000       286
    78.5200       264
    78.5400       330
    78.5600       256
    78.5800       290
    78.6000       320
    78.6200       304
    78.6400       292
    78.6600       316
    78.6800       300
    78.7000       328
    78.7200       358
    78.7400       314
    78.7600       338
    78.7800       306
    78.8000       336
    78.8200       334
    78.8400       326
    78.8600       374
    78.8800       328
    78.9000       314
    78.9200       318
    78.9400       308
    78.9600       290
    78.9800       324
    79.0000       308
    79.0200       306
    79.0400       324
    79.0600       314
    79.0800       308
    79.1000       276
    79.1200       292
    79.1400       276
    79.1600       282
    79.1800       298
    79.2000       254
    79.2200       268
    79.2400       264
    79.2600       256
    79.2800       282
    79.3000       290
    79.3200       254
    79.3400       240
    79.3600       258
    79.3800       274
    79.4000       280
    79.4200       244
    79.4400       228
    79.4600       234
    79.4800       248
    79.5000       280
    79.5200       228
    79.5400       244
    79.5600       246
    79.5800       256
    79.6000       244
    79.6200       222
    79.6400       234
    79.6600       250
    79.6800       230
    79.7000       218
    79.7200       218
    79.7400       222
    79.7600       220
    79.7800       240
    79.8000       186
    79.8200       210
    79.8400       210
    79.8600       224
    79.8800       216
    79.9000       206
    79.9200       238
    79.9400       232
    79.9600       216
    79.9800       246
    80.0000       220
    80.0200       240
    80.0400       232
    80.0600       222
    80.0800       252
    80.1000       214
    80.1200       252
    80.1400       226
    80.1600       226
    80.1800       226
    80.2000       220
    80.2200       230
    80.2400       228
    80.2600       236
    80.2800       226
    80.3000       264
    80.3200       254
    80.3400       218
    80.3600       236
    80.3800       270
    80.4000       226
    80.4200       266
    80.4400       286
    80.4600       256
    80.4800       286
    80.5000       300
    80.5200       336
    80.5400       328
    80.5600       302
    80.5800       340
    80.6000       348
    80.6200       306
    80.6400       298
    80.6600       292
    80.6800       310
    80.7000       334
    80.7200       312
    80.7400       262
    80.7600       282
    80.7800       262
    80.8000       286
    80.8200       280
    80.8400       290
    80.8600       252
    80.8800       272
    80.9000       262
    80.9200       282
    80.9400       260
    80.9600       254
    80.9800       226
    81.0000       236
    81.0200       224
    81.0400       208
    81.0600       224
    81.0800       242
    81.1000       252
    81.1200       244
    81.1400       254
    81.1600       252
    81.1800       236
    81.2000       238
    81.2200       248
    81.2400       232
    81.2600       230
    81.2800       250
    81.3000       246
    81.3200       230
    81.3400       234
    81.3600       246
    81.3800       234
    81.4000       286
    81.4200       242
    81.4400       230
    81.4600       224
    81.4800       246
    81.5000       252
    81.5200       246
    81.5400       254
    81.5600       252
    81.5800       248
    81.6000       258
    81.6200       256
    81.6400       216
    81.6600       262
    81.6800       304
    81.7000       296
    81.7200       304
    81.7400       304
    81.7600       278
    81.7800       298
    81.8000       280
    81.8200       340
    81.8400       306
    81.8600       316
    81.8800       294
    81.9000       302
    81.9200       282
    81.9400       302
    81.9600       320
    81.9800       310
    82.0000       302
    82.0200       308
    82.0400       318
    82.0600       322
    82.0800       310
    82.1000       296
    82.1200       288
    82.1400       310
    82.1600       346
    82.1800       338
    82.2000       298
    82.2200       304
    82.2400       286
    82.2600       290
    82.2800       290
    82.3000       292
    82.3200       272
    82.3400       286
    82.3600       292
    82.3800       344
    82.4000       290
    82.4200       302
    82.4400       302
    82.4600       322
    82.4800       328
    82.5000       310
    82.5200       358
    82.5400       346
    82.5600       390
    82.5800       358
    82.6000       338
    82.6200       342
    82.6400       404
    82.6600       414
    82.6800       372
    82.7000       400
    82.7200       408
    82.7400       478
    82.7600       476
    82.7800       490
    82.8000       518
    82.8200       534
    82.8400       594
    82.8600       568
    82.8800       638
    82.9000       632
    82.9200       598
    82.9400       624
    82.9600       574
    82.9800       600
    83.0000       586
    83.0200       536
    83.0400       546
    83.0600       540
    83.0800       518
    83.1000       590
    83.1200       540
    83.1400       538
    83.1600       584
    83.1800       488
    83.2000       468
    83.2200       470
    83.2400       430
    83.2600       460
    83.2800       420
    83.3000       416
    83.3200       440
    83.3400       382
    83.3600       380
    83.3800       354
    83.4000       356
    83.4200       342
    83.4400       366
    83.4600       346
    83.4800       348
    83.5000       372
    83.5200       328
    83.5400       342
    83.5600       296
    83.5800       330
    83.6000       300
    83.6200       290
    83.6400       326
    83.6600       316
    83.6800       296
    83.7000       304
    83.7200       312
    83.7400       286
    83.7600       310
    83.7800       298
    83.8000       294
    83.8200       354
    83.8400       330
    83.8600       358
    83.8800       360
    83.9000       400
    83.9200       442
    83.9400       442
    83.9600       426
    83.9800       468
    84.0000       466
    84.0200       446
    84.0400       446
    84.0600       474
    84.0800       498
    84.1000       462
    84.1200       432
    84.1400       398
    84.1600       452
    84.1800       446
    84.2000       418
    84.2200       400
    84.2400       420
    84.2600       438
    84.2800       444
    84.3000       410
    84.3200       462
    84.3400       446
    84.3600       396
    84.3800       410
    84.4000       442
    84.4200       382
    84.4400       416
    84.4600       452
    84.4800       430
    84.5000       418
    84.5200       362
    84.5400       422
    84.5600       368
    84.5800       394
    84.6000       356
    84.6200       340
    84.6400       374
    84.6600       374
    84.6800       366
    84.7000       370
    84.7200       320
    84.7400       356
    84.7600       340
    84.7800       324
    84.8000       334
    84.8200       292
    84.8400       278
    84.8600       284
    84.8800       296
    84.9000       288
    84.9200       282
    84.9400       228
    84.9600       252
    84.9800       282
    85.0000       270
    85.0200       266
    85.0400       244
    85.0600       266
    85.0800       252
    85.1000       258
    85.1200       234
    85.1400       238
    85.1600       250
    85.1800       250
    85.2000       252
    85.2200       260
    85.2400       212
    85.2600       226
    85.2800       208
    85.3000       230
    85.3200       256
    85.3400       240
    85.3600       240
    85.3800       236
    85.4000       244
    85.4200       238
    85.4400       226
    85.4600       214
    85.4800       274
    85.5000       260
    85.5200       240
    85.5400       252
    85.5600       242
    85.5800       258
    85.6000       254
    85.6200       246
    85.6400       266
    85.6600       322
    85.6800       282
    85.7000       292
    85.7200       326
    85.7400       328
    85.7600       340
    85.7800       286
    85.8000       338
    85.8200       298
    85.8400       296
    85.8600       298
    85.8800       280
    85.9000       320
    85.9200       300
    85.9400       332
    85.9600       312
    85.9800       314
    86.0000       316
    86.0200       276
    86.0400       314
    86.0600       286
    86.0800       272
    86.1000       270
    86.1200       282
    86.1400       278
    86.1600       262
    86.1800       266
    86.2000       240
    86.2200       256
    86.2400       226
    86.2600       244
    86.2800       250
    86.3000       248
    86.3200       242
    86.3400       238
    86.3600       238
    86.3800       246
    86.4000       256
    86.4200       280
    86.4400       240
    86.4600       268
    86.4800       280
    86.5000       262
    86.5200       266
    86.5400       266
    86.5600       308
    86.5800       284
    86.6000       304
    86.6200       284
    86.6400       320
    86.6600       334
    86.6800       300
    86.7000       334
    86.7200       326
    86.7400       306
    86.7600       316
    86.7800       332
    86.8000       314
    86.8200       312
    86.8400       388
    86.8600       388
    86.8800       342
    86.9000       352
    86.9200       344
    86.9400       342
    86.9600       346
    86.9800       382
    87.0000       350
    87.0200       346
    87.0400       350
    87.0600       354
    87.0800       358
    87.1000       320
    87.1200       348
    87.1400       304
    87.1600       356
    87.1800       342
    87.2000       334
    87.2200       360
    87.2400       302
    87.2600       330
    87.2800       302
    87.3000       278
    87.3200       300
    87.3400       302
    87.3600       314
    87.3800       318
    87.4000       298
    87.4200       314
    87.4400       328
    87.4600       288
    87.4800       286
    87.5000       270
    87.5200       302
    87.5400       294
    87.5600       314
    87.5800       330
    87.6000       326
    87.6200       364
    87.6400       338
    87.6600       380
    87.6800       336
    87.7000       402
    87.7200       346
    87.7400       354
    87.7600       334
    87.7800       368
    87.8000       314
    87.8200       324
    87.8400       346
    87.8600       344
    87.8800       338
    87.9000       358
    87.9200       338
    87.9400       362
    87.9600       346
    87.9800       312
    88.0000       332
    88.0200       328
    88.0400       340
    88.0600       386
    88.0800       340
    88.1000       366
    88.1200       372
    88.1400       370
    88.1600       364
    88.1800       354
    88.2000       406
    88.2200       402
    88.2400       392
    88.2600       416
    88.2800       424
    88.3000       426
    88.3200       444
    88.3400       434
    88.3600       486
    88.3800       462
    88.4000       432
    88.4200       410
    88.4400       430
    88.4600       498
    88.4800       396
    88.5000       424
    88.5200       428
    88.5400       410
    88.5600       412
    88.5800       416
    88.6000       344
    88.6200       396
    88.6400       420
    88.6600       358
    88.6800       364
    88.7000       390
    88.7200       404
    88.7400       346
    88.7600       350
    88.7800       336
    88.8000       322
    88.8200       358
    88.8400       334
    88.8600       288
    88.8800       296
    88.9000       282
    88.9200       286
    88.9400       286
    88.9600       280
    88.9800       280
    89.0000       296
    89.0200       298
    89.0400       278
    89.0600       236
    89.0800       246
    89.1000       236
    89.1200       246
    89.1400       234
    89.1600       248
    89.1800       260
    89.2000       234
    89.2200       270
    89.2400       244
    89.2600       254
    89.2800       218
    89.3000       242
    89.3200       240
    89.3400       218
    89.3600       250
    89.3800       232
    89.4000       220
    89.4200       242
    89.4400       208
    89.4600       230
    89.4800       238
    89.5000       244
    89.5200       248
    89.5400       260
    89.5600       226
    89.5800       216
    89.6000       246
    89.6200       248
    89.6400       254
    89.6600       238
    89.6800       290
    89.7000       262
    89.7200       252
    89.7400       242
    89.7600       248
    89.7800       254
    89.8000       242
    89.8200       266
    89.8400       230
    89.8600       234
    89.8800       228
    89.9000       204
    89.9200       240
    89.9400       220
    89.9600       228
    89.9800       226
    90.0000       220
