    10.0000       398
    10.0200       412
    10.0400       408
    10.0600       358
    10.0800       404
    10.1000       392
    10.1200       386
    10.1400       366
    10.1600       362
    10.1800       354
    10.2000       342
    10.2200       366
    10.2400       338
    10.2600       360
    10.2800       332
    10.3000       350
    10.3200       368
    10.3400       386
    10.3600       386
    10.3800       310
    10.4000       354
    10.4200       338
    10.4400       366
    10.4600       346
    10.4800       350
    10.5000       338
    10.5200       322
    10.5400       338
    10.5600       350
    10.5800       362
    10.6000       364
    10.6200       336
    10.6400       344
    10.6600       362
    10.6800       368
    10.7000       354
    10.7200       348
    10.7400       330
    10.7600       334
    10.7800       340
    10.8000       342
    10.8200       344
    10.8400       328
    10.8600       346
    10.8800       338
    10.9000       338
    10.9200       334
    10.9400       336
    10.9600       338
    10.9800       324
    11.0000       308
    11.0200       354
    11.0400       334
    11.0600       326
    11.0800       322
    11.1000       340
    11.1200       324
    11.1400       342
    11.1600       322
    11.1800       334
    11.2000       344
    11.2200       320
    11.2400       354
    11.2600       342
    11.2800       362
    11.3000       362
    11.3200       352
    11.3400       298
    11.3600       328
    11.3800       342
    11.4000       302
    11.4200       344
    11.4400       336
    11.4600       322
    11.4800       318
    11.5000       328
    11.5200       334
    11.5400       350
    11.5600       308
    11.5800       356
    11.6000       346
    11.6200       312
    11.6400       334
    11.6600       326
    11.6800       360
    11.7000       298
    11.7200       394
    11.7400       334
    11.7600       348
    11.7800       394
    11.8000       380
    11.8200       366
    11.8400       372
    11.8600       376
    11.8800       388
    11.9000       434
    11.9200       454
    11.9400       458
    11.9600       414
    11.9800       504
    12.0000       526
    12.0200       550
    12.0400       574
    12.0600       640
    12.0800       634
    12.1000       714
    12.1200       782
    12.1400       876
    12.1600       972
    12.1800      1036
    12.2000      1050
    12.2200       952
    12.2400       854
    12.2600       726
    12.2800       578
    12.3000       472
    12.3200       418
    12.3400       378
    12.3600       354
    12.3800       360
    12.4000       336
    12.4200       308
    12.4400       286
    12.4600       360
    12.4800       322
    12.5000       306
    12.5200       308
    12.5400       322
    12.5600       326
    12.5800       330
    12.6000       316
    12.6200       278
    12.6400       296
    12.6600       300
    12.6800       310
    12.7000       312
    12.7200       294
    12.7400       264
    12.7600       294
    12.7800       310
    12.8000       274
    12.8200       282
    12.8400       288
    12.8600       278
    12.8800       288
    12.9000       272
    12.9200       296
    12.9400       286
    12.9600       292
    12.9800       302
    13.0000       282
    13.0200       256
    13.0400       242
    13.0600       280
    13.0800       296
    13.1000       298
    13.1200       256
    13.1400       270
    13.1600       304
    13.1800       270
    13.2000       294
    13.2200       260
    13.2400       282
    13.2600       252
    13.2800       270
    13.3000       276
    13.3200       284
    13.3400       248
    13.3600       278
    13.3800       312
    13.4000       268
    13.4200       248
    13.4400       280
    13.4600       286
    13.4800       278
    13.5000       274
    13.5200       268
    13.5400       304
    13.5600       258
    13.5800       244
    13.6000       294
    13.6200       280
    13.6400       266
    13.6600       272
    13.6800       268
    13.7000       260
    13.7200       276
    13.7400       260
    13.7600       284
    13.7800       264
    13.8000       278
    13.8200       296
    13.8400       260
    13.8600       264
    13.8800       266
    13.9000       264
    13.9200       270
    13.9400       264
    13.9600       250
    13.9800       254
    14.0000       258
    14.0200       250
    14.0400       254
    14.0600       256
    14.0800       258
    14.1000       270
    14.1200       270
    14.1400       272
    14.1600       256
    14.1800       286
    14.2000       244
    14.2200       264
    14.2400       270
    14.2600       244
    14.2800       268
    14.3000       280
    14.3200       258
    14.3400       266
    14.3600       292
    14.3800       270
    14.4000       256
    14.4200       278
    14.4400       274
    14.4600       276
    14.4800       304
    14.5000       282
    14.5200       318
    14.5400       296
    14.5600       298
    14.5800       310
    14.6000       328
    14.6200       314
    14.6400       314
    14.6600       340
    14.6800       322
    14.7000       366
    14.7200       390
    14.7400       430
    14.7600       446
    14.7800       486
    14.8000       506
    14.8200       506
    14.8400       602
    14.8600       638
    14.8800       728
    14.9000       784
    14.9200       934
    14.9400      1020
    14.9600      1208
    14.9800      1318
    15.0000      1344
    15.0200      1312
    15.0400      1236
    15.0600      1286
    15.0800      1182
    15.1000      1212
    15.1200      1300
    15.1400      1426
    15.1600      1500
    15.1800      1608
    15.2000      1564
    15.2200      1446
    15.2400      1226
    15.2600       978
    15.2800       758
    15.3000       584
    15.3200       500
    15.3400       432
    15.3600       342
    15.3800       366
    15.4000       358
    15.4200       340
    15.4400       294
    15.4600       318
    15.4800       296
    15.5000       250
    15.5200       260
    15.5400       270
    15.5600       276
    15.5800       264
    15.6000       268
    15.6200       256
    15.6400       262
    15.6600       264
    15.6800       246
    15.7000       286
    15.7200       276
    15.7400       272
    15.7600       222
    15.7800       286
    15.8000       282
    15.8200       226
    15.8400       236
    15.8600       240
    15.8800       244
    15.9000       268
    15.9200       226
    15.9400       248
    15.9600       250
    15.9800       252
    16.0000       260
    16.0200       232
    16.0400       246
    16.0600       264
    16.0800       246
    16.1000       258
    16.1200       282
    16.1400       234
    16.1600       288
    16.1800       264
    16.2000       256
    16.2200       306
    16.2400       282
    16.2600       308
    16.2800       296
    16.3000       300
    16.3200       296
    16.3400       306
    16.3600       300
    16.3800       308
    16.4000       262
    16.4200       286
    16.4400       284
    16.4600       244
    16.4800       272
    16.5000       280
    16.5200       274
    16.5400       294
    16.5600       302
    16.5800       310
    16.6000       300
    16.6200       332
    16.6400       356
    16.6600       340
    16.6800       390
    16.7000       396
    16.7200       406
    16.7400       512
    16.7600       468
    16.7800       518
    16.8000       554
    16.8200       616
    16.8400       692
    16.8600       780
    16.8800       836
    16.9000       954
    16.9200      1102
    16.9400      1236
    16.9600      1354
    16.9800      1606
    17.0000      1894
    17.0200      2230
    17.0400      2454
    17.0600      2472
    17.0800      2436
    17.1000      2362
    17.1200      1966
    17.1400      1700
    17.1600      1510
    17.1800      1140
    17.2000      1144
    17.2200      1104
    17.2400      1134
    17.2600      1138
    17.2800      1176
    17.3000      1184
    17.3200      1228
    17.3400      1158
    17.3600      1126
    17.3800      1180
    17.4000      1212
    17.4200      1250
    17.4400      1240
    17.4600      1166
    17.4800      1126
    17.5000       928
    17.5200       808
    17.5400       658
    17.5600       620
    17.5800       618
    17.6000       554
    17.6200       590
    17.6400       608
    17.6600       668
    17.6800       698
    17.7000       770
    17.7200       832
    17.7400       874
    17.7600       880
    17.7800       944
    17.8000       850
    17.8200       836
    17.8400       830
    17.8600       652
    17.8800       596
    17.9000       472
    17.9200       410
    17.9400       370
    17.9600       332
    17.9800       282
    18.0000       266
    18.0200       262
    18.0400       260
    18.0600       254
    18.0800       252
    18.1000       248
    18.1200       248
    18.1400       262
    18.1600       256
    18.1800       246
    18.2000       226
    18.2200       232
    18.2400       244
    18.2600       224
    18.2800       234
    18.3000       220
    18.3200       204
    18.3400       206
    18.3600       212
    18.3800       190
    18.4000       210
    18.4200       224
    18.4400       216
    18.4600       224
    18.4800       202
    18.5000       244
    18.5200       210
    18.5400       208
    18.5600       218
    18.5800       248
    18.6000       224
    18.6200       212
    18.6400       228
    18.6600       248
    18.6800       214
    18.7000       236
    18.7200       212
    18.7400       236
    18.7600       206
    18.7800       226
    18.8000       242
    18.8200       224
    18.8400       258
    18.8600       238
    18.8800       248
    18.9000       220
    18.9200       220
    18.9400       218
    18.9600       210
    18.9800       240
    19.0000       236
    19.0200       252
    19.0400       252
    19.0600       252
    19.0800       252
    19.1000       238
    19.1200       240
    19.1400       244
    19.1600       256
    19.1800       258
    19.2000       268
    19.2200       328
    19.2400       320
    19.2600       316
    19.2800       374
    19.3000       344
    19.3200       382
    19.3400       378
    19.3600       428
    19.3800       480
    19.4000       470
    19.4200       548
    19.4400       636
    19.4600       666
    19.4800       698
    19.5000       854
    19.5200       912
    19.5400       982
    19.5600      1024
    19.5800      1080
    19.6000      1012
    19.6200       872
    19.6400       834
    19.6600       696
    19.6800       608
    19.7000       548
    19.7200       488
    19.7400       492
    19.7600       442
    19.7800       452
    19.8000       486
    19.8200       532
    19.8400       552
    19.8600       574
    19.8800       632
    19.9000       680
    19.9200       748
    19.9400       786
    19.9600       866
    19.9800       932
    20.0000       876
    20.0200       918
    20.0400       878
    20.0600       828
    20.0800       702
    20.1000       602
    20.1200       530
    20.1400       514
    20.1600       450
    20.1800       424
    20.2000       394
    20.2200       388
    20.2400       400
    20.2600       420
    20.2800       390
    20.3000       360
    20.3200       362
    20.3400       362
    20.3600       322
    20.3800       296
    20.4000       298
    20.4200       248
    20.4400       290
    20.4600       280
    20.4800       268
    20.5000       268
    20.5200       274
    20.5400       264
    20.5600       276
    20.5800       254
    20.6000       266
    20.6200       242
    20.6400       252
    20.6600       256
    20.6800       274
    20.7000       272
    20.7200       336
    20.7400       290
    20.7600       364
    20.7800       354
    20.8000       332
    20.8200       394
    20.8400       362
    20.8600       416
    20.8800       474
    20.9000       516
    20.9200       584
    20.9400       672
    20.9600       732
    20.9800       812
    21.0000       904
    21.0200      1018
    21.0400      1182
    21.0600      1402
    21.0800      1588
    21.1000      1890
    21.1200      2244
    21.1400      2542
    21.1600      2846
    21.1800      3260
    21.2000      3448
    21.2200      3352
    21.2400      3192
    21.2600      2806
    21.2800      2236
    21.3000      1914
    21.3200      1342
    21.3400      1056
    21.3600       858
    21.3800       764
    21.4000       592
    21.4200       510
    21.4400       486
    21.4600       412
    21.4800       394
    21.5000       384
    21.5200       330
    21.5400       300
    21.5600       336
    21.5800       256
    21.6000       258
    21.6200       224
    21.6400       278
    21.6600       250
    21.6800       230
    21.7000       256
    21.7200       248
    21.7400       256
    21.7600       222
    21.7800       224
    21.8000       224
    21.8200       204
    21.8400       208
    21.8600       216
    21.8800       208
    21.9000       224
    21.9200       212
    21.9400       204
    21.9600       222
    21.9800       200
    22.0000       220
    22.0200       214
    22.0400       220
    22.0600       226
    22.0800       212
    22.1000       198
    22.1200       216
    22.1400       198
    22.1600       232
    22.1800       224
    22.2000       224
    22.2200       204
    22.2400       210
    22.2600       206
    22.2800       216
    22.3000       232
    22.3200       228
    22.3400       208
    22.3600       258
    22.3800       214
    22.4000       228
    22.4200       244
    22.4400       248
    22.4600       266
    22.4800       264
    22.5000       236
    22.5200       290
    22.5400       278
    22.5600       288
    22.5800       304
    22.6000       310
    22.6200       322
    22.6400       378
    22.6600       408
    22.6800       478
    22.7000       526
    22.7200       550
    22.7400       666
    22.7600       746
    22.7800       760
    22.8000       896
    22.8200       974
    22.8400      1096
    22.8600      1208
    22.8800      1208
    22.9000      1260
    22.9200      1222
    22.9400      1044
    22.9600       926
    22.9800       788
    23.0000       634
    23.0200       526
    23.0400       488
    23.0600       408
    23.0800       378
    23.1000       334
    23.1200       316
    23.1400       296
    23.1600       288
    23.1800       272
    23.2000       300
    23.2200       276
    23.2400       250
    23.2600       244
    23.2800       236
    23.3000       230
    23.3200       222
    23.3400       262
    23.3600       258
    23.3800       210
    23.4000       198
    23.4200       208
    23.4400       226
    23.4600       242
    23.4800       224
    23.5000       224
    23.5200       188
    23.5400       206
    23.5600       218
    23.5800       214
    23.6000       236
    23.6200       206
    23.6400       194
    23.6600       230
    23.6800       228
    23.7000       214
    23.7200       248
    23.7400       208
    23.7600       250
    23.7800       244
    23.8000       226
    23.8200       204
    23.8400       222
    23.8600       200
    23.8800       210
    23.9000       226
    23.9200       252
    23.9400       220
    23.9600       244
    23.9800       260
    24.0000       258
    24.0200       258
    24.0400       262
    24.0600       278
    24.0800       302
    24.1000       286
    24.1200       318
    24.1400       332
    24.1600       332
    24.1800       366
    24.2000       394
    24.2200       430
    24.2400       424
    24.2600       540
    24.2800       566
    24.3000       664
    24.3200       672
    24.3400       784
    24.3600       842
    24.3800      1000
    24.4000      1062
    24.4200      1224
    24.4400      1510
    24.4600      1702
    24.4800      1952
    24.5000      2180
    24.5200      2230
    24.5400      2350
    24.5600      2262
    24.5800      2064
    24.6000      1870
    24.6200      1582
    24.6400      1262
    24.6600      1178
    24.6800      1052
    24.7000       914
    24.7200       880
    24.7400       864
    24.7600       878
    24.7800       906
    24.8000       878
    24.8200       810
    24.8400       806
    24.8600       786
    24.8800       860
    24.9000       894
    24.9200       904
    24.9400       980
    24.9600       968
    24.9800       886
    25.0000       832
    25.0200       800
    25.0400       712
    25.0600       694
    25.0800       684
    25.1000       652
    25.1200       670
    25.1400       732
    25.1600       804
    25.1800       818
    25.2000       986
    25.2200      1026
    25.2400      1150
    25.2600      1278
    25.2800      1280
    25.3000      1270
    25.3200      1202
    25.3400      1124
    25.3600       880
    25.3800       846
    25.4000       730
    25.4200       580
    25.4400       526
    25.4600       510
    25.4800       456
    25.5000       494
    25.5200       446
    25.5400       482
    25.5600       478
    25.5800       472
    25.6000       508
    25.6200       518
    25.6400       514
    25.6600       484
    25.6800       512
    25.7000       444
    25.7200       402
    25.7400       374
    25.7600       350
    25.7800       330
    25.8000       316
    25.8200       292
    25.8400       300
    25.8600       302
    25.8800       290
    25.9000       306
    25.9200       254
    25.9400       296
    25.9600       232
    25.9800       260
    26.0000       254
    26.0200       260
    26.0400       254
    26.0600       254
    26.0800       248
    26.1000       262
    26.1200       278
    26.1400       262
    26.1600       268
    26.1800       274
    26.2000       316
    26.2200       290
    26.2400       284
    26.2600       330
    26.2800       346
    26.3000       350
    26.3200       352
    26.3400       430
    26.3600       402
    26.3800       424
    26.4000       410
    26.4200       450
    26.4400       472
    26.4600       516
    26.4800       514
    26.5000       516
    26.5200       548
    26.5400       506
    26.5600       544
    26.5800       502
    26.6000       604
    26.6200       518
    26.6400       552
    26.6600       542
    26.6800       552
    26.7000       478
    26.7200       496
    26.7400       546
    26.7600       514
    26.7800       436
    26.8000       404
    26.8200       374
    26.8400       364
    26.8600       356
    26.8800       346
    26.9000       322
    26.9200       304
    26.9400       350
    26.9600       330
    26.9800       312
    27.0000       308
    27.0200       352
    27.0400       352
    27.0600       302
    27.0800       322
    27.1000       388
    27.1200       374
    27.1400       378
    27.1600       424
    27.1800       500
    27.2000       478
    27.2200       506
    27.2400       578
    27.2600       614
    27.2800       698
    27.3000       762
    27.3200       868
    27.3400       916
    27.3600      1114
    27.3800      1300
    27.4000      1562
    27.4200      1746
    27.4400      1894
    27.4600      2048
    27.4800      2182
    27.5000      2220
    27.5200      2104
    27.5400      1836
    27.5600      1660
    27.5800      1488
    27.6000      1254
    27.6200      1046
    27.6400       828
    27.6600       720
    27.6800       610
    27.7000       522
    27.7200       478
    27.7400       436
    27.7600       416
    27.7800       372
    27.8000       342
    27.8200       346
    27.8400       334
    27.8600       328
    27.8800       326
    27.9000       280
    27.9200       276
    27.9400       286
    27.9600       304
    27.9800       276
    28.0000       280
    28.0200       268
    28.0400       280
    28.0600       288
    28.0800       272
    28.1000       264
    28.1200       270
    28.1400       238
    28.1600       268
    28.1800       308
    28.2000       300
    28.2200       286
    28.2400       314
    28.2600       294
    28.2800       306
    28.3000       324
    28.3200       282
    28.3400       310
    28.3600       288
    28.3800       312
    28.4000       296
    28.4200       278
    28.4400       302
    28.4600       316
    28.4800       278
    28.5000       300
    28.5200       308
    28.5400       280
    28.5600       288
    28.5800       310
    28.6000       314
    28.6200       368
    28.6400       374
    28.6600       356
    28.6800       388
    28.7000       440
    28.7200       422
    28.7400       452
    28.7600       422
    28.7800       390
    28.8000       442
    28.8200       448
    28.8400       424
    28.8600       394
    28.8800       406
    28.9000       412
    28.9200       390
    28.9400       356
    28.9600       340
    28.9800       306
    29.0000       316
    29.0200       312
    29.0400       292
    29.0600       306
    29.0800       324
    29.1000       302
    29.1200       342
    29.1400       324
    29.1600       358
    29.1800       360
    29.2000       390
    29.2200       408
    29.2400       428
    29.2600       456
    29.2800       456
    29.3000       558
    29.3200       586
    29.3400       692
    29.3600       728
    29.3800       800
    29.4000       890
    29.4200       934
    29.4400       976
    29.4600      1012
    29.4800      1010
    29.5000      1082
    29.5200      1070
    29.5400      1084
    29.5600      1140
    29.5800      1198
    29.6000      1282
    29.6200      1302
    29.6400      1358
    29.6600      1280
    29.6800      1204
    29.7000      1156
    29.7200      1076
    29.7400       938
    29.7600       848
    29.7800       806
    29.8000       744
    29.8200       778
    29.8400       776
    29.8600       830
    29.8800       758
    29.9000       832
    29.9200       910
    29.9400       960
    29.9600      1042
    29.9800      1218
    30.0000      1356
    30.0200      1594
    30.0400      1812
    30.0600      2062
    30.0800      2512
    30.1000      2916
    30.1200      3394
    30.1400      3916
    30.1600      4268
    30.1800      4630
    30.2000      4780
    30.2200      4814
    30.2400      4838
    30.2600      4600
    30.2800      4166
    30.3000      3712
    30.3200      3336
    30.3400      2954
    30.3600      2730
    30.3800      2456
    30.4000      2296
    30.4200      2106
    30.4400      2170
    30.4600      2282
    30.4800      2558
    30.5000      2908
    30.5200      3154
    30.5400      3552
    30.5600      4114
    30.5800      4792
    30.6000      5520
    30.6200      6126
    30.6400      6898
    30.6600      7112
    30.6800      7056
    30.7000      6832
    30.7200      6334
    30.7400      5778
    30.7600      5050
    30.7800      4228
    30.8000      3664
    30.8200      3080
    30.8400      2702
    30.8600      2610
    30.8800      2472
    30.9000      2536
    30.9200      2580
    30.9400      2682
    30.9600      2722
    30.9800      2542
    31.0000      2340
    31.0200      2086
    31.0400      1828
    31.0600      1542
    31.0800      1304
    31.1000      1038
    31.1200       862
    31.1400       778
    31.1600       690
    31.1800       592
    31.2000       570
    31.2200       510
    31.2400       496
    31.2600       444
    31.2800       444
    31.3000       444
    31.3200       370
    31.3400       364
    31.3600       384
    31.3800       378
    31.4000       372
    31.4200       372
    31.4400       344
    31.4600       320
    31.4800       336
    31.5000       310
    31.5200       344
    31.5400       324
    31.5600       352
    31.5800       378
    31.6000       346
    31.6200       376
    31.6400       344
    31.6600       396
    31.6800       394
    31.7000       378
    31.7200       422
    31.7400       448
    31.7600       480
    31.7800       424
    31.8000       438
    31.8200       510
    31.8400       478
    31.8600       522
    31.8800       542
    31.9000       544
    31.9200       562
    31.9400       590
    31.9600       680
    31.9800       684
    32.0000       720
    32.0200       822
    32.0400       816
    32.0600       806
    32.0800       728
    32.1000       778
    32.1200       766
    32.1400       710
    32.1600       646
    32.1800       632
    32.2000       616
    32.2200       586
    32.2400       622
    32.2600       550
    32.2800       632
    32.3000       638
    32.3200       696
    32.3400       766
    32.3600       786
    32.3800       860
    32.4000       968
    32.4200      1026
    32.4400      1158
    32.4600      1310
    32.4800      1508
    32.5000      1702
    32.5200      1776
    32.5400      2096
    32.5600      2376
    32.5800      2444
    32.6000      2634
    32.6200      2540
    32.6400      2590
    32.6600      2502
    32.6800      2276
    32.7000      2148
    32.7200      1830
    32.7400      1644
    32.7600      1310
    32.7800      1216
    32.8000      1048
    32.8200       908
    32.8400       794
    32.8600       740
    32.8800       630
    32.9000       614
    32.9200       608
    32.9400       594
    32.9600       524
    32.9800       554
    33.0000       520
    33.0200       546
    33.0400       588
    33.0600       584
    33.0800       578
    33.1000       630
    33.1200       622
    33.1400       608
    33.1600       560
    33.1800       556
    33.2000       456
    33.2200       468
    33.2400       442
    33.2600       446
    33.2800       412
    33.3000       350
    33.3200       334
    33.3400       338
    33.3600       322
    33.3800       286
    33.4000       264
    33.4200       292
    33.4400       260
    33.4600       248
    33.4800       266
    33.5000       248
    33.5200       248
    33.5400       238
    33.5600       264
    33.5800       244
    33.6000       234
    33.6200       228
    33.6400       216
    33.6600       244
    33.6800       228
    33.7000       218
    33.7200       242
    33.7400       206
    33.7600       216
    33.7800       196
    33.8000       190
    33.8200       234
    33.8400       202
    33.8600       246
    33.8800       222
    33.9000       234
    33.9200       224
    33.9400       216
    33.9600       232
    33.9800       220
    34.0000       232
    34.0200       222
    34.0400       246
    34.0600       256
    34.0800       252
    34.1000       260
    34.1200       246
    34.1400       270
    34.1600       242
    34.1800       252
    34.2000       248
    34.2200       266
    34.2400       282
    34.2600       280
    34.2800       296
    34.3000       274
    34.3200       290
    34.3400       362
    34.3600       320
    34.3800       372
    34.4000       410
    34.4200       484
    34.4400       496
    34.4600       500
    34.4800       580
    34.5000       648
    34.5200       668
    34.5400       630
    34.5600       700
    34.5800       662
    34.6000       568
    34.6200       542
    34.6400       484
    34.6600       440
    34.6800       406
    34.7000       384
    34.7200       376
    34.7400       368
    34.7600       320
    34.7800       338
    34.8000       302
    34.8200       290
    34.8400       324
    34.8600       304
    34.8800       282
    34.9000       298
    34.9200       324
    34.9400       294
    34.9600       296
    34.9800       306
    35.0000       336
    35.0200       288
    35.0400       326
    35.0600       334
    35.0800       296
    35.1000       372
    35.1200       340
    35.1400       334
    35.1600       360
    35.1800       330
    35.2000       316
    35.2200       336
    35.2400       310
    35.2600       352
    35.2800       312
    35.3000       328
    35.3200       336
    35.3400       320
    35.3600       300
    35.3800       272
    35.4000       310
    35.4200       310
    35.4400       310
    35.4600       294
    35.4800       298
    35.5000       274
    35.5200       286
    35.5400       298
    35.5600       302
    35.5800       284
    35.6000       302
    35.6200       298
    35.6400       278
    35.6600       356
    35.6800       314
    35.7000       286
    35.7200       330
    35.7400       310
    35.7600       346
    35.7800       360
    35.8000       406
    35.8200       416
    35.8400       404
    35.8600       404
    35.8800       466
    35.9000       498
    35.9200       532
    35.9400       502
    35.9600       574
    35.9800       608
    36.0000       636
    36.0200       746
    36.0400       714
    36.0600       756
    36.0800       756
    36.1000       790
    36.1200       690
    36.1400       734
    36.1600       608
    36.1800       634
    36.2000       622
    36.2200       596
    36.2400       530
    36.2600       482
    36.2800       456
    36.3000       506
    36.3200       404
    36.3400       362
    36.3600       382
    36.3800       360
    36.4000       330
    36.4200       336
    36.4400       368
    36.4600       332
    36.4800       328
    36.5000       330
    36.5200       342
    36.5400       316
    36.5600       346
    36.5800       378
    36.6000       338
    36.6200       346
    36.6400       376
    36.6600       330
    36.6800       342
    36.7000       378
    36.7200       382
    36.7400       446
    36.7600       502
    36.7800       522
    36.8000       530
    36.8200       630
    36.8400       626
    36.8600       666
    36.8800       742
    36.9000       772
    36.9200       826
    36.9400       830
    36.9600       858
    36.9800       832
    37.0000       920
    37.0200       884
    37.0400       878
    37.0600       978
    37.0800      1010
    37.1000      1014
    37.1200      1066
    37.1400      1122
    37.1600      1160
    37.1800      1250
    37.2000      1178
    37.2200      1100
    37.2400      1126
    37.2600      1050
    37.2800       928
    37.3000       872
    37.3200       790
    37.3400       686
    37.3600       656
    37.3800       618
    37.4000       586
    37.4200       522
    37.4400       486
    37.4600       482
    37.4800       500
    37.5000       410
    37.5200       412
    37.5400       470
    37.5600       456
    37.5800       462
    37.6000       444
    37.6200       430
    37.6400       466
    37.6600       488
    37.6800       448
    37.7000       462
    37.7200       510
    37.7400       510
    37.7600       544
    37.7800       574
    37.8000       578
    37.8200       614
    37.8400       692
    37.8600       708
    37.8800       754
    37.9000       874
    37.9200       978
    37.9400      1080
    37.9600      1222
    37.9800      1278
    38.0000      1292
    38.0200      1308
    38.0400      1328
    38.0600      1320
    38.0800      1242
    38.1000      1190
    38.1200      1146
    38.1400      1048
    38.1600      1062
    38.1800       934
    38.2000       914
    38.2200       972
    38.2400       932
    38.2600       910
    38.2800       990
    38.3000      1024
    38.3200      1052
    38.3400      1102
    38.3600      1284
    38.3800      1258
    38.4000      1372
    38.4200      1496
    38.4400      1704
    38.4600      1910
    38.4800      2234
    38.5000      2448
    38.5200      2760
    38.5400      3140
    38.5600      3388
    38.5800      3738
    38.6000      4060
    38.6200      4366
    38.6400      4488
    38.6600      4442
    38.6800      4100
    38.7000      4034
    38.7200      3720
    38.7400      3424
    38.7600      3296
    38.7800      2848
    38.8000      2630
    38.8200      2472
    38.8400      2088
    38.8600      1844
    38.8800      1754
    38.9000      1546
    38.9200      1514
    38.9400      1460
    38.9600      1476
    38.9800      1480
    39.0000      1494
    39.0200      1644
    39.0400      1708
    39.0600      1830
    39.0800      2028
    39.1000      1950
    39.1200      2036
    39.1400      1990
    39.1600      1990
    39.1800      1848
    39.2000      1876
    39.2200      1822
    39.2400      1786
    39.2600      1618
    39.2800      1724
    39.3000      1608
    39.3200      1568
    39.3400      1492
    39.3600      1404
    39.3800      1414
    39.4000      1266
    39.4200      1274
    39.4400      1154
    39.4600      1038
    39.4800       954
    39.5000       866
    39.5200       832
    39.5400       826
    39.5600       782
    39.5800       788
    39.6000       782
    39.6200       804
    39.6400       822
    39.6600       866
    39.6800       800
    39.7000       994
    39.7200       976
    39.7400      1034
    39.7600      1038
    39.7800      1020
    39.8000       946
    39.8200       966
    39.8400       912
    39.8600       872
    39.8800       866
    39.9000       844
    39.9200       816
    39.9400       782
    39.9600       786
    39.9800       810
    40.0000       768
    40.0200       874
    40.0400       894
    40.0600       980
    40.0800      1096
    40.1000      1234
    40.1200      1212
    40.1400      1344
    40.1600      1420
    40.1800      1364
    40.2000      1420
    40.2200      1424
    40.2400      1366
    40.2600      1260
    40.2800      1206
    40.3000      1124
    40.3200      1140
    40.3400      1092
    40.3600       962
    40.3800       996
    40.4000      1052
    40.4200      1086
    40.4400      1096
    40.4600      1186
    40.4800      1118
    40.5000      1210
    40.5200      1304
    40.5400      1238
    40.5600      1194
    40.5800      1168
    40.6000      1238
    40.6200      1106
    40.6400      1092
    40.6600      1018
    40.6800       902
    40.7000       906
    40.7200       870
    40.7400       794
    40.7600       748
    40.7800       720
    40.8000       622
    40.8200       648
    40.8400       634
    40.8600       622
    40.8800       616
    40.9000       676
    40.9200       644
    40.9400       694
    40.9600       652
    40.9800       716
    41.0000       736
    41.0200       812
    41.0400       852
    41.0600       914
    41.0800       988
    41.1000      1104
    41.1200      1186
    41.1400      1378
    41.1600      1550
    41.1800      1804
    41.2000      2050
    41.2200      2266
    41.2400      2462
    41.2600      2668
    41.2800      2708
    41.3000      2770
    41.3200      2684
    41.3400      2766
    41.3600      2654
    41.3800      2662
    41.4000      2540
    41.4200      2570
    41.4400      2448
    41.4600      2324
    41.4800      2146
    41.5000      1992
    41.5200      1864
    41.5400      1708
    41.5600      1452
    41.5800      1448
    41.6000      1278
    41.6200      1190
    41.6400      1066
    41.6600       886
    41.6800       858
    41.7000       786
    41.7200       772
    41.7400       740
    41.7600       686
    41.7800       650
    41.8000       612
    41.8200       642
    41.8400       728
    41.8600       702
    41.8800       684
    41.9000       688
    41.9200       698
    41.9400       672
    41.9600       746
    41.9800       736
    42.0000       658
    42.0200       682
    42.0400       692
    42.0600       624
    42.0800       626
    42.1000       576
    42.1200       508
    42.1400       486
    42.1600       474
    42.1800       452
    42.2000       412
    42.2200       410
    42.2400       406
    42.2600       414
    42.2800       348
    42.3000       392
    42.3200       380
    42.3400       392
    42.3600       366
    42.3800       372
    42.4000       374
    42.4200       370
    42.4400       350
    42.4600       302
    42.4800       330
    42.5000       344
    42.5200       344
    42.5400       352
    42.5600       328
    42.5800       368
    42.6000       312
    42.6200       334
    42.6400       322
    42.6600       336
    42.6800       312
    42.7000       298
    42.7200       308
    42.7400       332
    42.7600       308
    42.7800       326
    42.8000       308
    42.8200       302
    42.8400       342
    42.8600       334
    42.8800       350
    42.9000       374
    42.9200       382
    42.9400       346
    42.9600       394
    42.9800       406
    43.0000       420
    43.0200       456
    43.0400       484
    43.0600       458
    43.0800       530
    43.1000       558
    43.1200       596
    43.1400       628
    43.1600       684
    43.1800       786
    43.2000       830
    43.2200       838
    43.2400       806
    43.2600       884
    43.2800       868
    43.3000       866
    43.3200       838
    43.3400       826
    43.3600       804
    43.3800       708
    43.4000       698
    43.4200       632
    43.4400       624
    43.4600       570
    43.4800       512
    43.5000       476
    43.5200       408
    43.5400       420
    43.5600       410
    43.5800       390
    43.6000       376
    43.6200       394
    43.6400       382
    43.6600       394
    43.6800       354
    43.7000       388
    43.7200       402
    43.7400       390
    43.7600       410
    43.7800       450
    43.8000       418
    43.8200       442
    43.8400       458
    43.8600       506
    43.8800       478
    43.9000       468
    43.9200       442
    43.9400       468
    43.9600       446
    43.9800       446
    44.0000       416
    44.0200       456
    44.0400       430
    44.0600       444
    44.0800       432
    44.1000       454
    44.1200       474
    44.1400       502
    44.1600       482
    44.1800       512
    44.2000       478
    44.2200       566
    44.2400       548
    44.2600       638
    44.2800       628
    44.3000       658
    44.3200       678
    44.3400       704
    44.3600       640
    44.3800       606
    44.4000       592
    44.4200       534
    44.4400       552
    44.4600       614
    44.4800       522
    44.5000       502
    44.5200       514
    44.5400       526
    44.5600       544
    44.5800       550
    44.6000       584
    44.6200       568
    44.6400       576
    44.6600       600
    44.6800       584
    44.7000       604
    44.7200       666
    44.7400       724
    44.7600       730
    44.7800       756
    44.8000       848
    44.8200       916
    44.8400      1006
    44.8600      1052
    44.8800      1216
    44.9000      1304
    44.9200      1504
    44.9400      1698
    44.9600      1970
    44.9800      2154
    45.0000      2506
    45.0200      2666
    45.0400      2960
    45.0600      3030
    45.0800      3086
    45.1000      3006
    45.1200      3054
    45.1400      2972
    45.1600      2956
    45.1800      2912
    45.2000      2974
    45.2200      2736
    45.2400      2666
    45.2600      2594
    45.2800      2370
    45.3000      2158
    45.3200      2044
    45.3400      1902
    45.3600      1904
    45.3800      1756
    45.4000      1602
    45.4200      1548
    45.4400      1560
    45.4600      1488
    45.4800      1456
    45.5000      1386
    45.5200      1332
    45.5400      1324
    45.5600      1242
    45.5800      1112
    45.6000      1126
    45.6200      1044
    45.6400      1054
    45.6600       950
    45.6800       852
    45.7000       814
    45.7200       770
    45.7400       778
    45.7600       774
    45.7800       688
    45.8000       656
    45.8200       668
    45.8400       694
    45.8600       650
    45.8800       652
    45.9000       656
    45.9200       628
    45.9400       682
    45.9600       712
    45.9800       804
    46.0000       788
    46.0200       826
    46.0400       900
    46.0600       972
    46.0800       916
    46.1000       942
    46.1200       992
    46.1400      1004
    46.1600       916
    46.1800       888
    46.2000       868
    46.2200       884
    46.2400       902
    46.2600       836
    46.2800       830
    46.3000       804
    46.3200       824
    46.3400       820
    46.3600       876
    46.3800       870
    46.4000       938
    46.4200       960
    46.4400      1070
    46.4600      1130
    46.4800      1202
    46.5000      1236
    46.5200      1354
    46.5400      1390
    46.5600      1454
    46.5800      1516
    46.6000      1680
    46.6200      1786
    46.6400      1946
    46.6600      2104
    46.6800      2284
    46.7000      2420
    46.7200      2658
    46.7400      2776
    46.7600      2826
    46.7800      2872
    46.8000      2686
    46.8200      2674
    46.8400      2520
    46.8600      2354
    46.8800      2206
    46.9000      2074
    46.9200      1824
    46.9400      1688
    46.9600      1462
    46.9800      1310
    47.0000      1148
    47.0200      1090
    47.0400       926
    47.0600       862
    47.0800       790
    47.1000       684
    47.1200       676
    47.1400       654
    47.1600       592
    47.1800       554
    47.2000       552
    47.2200       504
    47.2400       510
    47.2600       482
    47.2800       468
    47.3000       486
    47.3200       450
    47.3400       450
    47.3600       418
    47.3800       390
    47.4000       458
    47.4200       362
    47.4400       382
    47.4600       420
    47.4800       376
    47.5000       390
    47.5200       358
    47.5400       394
    47.5600       344
    47.5800       364
    47.6000       382
    47.6200       372
    47.6400       372
    47.6600       380
    47.6800       368
    47.7000       358
    47.7200       382
    47.7400       402
    47.7600       368
    47.7800       428
    47.8000       402
    47.8200       414
    47.8400       446
    47.8600       454
    47.8800       458
    47.9000       472
    47.9200       466
    47.9400       506
    47.9600       458
    47.9800       466
    48.0000       504
    48.0200       500
    48.0400       520
    48.0600       494
    48.0800       454
    48.1000       504
    48.1200       504
    48.1400       464
    48.1600       532
    48.1800       566
    48.2000       544
    48.2200       514
    48.2400       614
    48.2600       596
    48.2800       644
    48.3000       664
    48.3200       732
    48.3400       688
    48.3600       784
    48.3800       808
    48.4000       872
    48.4200       910
    48.4400      1088
    48.4600      1104
    48.4800      1206
    48.5000      1344
    48.5200      1434
    48.5400      1608
    48.5600      1760
    48.5800      1804
    48.6000      1960
    48.6200      1880
    48.6400      1808
    48.6600      1748
    48.6800      1692
    48.7000      1684
    48.7200      1606
    48.7400      1500
    48.7600      1328
    48.7800      1224
    48.8000      1078
    48.8200      1002
    48.8400       890
    48.8600       832
    48.8800       726
    48.9000       680
    48.9200       584
    48.9400       580
    48.9600       490
    48.9800       508
    49.0000       456
    49.0200       460
    49.0400       426
    49.0600       430
    49.0800       360
    49.1000       384
    49.1200       340
    49.1400       356
    49.1600       368
    49.1800       370
    49.2000       330
    49.2200       368
    49.2400       336
    49.2600       332
    49.2800       324
    49.3000       344
    49.3200       350
    49.3400       310
    49.3600       342
    49.3800       326
    49.4000       308
    49.4200       322
    49.4400       316
    49.4600       296
    49.4800       322
    49.5000       348
    49.5200       350
    49.5400       354
    49.5600       350
    49.5800       324
    49.6000       358
    49.6200       332
    49.6400       372
    49.6600       364
    49.6800       378
    49.7000       372
    49.7200       430
    49.7400       412
    49.7600       422
    49.7800       444
    49.8000       480
    49.8200       526
    49.8400       570
    49.8600       590
    49.8800       622
    49.9000       624
    49.9200       578
    49.9400       670
    49.9600       674
    49.9800       650
    50.0000       716
    50.0200       746
    50.0400       830
    50.0600       834
    50.0800       886
    50.1000       992
    50.1200      1066
    50.1400      1100
    50.1600      1254
    50.1800      1378
    50.2000      1506
    50.2200      1618
    50.2400      1810
    50.2600      1998
    50.2800      2066
    50.3000      2188
    50.3200      2214
    50.3400      2064
    50.3600      2152
    50.3800      2072
    50.4000      1930
    50.4200      1958
    50.4400      1814
    50.4600      1842
    50.4800      1624
    50.5000      1520
    50.5200      1432
    50.5400      1322
    50.5600      1328
    50.5800      1254
    50.6000      1262
    50.6200      1292
    50.6400      1360
    50.6600      1396
    50.6800      1522
    50.7000      1566
    50.7200      1764
    50.7400      1844
    50.7600      1990
    50.7800      2090
    50.8000      2120
    50.8200      2160
    50.8400      2014
    50.8600      1966
    50.8800      1902
    50.9000      1878
    50.9200      1788
    50.9400      1718
    50.9600      1628
    50.9800      1520
    51.0000      1494
    51.0200      1540
    51.0400      1470
    51.0600      1456
    51.0800      1460
    51.1000      1564
    51.1200      1536
    51.1400      1768
    51.1600      1762
    51.1800      2010
    51.2000      1974
    51.2200      1954
    51.2400      1834
    51.2600      1732
    51.2800      1628
    51.3000      1560
    51.3200      1498
    51.3400      1470
    51.3600      1394
    51.3800      1262
    51.4000      1164
    51.4200      1064
    51.4400       952
    51.4600       942
    51.4800       822
    51.5000       888
    51.5200       862
    51.5400       806
    51.5600       866
    51.5800       926
    51.6000       924
    51.6200      1024
    51.6400      1046
    51.6600      1014
    51.6800      1144
    51.7000      1230
    51.7200      1254
    51.7400      1310
    51.7600      1384
    51.7800      1428
    51.8000      1518
    51.8200      1594
    51.8400      1546
    51.8600      1814
    51.8800      1898
    51.9000      1916
    51.9200      1914
    51.9400      2038
    51.9600      1962
    51.9800      1948
    52.0000      1804
    52.0200      1732
    52.0400      1700
    52.0600      1508
    52.0800      1480
    52.1000      1428
    52.1200      1234
    52.1400      1094
    52.1600       994
    52.1800       914
    52.2000       822
    52.2200       780
    52.2400       786
    52.2600       688
    52.2800       650
    52.3000       604
    52.3200       592
    52.3400       582
    52.3600       512
    52.3800       592
    52.4000       538
    52.4200       564
    52.4400       558
    52.4600       598
    52.4800       634
    52.5000       666
    52.5200       618
    52.5400       614
    52.5600       640
    52.5800       684
    52.6000       660
    52.6200       760
    52.6400       730
    52.6600       764
    52.6800       746
    52.7000       772
    52.7200       832
    52.7400       804
    52.7600       838
    52.7800       846
    52.8000       816
    52.8200       792
    52.8400       756
    52.8600       718
    52.8800       694
    52.9000       678
    52.9200       632
    52.9400       624
    52.9600       604
    52.9800       594
    53.0000       556
    53.0200       576
    53.0400       514
    53.0600       536
    53.0800       478
    53.1000       496
    53.1200       524
    53.1400       578
    53.1600       562
    53.1800       502
    53.2000       610
    53.2200       542
    53.2400       640
    53.2600       622
    53.2800       682
    53.3000       704
    53.3200       772
    53.3400       766
    53.3600       714
    53.3800       676
    53.4000       698
    53.4200       702
    53.4400       662
    53.4600       720
    53.4800       686
    53.5000       720
    53.5200       696
    53.5400       680
    53.5600       718
    53.5800       694
    53.6000       730
    53.6200       668
    53.6400       648
    53.6600       682
    53.6800       648
    53.7000       648
    53.7200       640
    53.7400       678
    53.7600       672
    53.7800       656
    53.8000       642
    53.8200       652
    53.8400       592
    53.8600       570
    53.8800       538
    53.9000       542
    53.9200       528
    53.9400       478
    53.9600       490
    53.9800       520
    54.0000       470
    54.0200       504
    54.0400       536
    54.0600       468
    54.0800       464
    54.1000       492
    54.1200       540
    54.1400       540
    54.1600       548
    54.1800       574
    54.2000       568
    54.2200       594
    54.2400       638
    54.2600       614
    54.2800       708
    54.3000       678
    54.3200       688
    54.3400       722
    54.3600       706
    54.3800       740
    54.4000       748
    54.4200       794
    54.4400       750
    54.4600       706
    54.4800       724
    54.5000       710
    54.5200       672
    54.5400       718
    54.5600       664
    54.5800       654
    54.6000       628
    54.6200       612
    54.6400       614
    54.6600       644
    54.6800       632
    54.7000       584
    54.7200       570
    54.7400       600
    54.7600       574
    54.7800       674
    54.8000       644
    54.8200       676
    54.8400       682
    54.8600       780
    54.8800       742
    54.9000       838
    54.9200       910
    54.9400       928
    54.9600       970
    54.9800       996
    55.0000      1046
    55.0200      1110
    55.0400      1138
    55.0600      1182
    55.0800      1308
    55.1000      1394
    55.1200      1426
    55.1400      1476
    55.1600      1494
    55.1800      1548
    55.2000      1578
    55.2200      1564
    55.2400      1494
    55.2600      1474
    55.2800      1394
    55.3000      1352
    55.3200      1298
    55.3400      1256
    55.3600      1114
    55.3800      1072
    55.4000       950
    55.4200       904
    55.4400       798
    55.4600       746
    55.4800       692
    55.5000       636
    55.5200       632
    55.5400       584
    55.5600       554
    55.5800       480
    55.6000       492
    55.6200       450
    55.6400       420
    55.6600       422
    55.6800       428
    55.7000       394
    55.7200       386
    55.7400       380
    55.7600       400
    55.7800       358
    55.8000       372
    55.8200       322
    55.8400       336
    55.8600       318
    55.8800       324
    55.9000       318
    55.9200       358
    55.9400       340
    55.9600       342
    55.9800       334
    56.0000       294
    56.0200       310
    56.0400       296
    56.0600       306
    56.0800       292
    56.1000       298
    56.1200       300
    56.1400       284
    56.1600       308
    56.1800       320
    56.2000       310
    56.2200       308
    56.2400       328
    56.2600       334
    56.2800       350
    56.3000       334
    56.3200       294
    56.3400       318
    56.3600       362
    56.3800       362
    56.4000       330
    56.4200       362
    56.4400       356
    56.4600       374
    56.4800       370
    56.5000       364
    56.5200       406
    56.5400       440
    56.5600       486
    56.5800       452
    56.6000       486
    56.6200       524
    56.6400       562
    56.6600       568
    56.6800       616
    56.7000       614
    56.7200       680
    56.7400       686
    56.7600       680
    56.7800       648
    56.8000       606
    56.8200       604
    56.8400       590
    56.8600       554
    56.8800       558
    56.9000       538
    56.9200       520
    56.9400       482
    56.9600       432
    56.9800       422
    57.0000       408
    57.0200       402
    57.0400       420
    57.0600       400
    57.0800       360
    57.1000       370
    57.1200       392
    57.1400       380
    57.1600       412
    57.1800       394
    57.2000       396
    57.2200       390
    57.2400       406
    57.2600       440
    57.2800       418
    57.3000       484
    57.3200       480
    57.3400       522
    57.3600       526
    57.3800       574
    57.4000       590
    57.4200       624
    57.4400       612
    57.4600       632
    57.4800       656
    57.5000       674
    57.5200       616
    57.5400       636
    57.5600       602
    57.5800       640
    57.6000       664
    57.6200       616
    57.6400       592
    57.6600       580
    57.6800       596
    57.7000       596
    57.7200       568
    57.7400       596
    57.7600       582
    57.7800       554
    57.8000       616
    57.8200       594
    57.8400       634
    57.8600       624
    57.8800       684
    57.9000       542
    57.9200       554
    57.9400       532
    57.9600       546
    57.9800       598
    58.0000       562
    58.0200       502
    58.0400       526
    58.0600       510
    58.0800       510
    58.1000       568
    58.1200       570
    58.1400       532
    58.1600       568
    58.1800       594
    58.2000       514
    58.2200       596
    58.2400       600
    58.2600       600
    58.2800       630
    58.3000       626
    58.3200       678
    58.3400       668
    58.3600       594
    58.3800       662
    58.4000       720
    58.4200       692
    58.4400       680
    58.4600       752
    58.4800       752
    58.5000       804
    58.5200       786
    58.5400       832
    58.5600       766
    58.5800       822
    58.6000       888
    58.6200       948
    58.6400       908
    58.6600       952
    58.6800       918
    58.7000       968
    58.7200      1006
    58.7400      1044
    58.7600      1048
    58.7800      1064
    58.8000       954
    58.8200      1052
    58.8400      1054
    58.8600      1046
    58.8800      1046
    58.9000       986
    58.9200      1004
    58.9400       970
    58.9600       938
    58.9800       836
    59.0000       900
    59.0200       902
    59.0400       840
    59.0600       816
    59.0800       864
    59.1000       838
    59.1200       804
    59.1400       822
    59.1600       786
    59.1800       846
    59.2000       808
    59.2200       890
    59.2400       910
    59.2600       896
    59.2800       970
    59.3000      1068
    59.3200      1092
    59.3400      1184
    59.3600      1216
    59.3800      1306
    59.4000      1494
    59.4200      1470
    59.4400      1638
    59.4600      1646
    59.4800      1682
    59.5000      1634
    59.5200      1642
    59.5400      1568
    59.5600      1564
    59.5800      1648
    59.6000      1566
    59.6200      1514
    59.6400      1538
    59.6600      1556
    59.6800      1494
    59.7000      1596
    59.7200      1592
    59.7400      1568
    59.7600      1582
    59.7800      1628
    59.8000      1658
    59.8200      1698
    59.8400      1688
    59.8600      1666
    59.8800      1596
    59.9000      1534
    59.9200      1526
    59.9400      1396
    59.9600      1360
    59.9800      1260
    60.0000      1196
    60.0200      1110
    60.0400      1050
    60.0600      1010
    60.0800       922
    60.1000       792
    60.1200       756
    60.1400       682
    60.1600       638
    60.1800       588
    60.2000       530
    60.2200       552
    60.2400       508
    60.2600       488
    60.2800       484
    60.3000       456
    60.3200       454
    60.3400       444
    60.3600       476
    60.3800       406
    60.4000       424
    60.4200       428
    60.4400       460
    60.4600       450
    60.4800       424
    60.5000       434
    60.5200       446
    60.5400       452
    60.5600       514
    60.5800       472
    60.6000       454
    60.6200       494
    60.6400       486
    60.6600       520
    60.6800       508
    60.7000       480
    60.7200       452
    60.7400       428
    60.7600       534
    60.7800       478
    60.8000       496
    60.8200       534
    60.8400       568
    60.8600       546
    60.8800       514
    60.9000       560
    60.9200       634
    60.9400       656
    60.9600       708
    60.9800       748
    61.0000       790
    61.0200       786
    61.0400       870
    61.0600       832
    61.0800       900
    61.1000       920
    61.1200       980
    61.1400       978
    61.1600       926
    61.1800       946
    61.2000      1002
    61.2200      1006
    61.2400      1022
    61.2600      1050
    61.2800      1054
    61.3000      1142
    61.3200      1082
    61.3400      1102
    61.3600      1130
    61.3800      1188
    61.4000      1282
    61.4200      1244
    61.4400      1314
    61.4600      1236
    61.4800      1388
    61.5000      1368
    61.5200      1480
    61.5400      1460
    61.5600      1334
    61.5800      1358
    61.6000      1348
    61.6200      1254
    61.6400      1202
    61.6600      1178
    61.6800      1134
    61.7000      1042
    61.7200      1044
    61.7400       948
    61.7600       888
    61.7800       790
    61.8000       758
    61.8200       690
    61.8400       688
    61.8600       574
    61.8800       562
    61.9000       500
    61.9200       464
    61.9400       448
    61.9600       476
    61.9800       450
    62.0000       436
    62.0200       432
    62.0400       394
    62.0600       370
    62.0800       378
    62.1000       362
    62.1200       392
    62.1400       358
    62.1600       364
    62.1800       414
    62.2000       380
    62.2200       378
    62.2400       398
    62.2600       342
    62.2800       362
    62.3000       380
    62.3200       352
    62.3400       378
    62.3600       372
    62.3800       352
    62.4000       368
    62.4200       364
    62.4400       386
    62.4600       382
    62.4800       344
    62.5000       340
    62.5200       390
    62.5400       392
    62.5600       400
    62.5800       384
    62.6000       394
    62.6200       380
    62.6400       482
    62.6600       416
    62.6800       444
    62.7000       452
    62.7200       454
    62.7400       492
    62.7600       508
    62.7800       540
    62.8000       502
    62.8200       464
    62.8400       502
    62.8600       472
    62.8800       466
    62.9000       440
    62.9200       470
    62.9400       462
    62.9600       472
    62.9800       428
    63.0000       366
    63.0200       386
    63.0400       390
    63.0600       326
    63.0800       348
    63.1000       350
    63.1200       354
    63.1400       286
    63.1600       328
    63.1800       294
    63.2000       296
    63.2200       308
    63.2400       288
    63.2600       244
    63.2800       258
    63.3000       254
    63.3200       260
    63.3400       286
    63.3600       256
    63.3800       268
    63.4000       268
    63.4200       264
    63.4400       276
    63.4600       310
    63.4800       266
    63.5000       290
    63.5200       296
    63.5400       302
    63.5600       316
    63.5800       296
    63.6000       358
    63.6200       336
    63.6400       438
    63.6600       388
    63.6800       390
    63.7000       436
    63.7200       438
    63.7400       480
    63.7600       502
    63.7800       534
    63.8000       592
    63.8200       620
    63.8400       696
    63.8600       696
    63.8800       726
    63.9000       686
    63.9200       712
    63.9400       692
    63.9600       652
    63.9800       644
    64.0000       604
    64.0200       660
    64.0400       652
    64.0600       628
    64.0800       618
    64.1000       594
    64.1200       580
    64.1400       540
    64.1600       468
    64.1800       480
    64.2000       468
    64.2200       432
    64.2400       424
    64.2600       394
    64.2800       424
    64.3000       398
    64.3200       406
    64.3400       374
    64.3600       386
    64.3800       376
    64.4000       378
    64.4200       340
    64.4400       396
    64.4600       344
    64.4800       392
    64.5000       428
    64.5200       424
    64.5400       390
    64.5600       380
    64.5800       384
    64.6000       368
    64.6200       376
    64.6400       328
    64.6600       344
    64.6800       322
    64.7000       340
    64.7200       330
    64.7400       302
    64.7600       302
    64.7800       294
    64.8000       272
    64.8200       280
    64.8400       312
    64.8600       272
    64.8800       282
    64.9000       256
    64.9200       266
    64.9400       264
    64.9600       274
    64.9800       258
    65.0000       260
    65.0200       266
    65.0400       302
    65.0600       268
    65.0800       300
    65.1000       322
    65.1200       266
    65.1400       318
    65.1600       282
    65.1800       288
    65.2000       296
    65.2200       340
    65.2400       300
    65.2600       344
    65.2800       316
    65.3000       336
    65.3200       338
    65.3400       360
    65.3600       354
    65.3800       344
    65.4000       348
    65.4200       330
    65.4400       344
    65.4600       370
    65.4800       354
    65.5000       356
    65.5200       366
    65.5400       378
    65.5600       406
    65.5800       388
    65.6000       418
    65.6200       422
    65.6400       414
    65.6600       414
    65.6800       422
    65.7000       398
    65.7200       380
    65.7400       414
    65.7600       388
    65.7800       382
    65.8000       434
    65.8200       388
    65.8400       388
    65.8600       378
    65.8800       358
    65.9000       386
    65.9200       348
    65.9400       378
    65.9600       330
    65.9800       320
    66.0000       330
    66.0200       330
    66.0400       314
    66.0600       330
    66.0800       298
    66.1000       264
    66.1200       296
    66.1400       276
    66.1600       312
    66.1800       258
    66.2000       322
    66.2200       328
    66.2400       320
    66.2600       290
    66.2800       324
    66.3000       340
    66.3200       318
    66.3400       344
    66.3600       350
    66.3800       384
    66.4000       324
    66.4200       356
    66.4400       368
    66.4600       334
    66.4800       434
    66.5000       372
    66.5200       392
    66.5400       404
    66.5600       432
    66.5800       456
    66.6000       452
    66.6200       476
    66.6400       446
    66.6600       440
    66.6800       464
    66.7000       498
    66.7200       518
    66.7400       506
    66.7600       546
    66.7800       568
    66.8000       586
    66.8200       616
    66.8400       616
    66.8600       702
    66.8800       660
    66.9000       716
    66.9200       702
    66.9400       714
    66.9600       744
    66.9800       730
    67.0000       752
    67.0200       668
    67.0400       752
    67.0600       746
    67.0800       718
    67.1000       742
    67.1200       732
    67.1400       674
    67.1600       662
    67.1800       618
    67.2000       602
    67.2200       566
    67.2400       544
    67.2600       522
    67.2800       516
    67.3000       488
    67.3200       450
    67.3400       440
    67.3600       442
    67.3800       440
    67.4000       422
    67.4200       382
    67.4400       360
    67.4600       396
    67.4800       348
    67.5000       338
    67.5200       346
    67.5400       342
    67.5600       312
    67.5800       310
    67.6000       324
    67.6200       336
    67.6400       316
    67.6600       284
    67.6800       304
    67.7000       290
    67.7200       250
    67.7400       286
    67.7600       266
    67.7800       296
    67.8000       294
    67.8200       322
    67.8400       292
    67.8600       310
    67.8800       320
    67.9000       322
    67.9200       324
    67.9400       308
    67.9600       338
    67.9800       294
    68.0000       320
    68.0200       324
    68.0400       340
    68.0600       368
    68.0800       356
    68.1000       394
    68.1200       380
    68.1400       436
    68.1600       422
    68.1800       490
    68.2000       480
    68.2200       472
    68.2400       514
    68.2600       544
    68.2800       504
    68.3000       540
    68.3200       536
    68.3400       560
    68.3600       548
    68.3800       592
    68.4000       602
    68.4200       560
    68.4400       522
    68.4600       566
    68.4800       540
    68.5000       528
    68.5200       540
    68.5400       510
    68.5600       538
    68.5800       498
    68.6000       472
    68.6200       514
    68.6400       430
    68.6600       396
    68.6800       436
    68.7000       398
    68.7200       390
    68.7400       368
    68.7600       384
    68.7800       346
    68.8000       336
    68.8200       332
    68.8400       322
    68.8600       362
    68.8800       338
    68.9000       316
    68.9200       324
    68.9400       338
    68.9600       324
    68.9800       332
    69.0000       336
    69.0200       328
    69.0400       298
    69.0600       360
    69.0800       334
    69.1000       356
    69.1200       330
    69.1400       332
    69.1600       316
    69.1800       344
    69.2000       354
    69.2200       316
    69.2400       306
    69.2600       330
    69.2800       326
    69.3000       330
    69.3200       294
    69.3400       326
    69.3600       314
    69.3800       304
    69.4000       340
    69.4200       326
    69.4400       314
    69.4600       372
    69.4800       336
    69.5000       332
    69.5200       334
    69.5400       322
    69.5600       294
    69.5800       320
    69.6000       318
    69.6200       330
    69.6400       336
    69.6600       322
    69.6800       362
    69.7000       330
    69.7200       352
    69.7400       386
    69.7600       372
    69.7800       420
    69.8000       398
    69.8200       410
    69.8400       434
    69.8600       390
    69.8800       434
    69.9000       422
    69.9200       368
    69.9400       436
    69.9600       380
    69.9800       376
    70.0000       414
    70.0200       386
    70.0400       360
    70.0600       434
    70.0800       364
    70.1000       384
    70.1200       354
    70.1400       382
    70.1600       326
    70.1800       318
    70.2000       332
    70.2200       326
    70.2400       344
    70.2600       330
    70.2800       314
    70.3000       334
    70.3200       354
    70.3400       306
    70.3600       318
    70.3800       312
    70.4000       264
    70.4200       292
    70.4400       272
    70.4600       296
    70.4800       272
    70.5000       256
    70.5200       262
    70.5400       260
    70.5600       258
    70.5800       254
    70.6000       216
    70.6200       232
    70.6400       260
    70.6600       238
    70.6800       200
    70.7000       212
    70.7200       226
    70.7400       208
    70.7600       184
    70.7800       178
    70.8000       204
    70.8200       182
    70.8400       204
    70.8600       200
    70.8800       196
    70.9000       184
    70.9200       194
    70.9400       192
    70.9600       202
    70.9800       200
    71.0000       190
    71.0200       198
    71.0400       178
    71.0600       210
    71.0800       182
    71.1000       222
    71.1200       238
    71.1400       224
    71.1600       228
    71.1800       210
    71.2000       216
    71.2200       202
    71.2400       210
    71.2600       222
    71.2800       224
    71.3000       228
    71.3200       236
    71.3400       258
    71.3600       208
    71.3800       256
    71.4000       244
    71.4200       268
    71.4400       254
    71.4600       248
    71.4800       264
    71.5000       254
    71.5200       296
    71.5400       292
    71.5600       292
    71.5800       328
    71.6000       282
    71.6200       328
    71.6400       318
    71.6600       298
    71.6800       290
    71.7000       316
    71.7200       346
    71.7400       298
    71.7600       294
    71.7800       298
    71.8000       276
    71.8200       290
    71.8400       308
    71.8600       314
    71.8800       298
    71.9000       264
    71.9200       264
    71.9400       276
    71.9600       290
    71.9800       280
    72.0000       272
    72.0200       292
    72.0400       284
    72.0600       288
    72.0800       276
    72.1000       292
    72.1200       270
    72.1400       280
    72.1600       288
    72.1800       288
    72.2000       300
    72.2200       314
    72.2400       306
    72.2600       332
    72.2800       340
    72.3000       370
    72.3200       396
    72.3400       380
    72.3600       362
    72.3800       412
    72.4000       382
    72.4200       462
    72.4400       432
    72.4600       508
    72.4800       516
    72.5000       544
    72.5200       482
    72.5400       554
    72.5600       528
    72.5800       516
    72.6000       546
    72.6200       538
    72.6400       496
    72.6600       534
    72.6800       470
    72.7000       558
    72.7200       562
    72.7400       552
    72.7600       522
    72.7800       598
    72.8000       536
    72.8200       604
    72.8400       568
    72.8600       582
    72.8800       594
    72.9000       542
    72.9200       518
    72.9400       468
    72.9600       536
    72.9800       450
    73.0000       434
    73.0200       438
    73.0400       372
    73.0600       410
    73.0800       432
    73.1000       426
    73.1200       362
    73.1400       362
    73.1600       358
    73.1800       310
    73.2000       266
    73.2200       302
    73.2400       312
    73.2600       266
    73.2800       304
    73.3000       262
    73.3200       246
    73.3400       244
    73.3600       232
    73.3800       242
    73.4000       258
    73.4200       248
    73.4400       234
    73.4600       208
    73.4800       224
    73.5000       224
    73.5200       204
    73.5400       204
    73.5600       220
    73.5800       208
    73.6000       230
    73.6200       246
    73.6400       208
    73.6600       228
    73.6800       224
    73.7000       218
    73.7200       208
    73.7400       210
    73.7600       244
    73.7800       234
    73.8000       252
    73.8200       224
    73.8400       248
    73.8600       260
    73.8800       238
    73.9000       266
    73.9200       248
    73.9400       258
    73.9600       226
    73.9800       230
    74.0000       238
    74.0200       244
    74.0400       232
    74.0600       244
    74.0800       222
    74.1000       246
    74.1200       262
    74.1400       246
    74.1600       240
    74.1800       236
    74.2000       232
    74.2200       242
    74.2400       236
    74.2600       208
    74.2800       196
    74.3000       224
    74.3200       234
    74.3400       218
    74.3600       202
    74.3800       230
    74.4000       200
    74.4200       192
    74.4400       222
    74.4600       222
    74.4800       206
    74.5000       220
    74.5200       200
    74.5400       228
    74.5600       248
    74.5800       216
    74.6000       230
    74.6200       246
    74.6400       216
    74.6600       270
    74.6800       238
    74.7000       268
    74.7200       268
    74.7400       244
    74.7600       242
    74.7800       230
    74.8000       246
    74.8200       246
    74.8400       242
    74.8600       212
    74.8800       214
    74.9000       230
    74.9200       216
    74.9400       216
    74.9600       206
    74.9800       190
    75.0000       242
    75.0200       242
    75.0400       262
    75.0600       254
    75.0800       244
    75.1000       256
    75.1200       258
    75.1400       250
    75.1600       278
    75.1800       262
    75.2000       298
    75.2200       292
    75.2400       284
    75.2600       276
    75.2800       264
    75.3000       276
    75.3200       278
    75.3400       266
    75.3600       266
    75.3800       282
    75.4000       268
    75.4200       298
    75.4400       248
    75.4600       288
    75.4800       254
    75.5000       256
    75.5200       284
    75.5400       292
    75.5600       260
    75.5800       274
    75.6000       256
    75.6200       292
    75.6400       278
    75.6600       228
    75.6800       258
    75.7000       268
    75.7200       276
    75.7400       268
    75.7600       264
    75.7800       276
    75.8000       248
    75.8200       260
    75.8400       290
    75.8600       284
    75.8800       282
    75.9000       284
    75.9200       312
    75.9400       300
    75.9600       310
    75.9800       296
    76.0000       292
    76.0200       298
    76.0400       298
    76.0600       280
    76.0800       292
    76.1000       298
    76.1200       290
    76.1400       304
    76.1600       282
    76.1800       264
    76.2000       262
    76.2200       258
    76.2400       264
    76.2600       302
    76.2800       296
    76.3000       272
    76.3200       290
    76.3400       296
    76.3600       316
    76.3800       308
    76.4000       304
    76.4200       300
    76.4400       350
    76.4600       320
    76.4800       354
    76.5000       382
    76.5200       386
    76.5400       356
    76.5600       402
    76.5800       402
    76.6000       374
    76.6200       370
    76.6400       404
    76.6600       386
    76.6800       410
    76.7000       408
    76.7200       388
    76.7400       346
    76.7600       370
    76.7800       354
    76.8000       358
    76.8200       330
    76.8400       356
    76.8600       330
    76.8800       340
    76.9000       324
    76.9200       350
    76.9400       314
    76.9600       278
    76.9800       284
    77.0000       282
    77.0200       290
    77.0400       278
    77.0600       268
    77.0800       274
    77.1000       300
    77.1200       296
    77.1400       264
    77.1600       276
    77.1800       312
    77.2000       312
    77.2200       290
    77.2400       324
    77.2600       338
    77.2800       276
    77.3000       312
    77.3200       358
    77.3400       322
    77.3600       322
    77.3800       328
    77.4000       322
    77.4200       348
    77.4400       290
    77.4600       320
    77.4800       312
    77.5000       350
    77.5200       332
    77.5400       330
    77.5600       320
    77.5800       392
    77.6000       332
    77.6200       386
    77.6400       374
    77.6600       396
    77.6800       372
    77.7000       376
    77.7200       398
    77.7400       390
    77.7600       428
    77.7800       392
    77.8000       476
    77.8200       440
    77.8400       418
    77.8600       462
    77.8800       452
    77.9000       464
    77.9200       402
    77.9400       404
    77.9600       468
    77.9800       436
    78.0000       430
    78.0200       410
    78.0400       396
    78.0600       384
    78.0800       424
    78.1000       410
    78.1200       390
    78.1400       378
    78.1600       380
    78.1800       358
    78.2000       324
    78.2200       358
    78.2400       318
    78.2600       298
    78.2800       296
    78.3000       310
    78.3200       298
    78.3400       308
    78.3600       276
    78.3800       270
    78.4000       296
    78.4200       268
    78.4400       280
    78.4600       282
    78.4800       320
    78.5000       250
    78.5200       300
    78.5400       280
    78.5600       272
    78.5800       312
    78.6000       306
    78.6200       294
    78.6400       340
    78.6600       326
    78.6800       324
    78.7000       310
    78.7200       332
    78.7400       350
    78.7600       320
    78.7800       322
    78.8000       332
    78.8200       330
    78.8400       292
    78.8600       328
    78.8800       316
    78.9000       308
    78.9200       314
    78.9400       296
    78.9600       310
    78.9800       324
    79.0000       290
    79.0200       292
    79.0400       318
    79.0600       280
    79.0800       316
    79.1000       280
    79.1200       292
    79.1400       310
    79.1600       292
    79.1800       300
    79.2000       268
    79.2200       300
    79.2400       280
    79.2600       284
    79.2800       282
    79.3000       246
    79.3200       244
    79.3400       266
    79.3600       260
    79.3800       272
    79.4000       270
    79.4200       258
    79.4400       242
    79.4600       242
    79.4800       224
    79.5000       252
    79.5200       230
    79.5400       242
    79.5600       236
    79.5800       256
    79.6000       236
    79.6200       210
    79.6400       210
    79.6600       224
    79.6800       208
    79.7000       232
    79.7200       198
    79.7400       230
    79.7600       226
    79.7800       192
    79.8000       234
    79.8200       226
    79.8400       208
    79.8600       202
    79.8800       208
    79.9000       228
    79.9200       250
    79.9400       222
    79.9600       234
    79.9800       274
    80.0000       228
    80.0200       210
    80.0400       228
    80.0600       212
    80.0800       214
    80.1000       250
    80.1200       258
    80.1400       228
    80.1600       232
    80.1800       238
    80.2000       246
    80.2200       266
    80.2400       254
    80.2600       240
    80.2800       236
    80.3000       246
    80.3200       268
    80.3400       266
    80.3600       250
    80.3800       280
    80.4000       280
    80.4200       286
    80.4400       312
    80.4600       278
    80.4800       290
    80.5000       316
    80.5200       348
    80.5400       336
    80.5600       336
    80.5800       342
    80.6000       340
    80.6200       318
    80.6400       284
    80.6600       332
    80.6800       294
    80.7000       300
    80.7200       266
    80.7400       272
    80.7600       280
    80.7800       306
    80.8000       308
    80.8200       286
    80.8400       224
    80.8600       250
    80.8800       246
    80.9000       232
    80.9200       244
    80.9400       238
    80.9600       232
    80.9800       238
    81.0000       230
    81.0200       210
    81.0400       212
    81.0600       260
    81.0800       222
    81.1000       192
    81.1200       222
    81.1400       236
    81.1600       232
    81.1800       238
    81.2000       220
    81.2200       230
    81.2400       232
    81.2600       218
    81.2800       224
    81.3000       254
    81.3200       214
    81.3400       232
    81.3600       228
    81.3800       240
    81.4000       232
    81.4200       244
    81.4400       256
    81.4600       254
    81.4800       252
    81.5000       240
    81.5200       270
    81.5400       268
    81.5600       254
    81.5800       250
    81.6000       280
    81.6200       272
    81.6400       268
    81.6600       244
    81.6800       280
    81.7000       282
    81.7200       272
    81.7400       290
    81.7600       282
    81.7800       310
    81.8000       300
    81.8200       284
    81.8400       322
    81.8600       326
    81.8800       336
    81.9000       300
    81.9200       316
    81.9400       328
    81.9600       314
    81.9800       308
    82.0000       306
    82.0200       296
    82.0400       294
    82.0600       328
    82.0800       288
    82.1000       312
    82.1200       334
    82.1400       298
    82.1600       334
    82.1800       332
    82.2000       296
    82.2200       312
    82.2400       320
    82.2600       310
    82.2800       332
    82.3000       332
    82.3200       294
    82.3400       326
    82.3600       338
    82.3800       296
    82.4000       344
    82.4200       350
    82.4400       320
    82.4600       318
    82.4800       336
    82.5000       324
    82.5200       346
    82.5400       410
    82.5600       354
    82.5800       376
    82.6000       410
    82.6200       436
    82.6400       422
    82.6600       426
    82.6800       450
    82.7000       462
    82.7200       506
    82.7400       526
    82.7600       542
    82.7800       570
    82.8000       588
    82.8200       642
    82.8400       614
    82.8600       672
    82.8800       668
    82.9000       740
    82.9200       690
    82.9400       688
    82.9600       668
    82.9800       656
    83.0000       632
    83.0200       654
    83.0400       598
    83.0600       588
    83.0800       586
    83.1000       594
    83.1200       584
    83.1400       540
    83.1600       572
    83.1800       584
    83.2000       512
    83.2200       476
    83.2400       524
    83.2600       470
    83.2800       460
    83.3000       432
    83.3200       416
    83.3400       406
    83.3600       340
    83.3800       406
    83.4000       380
    83.4200       354
    83.4400       350
    83.4600       334
    83.4800       358
    83.5000       350
    83.5200       314
    83.5400       344
    83.5600       324
    83.5800       326
    83.6000       314
    83.6200       316
    83.6400       290
    83.6600       298
    83.6800       314
    83.7000       282
    83.7200       252
    83.7400       284
    83.7600       284
    83.7800       298
    83.8000       310
    83.8200       302
    83.8400       316
    83.8600       358
    83.8800       348
    83.9000       370
    83.9200       382
    83.9400       364
    83.9600       432
    83.9800       468
    84.0000       446
    84.0200       454
    84.0400       410
    84.0600       426
    84.0800       402
    84.1000       424
    84.1200       416
    84.1400       382
    84.1600       388
    84.1800       416
    84.2000       376
    84.2200       392
    84.2400       406
    84.2600       464
    84.2800       416
    84.3000       408
    84.3200       418
    84.3400       402
    84.3600       404
    84.3800       398
    84.4000       426
    84.4200       448
    84.4400       428
    84.4600       384
    84.4800       404
    84.5000       422
    84.5200       402
    84.5400       426
    84.5600       406
    84.5800       388
    84.6000       362
    84.6200       352
    84.6400       360
    84.6600       372
    84.6800       378
    84.7000       370
    84.7200       338
    84.7400       346
    84.7600       356
    84.7800       326
    84.8000       336
    84.8200       298
    84.8400       266
    84.8600       288
    84.8800       302
    84.9000       304
    84.9200       290
    84.9400       274
    84.9600       300
    84.9800       242
    85.0000       284
    85.0200       254
    85.0400       242
    85.0600       270
    85.0800       294
    85.1000       238
    85.1200       236
    85.1400       244
    85.1600       252
    85.1800       260
    85.2000       274
    85.2200       274
    85.2400       258
    85.2600       262
    85.2800       246
    85.3000       230
    85.3200       216
    85.3400       232
    85.3600       234
    85.3800       232
    85.4000       236
    85.4200       216
    85.4400       238
    85.4600       252
    85.4800       234
    85.5000       222
    85.5200       210
    85.5400       242
    85.5600       308
    85.5800       286
    85.6000       272
    85.6200       252
    85.6400       262
    85.6600       284
    85.6800       316
    85.7000       300
    85.7200       316
    85.7400       326
    85.7600       310
    85.7800       290
    85.8000       338
    85.8200       322
    85.8400       290
    85.8600       318
    85.8800       284
    85.9000       326
    85.9200       286
    85.9400       294
    85.9600       284
    85.9800       292
    86.0000       284
    86.0200       312
    86.0400       292
    86.0600       292
    86.0800       302
    86.1000       280
    86.1200       268
    86.1400       276
    86.1600       282
    86.1800       238
    86.2000       246
    86.2200       238
    86.2400       282
    86.2600       280
    86.2800       234
    86.3000       228
    86.3200       228
    86.3400       232
    86.3600       226
    86.3800       272
    86.4000       234
    86.4200       230
    86.4400       240
    86.4600       268
    86.4800       278
    86.5000       256
    86.5200       272
    86.5400       274
    86.5600       292
    86.5800       292
    86.6000       278
    86.6200       300
    86.6400       336
    86.6600       310
    86.6800       336
    86.7000       306
    86.7200       336
    86.7400       370
    86.7600       356
    86.7800       362
    86.8000       366
    86.8200       340
    86.8400       344
    86.8600       366
    86.8800       370
    86.9000       400
    86.9200       378
    86.9400       354
    86.9600       386
    86.9800       392
    87.0000       392
    87.0200       380
    87.0400       384
    87.0600       372
    87.0800       342
    87.1000       372
    87.1200       336
    87.1400       336
    87.1600       332
    87.1800       318
    87.2000       320
    87.2200       320
    87.2400       326
    87.2600       310
    87.2800       306
    87.3000       322
    87.3200       338
    87.3400       316
    87.3600       298
    87.3800       310
    87.4000       302
    87.4200       296
    87.4400       352
    87.4600       308
    87.4800       350
    87.5000       344
    87.5200       310
    87.5400       330
    87.5600       338
    87.5800       340
    87.6000       352
    87.6200       340
    87.6400       388
    87.6600       342
    87.6800       384
    87.7000       370
    87.7200       386
    87.7400       356
    87.7600       358
    87.7800       354
    87.8000       384
    87.8200       336
    87.8400       378
    87.8600       330
    87.8800       334
    87.9000       338
    87.9200       356
    87.9400       338
    87.9600       358
    87.9800       360
    88.0000       346
    88.0200       326
    88.0400       358
    88.0600       336
    88.0800       360
    88.1000       360
    88.1200       404
    88.1400       398
    88.1600       388
    88.1800       392
    88.2000       422
    88.2200       426
    88.2400       460
    88.2600       420
    88.2800       456
    88.3000       524
    88.3200       460
    88.3400       476
    88.3600       518
    88.3800       476
    88.4000       496
    88.4200       442
    88.4400       450
    88.4600       438
    88.4800       454
    88.5000       430
    88.5200       440
    88.5400       420
    88.5600       436
    88.5800       376
    88.6000       366
    88.6200       372
    88.6400       384
    88.6600       374
    88.6800       394
    88.7000       358
    88.7200       316
    88.7400       360
    88.7600       356
    88.7800       368
    88.8000       312
    88.8200       298
    88.8400       306
    88.8600       298
    88.8800       320
    88.9000       288
    88.9200       308
    88.9400       298
    88.9600       244
    88.9800       270
    89.0000       262
    89.0200       252
    89.0400       252
    89.0600       226
    89.0800       232
    89.1000       230
    89.1200       260
    89.1400       242
    89.1600       256
    89.1800       256
    89.2000       234
    89.2200       270
    89.2400       230
    89.2600       250
    89.2800       244
    89.3000       244
    89.3200       250
    89.3400       244
    89.3600       242
    89.3800       242
    89.4000       248
    89.4200       208
    89.4400       258
    89.4600       230
    89.4800       226
    89.5000       212
    89.5200       218
    89.5400       236
    89.5600       228
    89.5800       222
    89.6000       244
    89.6200       234
    89.6400       226
    89.6600       248
    89.6800       262
    89.7000       268
    89.7200       240
    89.7400       232
    89.7600       252
    89.7800       270
    89.8000       250
    89.8200       234
    89.8400       222
    89.8600       224
    89.8800       244
    89.9000       226
    89.9200       234
    89.9400       244
    89.9600       228
    89.9800       220
    90.0000       236
