    10.0000       348
    10.0200       332
    10.0400       354
    10.0600       354
    10.0800       382
    10.1000       356
    10.1200       400
    10.1400       386
    10.1600       350
    10.1800       340
    10.2000       350
    10.2200       404
    10.2400       346
    10.2600       370
    10.2800       350
    10.3000       332
    10.3200       338
    10.3400       368
    10.3600       348
    10.3800       360
    10.4000       332
    10.4200       348
    10.4400       382
    10.4600       358
    10.4800       328
    10.5000       368
    10.5200       358
    10.5400       322
    10.5600       372
    10.5800       346
    10.6000       350
    10.6200       338
    10.6400       334
    10.6600       344
    10.6800       356
    10.7000       346
    10.7200       334
    10.7400       312
    10.7600       352
    10.7800       344
    10.8000       302
    10.8200       322
    10.8400       326
    10.8600       328
    10.8800       332
    10.9000       358
    10.9200       316
    10.9400       318
    10.9600       370
    10.9800       352
    11.0000       344
    11.0200       338
    11.0400       302
    11.0600       336
    11.0800       364
    11.1000       324
    11.1200       320
    11.1400       320
    11.1600       338
    11.1800       304
    11.2000       298
    11.2200       324
    11.2400       326
    11.2600       338
    11.2800       290
    11.3000       326
    11.3200       330
    11.3400       360
    11.3600       338
    11.3800       352
    11.4000       322
    11.4200       332
    11.4400       310
    11.4600       332
    11.4800       332
    11.5000       304
    11.5200       332
    11.5400       324
    11.5600       334
    11.5800       318
    11.6000       336
    11.6200       312
    11.6400       338
    11.6600       314
    11.6800       324
    11.7000       328
    11.7200       298
    11.7400       328
    11.7600       348
    11.7800       348
    11.8000       342
    11.8200       332
    11.8400       316
    11.8600       336
    11.8800       318
    11.9000       330
    11.9200       344
    11.9400       346
    11.9600       348
    11.9800       372
    12.0000       356
    12.0200       380
    12.0400       382
    12.0600       354
    12.0800       414
    12.1000       396
    12.1200       440
    12.1400       436
    12.1600       498
    12.1800       514
    12.2000       512
    12.2200       496
    12.2400       474
    12.2600       434
    12.2800       410
    12.3000       344
    12.3200       348
    12.3400       308
    12.3600       288
    12.3800       300
    12.4000       336
    12.4200       300
    12.4400       288
    12.4600       350
    12.4800       308
    12.5000       290
    12.5200       296
    12.5400       296
    12.5600       276
    12.5800       284
    12.6000       294
    12.6200       266
    12.6400       298
    12.6600       264
    12.6800       284
    12.7000       262
    12.7200       266
    12.7400       266
    12.7600       286
    12.7800       302
    12.8000       276
    12.8200       292
    12.8400       258
    12.8600       260
    12.8800       308
    12.9000       266
    12.9200       276
    12.9400       292
    12.9600       270
    12.9800       278
    13.0000       312
    13.0200       274
    13.0400       234
    13.0600       264
    13.0800       288
    13.1000       278
    13.1200       284
    13.1400       280
    13.1600       290
    13.1800       284
    13.2000       274
    13.2200       278
    13.2400       302
    13.2600       302
    13.2800       280
    13.3000       304
    13.3200       264
    13.3400       258
    13.3600       272
    13.3800       306
    13.4000       254
    13.4200       282
    13.4400       262
    13.4600       250
    13.4800       260
    13.5000       272
    13.5200       264
    13.5400       264
    13.5600       284
    13.5800       298
    13.6000       264
    13.6200       248
    13.6400       256
    13.6600       256
    13.6800       250
    13.7000       268
    13.7200       250
    13.7400       274
    13.7600       252
    13.7800       250
    13.8000       278
    13.8200       252
    13.8400       256
    13.8600       256
    13.8800       236
    13.9000       262
    13.9200       244
    13.9400       260
    13.9600       252
    13.9800       270
    14.0000       262
    14.0200       234
    14.0400       276
    14.0600       236
    14.0800       242
    14.1000       230
    14.1200       234
    14.1400       250
    14.1600       236
    14.1800       274
    14.2000       248
    14.2200       226
    14.2400       242
    14.2600       262
    14.2800       256
    14.3000       276
    14.3200       250
    14.3400       238
    14.3600       252
    14.3800       266
    14.4000       214
    14.4200       276
    14.4400       254
    14.4600       262
    14.4800       238
    14.5000       242
    14.5200       264
    14.5400       278
    14.5600       274
    14.5800       278
    14.6000       296
    14.6200       258
    14.6400       274
    14.6600       298
    14.6800       280
    14.7000       302
    14.7200       322
    14.7400       322
    14.7600       350
    14.7800       308
    14.8000       332
    14.8200       402
    14.8400       322
    14.8600       376
    14.8800       370
    14.9000       458
    14.9200       444
    14.9400       502
    14.9600       538
    14.9800       544
    15.0000       610
    15.0200       646
    15.0400       696
    15.0600       776
    15.0800       834
    15.1000       862
    15.1200      1018
    15.1400      1136
    15.1600      1202
    15.1800      1402
    15.2000      1220
    15.2200      1192
    15.2400      1124
    15.2600       984
    15.2800       768
    15.3000       610
    15.3200       524
    15.3400       422
    15.3600       368
    15.3800       378
    15.4000       324
    15.4200       324
    15.4400       318
    15.4600       308
    15.4800       282
    15.5000       304
    15.5200       270
    15.5400       296
    15.5600       254
    15.5800       240
    15.6000       248
    15.6200       272
    15.6400       250
    15.6600       238
    15.6800       262
    15.7000       256
    15.7200       264
    15.7400       240
    15.7600       244
    15.7800       250
    15.8000       232
    15.8200       240
    15.8400       264
    15.8600       248
    15.8800       248
    15.9000       250
    15.9200       242
    15.9400       240
    15.9600       268
    15.9800       208
    16.0000       232
    16.0200       228
    16.0400       248
    16.0600       226
    16.0800       234
    16.1000       246
    16.1200       252
    16.1400       248
    16.1600       236
    16.1800       240
    16.2000       236
    16.2200       234
    16.2400       270
    16.2600       266
    16.2800       262
    16.3000       266
    16.3200       260
    16.3400       290
    16.3600       274
    16.3800       242
    16.4000       244
    16.4200       252
    16.4400       272
    16.4600       266
    16.4800       266
    16.5000       246
    16.5200       272
    16.5400       272
    16.5600       312
    16.5800       274
    16.6000       296
    16.6200       340
    16.6400       326
    16.6600       342
    16.6800       372
    16.7000       386
    16.7200       402
    16.7400       428
    16.7600       506
    16.7800       526
    16.8000       542
    16.8200       606
    16.8400       666
    16.8600       744
    16.8800       820
    16.9000       854
    16.9200      1008
    16.9400      1104
    16.9600      1264
    16.9800      1474
    17.0000      1690
    17.0200      1900
    17.0400      2080
    17.0600      2114
    17.0800      1958
    17.1000      1788
    17.1200      1476
    17.1400      1240
    17.1600       998
    17.1800       824
    17.2000       746
    17.2200       708
    17.2400       626
    17.2600       628
    17.2800       560
    17.3000       518
    17.3200       480
    17.3400       442
    17.3600       444
    17.3800       472
    17.4000       370
    17.4200       378
    17.4400       388
    17.4600       376
    17.4800       406
    17.5000       396
    17.5200       376
    17.5400       374
    17.5600       376
    17.5800       382
    17.6000       404
    17.6200       390
    17.6400       452
    17.6600       434
    17.6800       472
    17.7000       500
    17.7200       562
    17.7400       644
    17.7600       634
    17.7800       690
    17.8000       704
    17.8200       674
    17.8400       652
    17.8600       638
    17.8800       586
    17.9000       524
    17.9200       448
    17.9400       384
    17.9600       330
    17.9800       302
    18.0000       306
    18.0200       290
    18.0400       260
    18.0600       254
    18.0800       278
    18.1000       224
    18.1200       246
    18.1400       264
    18.1600       228
    18.1800       246
    18.2000       230
    18.2200       208
    18.2400       230
    18.2600       244
    18.2800       240
    18.3000       242
    18.3200       218
    18.3400       202
    18.3600       210
    18.3800       208
    18.4000       214
    18.4200       216
    18.4400       240
    18.4600       228
    18.4800       204
    18.5000       182
    18.5200       214
    18.5400       232
    18.5600       214
    18.5800       222
    18.6000       210
    18.6200       226
    18.6400       238
    18.6600       240
    18.6800       216
    18.7000       216
    18.7200       234
    18.7400       242
    18.7600       240
    18.7800       234
    18.8000       250
    18.8200       204
    18.8400       238
    18.8600       246
    18.8800       240
    18.9000       224
    18.9200       278
    18.9400       256
    18.9600       262
    18.9800       282
    19.0000       264
    19.0200       282
    19.0400       284
    19.0600       302
    19.0800       306
    19.1000       320
    19.1200       358
    19.1400       340
    19.1600       366
    19.1800       388
    19.2000       414
    19.2200       454
    19.2400       482
    19.2600       556
    19.2800       594
    19.3000       630
    19.3200       662
    19.3400       774
    19.3600       842
    19.3800       970
    19.4000      1134
    19.4200      1266
    19.4400      1338
    19.4600      1530
    19.4800      1742
    19.5000      1996
    19.5200      2292
    19.5400      2488
    19.5600      2546
    19.5800      2726
    19.6000      2550
    19.6200      2358
    19.6400      2056
    19.6600      1748
    19.6800      1462
    19.7000      1196
    19.7200      1072
    19.7400      1034
    19.7600       954
    19.7800       926
    19.8000       944
    19.8200       998
    19.8400      1112
    19.8600      1180
    19.8800      1280
    19.9000      1414
    19.9200      1650
    19.9400      1772
    19.9600      2018
    19.9800      2058
    20.0000      2168
    20.0200      2090
    20.0400      2128
    20.0600      1846
    20.0800      1514
    20.1000      1238
    20.1200      1048
    20.1400       900
    20.1600       666
    20.1800       594
    20.2000       492
    20.2200       486
    20.2400       434
    20.2600       442
    20.2800       382
    20.3000       376
    20.3200       328
    20.3400       336
    20.3600       304
    20.3800       286
    20.4000       282
    20.4200       280
    20.4400       258
    20.4600       294
    20.4800       282
    20.5000       226
    20.5200       268
    20.5400       234
    20.5600       238
    20.5800       274
    20.6000       246
    20.6200       244
    20.6400       242
    20.6600       252
    20.6800       256
    20.7000       278
    20.7200       252
    20.7400       226
    20.7600       264
    20.7800       260
    20.8000       272
    20.8200       256
    20.8400       232
    20.8600       290
    20.8800       278
    20.9000       288
    20.9200       326
    20.9400       342
    20.9600       366
    20.9800       370
    21.0000       426
    21.0200       458
    21.0400       456
    21.0600       540
    21.0800       640
    21.1000       676
    21.1200       754
    21.1400       840
    21.1600       960
    21.1800       998
    21.2000      1110
    21.2200      1066
    21.2400      1080
    21.2600      1002
    21.2800       836
    21.3000       752
    21.3200       606
    21.3400       524
    21.3600       494
    21.3800       410
    21.4000       344
    21.4200       358
    21.4400       296
    21.4600       302
    21.4800       242
    21.5000       238
    21.5200       250
    21.5400       228
    21.5600       240
    21.5800       226
    21.6000       246
    21.6200       244
    21.6400       232
    21.6600       216
    21.6800       248
    21.7000       228
    21.7200       208
    21.7400       210
    21.7600       222
    21.7800       222
    21.8000       212
    21.8200       190
    21.8400       186
    21.8600       208
    21.8800       212
    21.9000       182
    21.9200       208
    21.9400       236
    21.9600       216
    21.9800       246
    22.0000       184
    22.0200       206
    22.0400       226
    22.0600       208
    22.0800       238
    22.1000       210
    22.1200       238
    22.1400       242
    22.1600       236
    22.1800       228
    22.2000       230
    22.2200       228
    22.2400       240
    22.2600       210
    22.2800       238
    22.3000       244
    22.3200       288
    22.3400       260
    22.3600       240
    22.3800       282
    22.4000       328
    22.4200       340
    22.4400       322
    22.4600       368
    22.4800       388
    22.5000       410
    22.5200       434
    22.5400       478
    22.5600       530
    22.5800       570
    22.6000       632
    22.6200       678
    22.6400       832
    22.6600       868
    22.6800       952
    22.7000      1082
    22.7200      1276
    22.7400      1412
    22.7600      1664
    22.7800      1902
    22.8000      2200
    22.8200      2538
    22.8400      2850
    22.8600      3140
    22.8800      3292
    22.9000      3300
    22.9200      3322
    22.9400      2902
    22.9600      2478
    22.9800      2074
    23.0000      1636
    23.0200      1306
    23.0400      1040
    23.0600       890
    23.0800       752
    23.1000       646
    23.1200       546
    23.1400       486
    23.1600       446
    23.1800       372
    23.2000       416
    23.2200       384
    23.2400       362
    23.2600       328
    23.2800       356
    23.3000       304
    23.3200       332
    23.3400       278
    23.3600       270
    23.3800       262
    23.4000       262
    23.4200       270
    23.4400       262
    23.4600       248
    23.4800       250
    23.5000       256
    23.5200       260
    23.5400       232
    23.5600       262
    23.5800       238
    23.6000       214
    23.6200       230
    23.6400       198
    23.6600       240
    23.6800       236
    23.7000       220
    23.7200       222
    23.7400       244
    23.7600       254
    23.7800       218
    23.8000       214
    23.8200       224
    23.8400       250
    23.8600       248
    23.8800       228
    23.9000       220
    23.9200       202
    23.9400       218
    23.9600       228
    23.9800       224
    24.0000       220
    24.0200       262
    24.0400       268
    24.0600       232
    24.0800       234
    24.1000       220
    24.1200       270
    24.1400       258
    24.1600       250
    24.1800       246
    24.2000       274
    24.2200       264
    24.2400       294
    24.2600       288
    24.2800       282
    24.3000       298
    24.3200       328
    24.3400       350
    24.3600       344
    24.3800       420
    24.4000       428
    24.4200       462
    24.4400       494
    24.4600       572
    24.4800       666
    24.5000       708
    24.5200       718
    24.5400       732
    24.5600       754
    24.5800       712
    24.6000       730
    24.6200       654
    24.6400       612
    24.6600       590
    24.6800       578
    24.7000       566
    24.7200       544
    24.7400       592
    24.7600       572
    24.7800       534
    24.8000       536
    24.8200       490
    24.8400       484
    24.8600       480
    24.8800       436
    24.9000       402
    24.9200       404
    24.9400       404
    24.9600       426
    24.9800       422
    25.0000       430
    25.0200       452
    25.0400       452
    25.0600       450
    25.0800       458
    25.1000       534
    25.1200       560
    25.1400       606
    25.1600       626
    25.1800       758
    25.2000       776
    25.2200       800
    25.2400       930
    25.2600       976
    25.2800      1084
    25.3000      1104
    25.3200      1134
    25.3400      1112
    25.3600      1030
    25.3800       938
    25.4000       896
    25.4200       834
    25.4400       772
    25.4600       742
    25.4800       730
    25.5000       736
    25.5200       748
    25.5400       774
    25.5600       878
    25.5800       902
    25.6000       930
    25.6200       920
    25.6400       914
    25.6600       876
    25.6800       842
    25.7000       758
    25.7200       654
    25.7400       630
    25.7600       552
    25.7800       476
    25.8000       390
    25.8200       410
    25.8400       322
    25.8600       356
    25.8800       322
    25.9000       304
    25.9200       308
    25.9400       286
    25.9600       282
    25.9800       270
    26.0000       260
    26.0200       268
    26.0400       262
    26.0600       228
    26.0800       268
    26.1000       266
    26.1200       250
    26.1400       262
    26.1600       238
    26.1800       222
    26.2000       240
    26.2200       264
    26.2400       246
    26.2600       246
    26.2800       262
    26.3000       216
    26.3200       236
    26.3400       220
    26.3600       236
    26.3800       234
    26.4000       254
    26.4200       242
    26.4400       234
    26.4600       238
    26.4800       238
    26.5000       218
    26.5200       236
    26.5400       238
    26.5600       232
    26.5800       254
    26.6000       236
    26.6200       232
    26.6400       252
    26.6600       226
    26.6800       218
    26.7000       244
    26.7200       252
    26.7400       264
    26.7600       242
    26.7800       224
    26.8000       250
    26.8200       252
    26.8400       274
    26.8600       248
    26.8800       246
    26.9000       248
    26.9200       250
    26.9400       248
    26.9600       238
    26.9800       226
    27.0000       260
    27.0200       238
    27.0400       238
    27.0600       228
    27.0800       282
    27.1000       242
    27.1200       246
    27.1400       272
    27.1600       276
    27.1800       292
    27.2000       284
    27.2200       322
    27.2400       336
    27.2600       330
    27.2800       370
    27.3000       372
    27.3200       394
    27.3400       454
    27.3600       470
    27.3800       514
    27.4000       562
    27.4200       622
    27.4400       674
    27.4600       726
    27.4800       758
    27.5000       740
    27.5200       686
    27.5400       718
    27.5600       662
    27.5800       662
    27.6000       552
    27.6200       498
    27.6400       484
    27.6600       480
    27.6800       476
    27.7000       422
    27.7200       390
    27.7400       380
    27.7600       380
    27.7800       396
    27.8000       394
    27.8200       410
    27.8400       430
    27.8600       464
    27.8800       460
    27.9000       538
    27.9200       522
    27.9400       584
    27.9600       538
    27.9800       662
    28.0000       678
    28.0200       798
    28.0400       816
    28.0600       968
    28.0800      1112
    28.1000      1146
    28.1200      1372
    28.1400      1508
    28.1600      1700
    28.1800      1846
    28.2000      2166
    28.2200      2326
    28.2400      2462
    28.2600      2604
    28.2800      2646
    28.3000      2512
    28.3200      2394
    28.3400      2182
    28.3600      2008
    28.3800      1850
    28.4000      1536
    28.4200      1364
    28.4400      1192
    28.4600      1004
    28.4800       910
    28.5000       782
    28.5200       752
    28.5400       646
    28.5600       622
    28.5800       568
    28.6000       512
    28.6200       536
    28.6400       498
    28.6600       518
    28.6800       508
    28.7000       468
    28.7200       492
    28.7400       454
    28.7600       428
    28.7800       436
    28.8000       446
    28.8200       410
    28.8400       408
    28.8600       338
    28.8800       332
    28.9000       300
    28.9200       300
    28.9400       340
    28.9600       350
    28.9800       302
    29.0000       300
    29.0200       288
    29.0400       284
    29.0600       286
    29.0800       272
    29.1000       290
    29.1200       278
    29.1400       304
    29.1600       306
    29.1800       300
    29.2000       322
    29.2200       298
    29.2400       318
    29.2600       334
    29.2800       344
    29.3000       356
    29.3200       308
    29.3400       346
    29.3600       366
    29.3800       410
    29.4000       506
    29.4200       536
    29.4400       488
    29.4600       520
    29.4800       548
    29.5000       660
    29.5200       660
    29.5400       746
    29.5600       780
    29.5800       868
    29.6000       924
    29.6200       952
    29.6400      1012
    29.6600      1050
    29.6800      1016
    29.7000       916
    29.7200       928
    29.7400       934
    29.7600       836
    29.7800       714
    29.8000       606
    29.8200       640
    29.8400       554
    29.8600       528
    29.8800       540
    29.9000       480
    29.9200       578
    29.9400       510
    29.9600       518
    29.9800       584
    30.0000       612
    30.0200       688
    30.0400       766
    30.0600       774
    30.0800       860
    30.1000       954
    30.1200      1048
    30.1400      1186
    30.1600      1118
    30.1800      1276
    30.2000      1334
    30.2200      1358
    30.2400      1350
    30.2600      1342
    30.2800      1316
    30.3000      1270
    30.3200      1288
    30.3400      1292
    30.3600      1260
    30.3800      1314
    30.4000      1284
    30.4200      1430
    30.4400      1602
    30.4600      1734
    30.4800      2008
    30.5000      2118
    30.5200      2494
    30.5400      2868
    30.5600      3246
    30.5800      3660
    30.6000      4042
    30.6200      4568
    30.6400      5040
    30.6600      5428
    30.6800      5706
    30.7000      5680
    30.7200      5492
    30.7400      4818
    30.7600      4482
    30.7800      3944
    30.8000      3292
    30.8200      2752
    30.8400      2320
    30.8600      1958
    30.8800      1684
    30.9000      1412
    30.9200      1250
    30.9400      1136
    30.9600       986
    30.9800       934
    31.0000       902
    31.0200       752
    31.0400       722
    31.0600       700
    31.0800       686
    31.1000       630
    31.1200       598
    31.1400       568
    31.1600       572
    31.1800       514
    31.2000       496
    31.2200       470
    31.2400       494
    31.2600       424
    31.2800       432
    31.3000       416
    31.3200       404
    31.3400       398
    31.3600       392
    31.3800       378
    31.4000       360
    31.4200       358
    31.4400       382
    31.4600       384
    31.4800       392
    31.5000       368
    31.5200       390
    31.5400       372
    31.5600       420
    31.5800       408
    31.6000       436
    31.6200       410
    31.6400       450
    31.6600       496
    31.6800       472
    31.7000       494
    31.7200       552
    31.7400       512
    31.7600       628
    31.7800       624
    31.8000       718
    31.8200       750
    31.8400       838
    31.8600       872
    31.8800       942
    31.9000      1118
    31.9200      1222
    31.9400      1362
    31.9600      1442
    31.9800      1580
    32.0000      1696
    32.0200      1706
    32.0400      1806
    32.0600      1860
    32.0800      1730
    32.1000      1640
    32.1200      1690
    32.1400      1488
    32.1600      1392
    32.1800      1270
    32.2000      1206
    32.2200      1192
    32.2400      1138
    32.2600      1216
    32.2800      1238
    32.3000      1340
    32.3200      1466
    32.3400      1526
    32.3600      1640
    32.3800      1796
    32.4000      2102
    32.4200      2312
    32.4400      2684
    32.4600      2998
    32.4800      3392
    32.5000      3862
    32.5200      4480
    32.5400      4850
    32.5600      5242
    32.5800      5620
    32.6000      5746
    32.6200      5692
    32.6400      5402
    32.6600      5190
    32.6800      4866
    32.7000      4376
    32.7200      3684
    32.7400      3270
    32.7600      2824
    32.7800      2382
    32.8000      2058
    32.8200      1784
    32.8400      1628
    32.8600      1382
    32.8800      1260
    32.9000      1206
    32.9200      1104
    32.9400      1076
    32.9600      1006
    32.9800      1074
    33.0000      1170
    33.0200      1122
    33.0400      1144
    33.0600      1184
    33.0800      1294
    33.1000      1204
    33.1200      1296
    33.1400      1326
    33.1600      1272
    33.1800      1178
    33.2000      1044
    33.2200       986
    33.2400       920
    33.2600       770
    33.2800       670
    33.3000       614
    33.3200       554
    33.3400       524
    33.3600       470
    33.3800       446
    33.4000       410
    33.4200       382
    33.4400       370
    33.4600       370
    33.4800       346
    33.5000       322
    33.5200       318
    33.5400       302
    33.5600       338
    33.5800       304
    33.6000       314
    33.6200       306
    33.6400       246
    33.6600       254
    33.6800       278
    33.7000       256
    33.7200       272
    33.7400       250
    33.7600       260
    33.7800       256
    33.8000       234
    33.8200       258
    33.8400       268
    33.8600       240
    33.8800       264
    33.9000       268
    33.9200       246
    33.9400       240
    33.9600       266
    33.9800       246
    34.0000       220
    34.0200       262
    34.0400       242
    34.0600       264
    34.0800       228
    34.1000       272
    34.1200       274
    34.1400       238
    34.1600       256
    34.1800       264
    34.2000       258
    34.2200       250
    34.2400       274
    34.2600       284
    34.2800       290
    34.3000       290
    34.3200       342
    34.3400       292
    34.3600       350
    34.3800       380
    34.4000       392
    34.4200       428
    34.4400       494
    34.4600       522
    34.4800       534
    34.5000       606
    34.5200       578
    34.5400       566
    34.5600       540
    34.5800       528
    34.6000       492
    34.6200       430
    34.6400       406
    34.6600       444
    34.6800       376
    34.7000       390
    34.7200       360
    34.7400       352
    34.7600       296
    34.7800       330
    34.8000       348
    34.8200       288
    34.8400       288
    34.8600       312
    34.8800       262
    34.9000       282
    34.9200       266
    34.9400       252
    34.9600       258
    34.9800       268
    35.0000       284
    35.0200       300
    35.0400       286
    35.0600       334
    35.0800       300
    35.1000       340
    35.1200       340
    35.1400       324
    35.1600       300
    35.1800       316
    35.2000       308
    35.2200       302
    35.2400       302
    35.2600       268
    35.2800       274
    35.3000       234
    35.3200       234
    35.3400       268
    35.3600       242
    35.3800       248
    35.4000       240
    35.4200       264
    35.4400       244
    35.4600       234
    35.4800       230
    35.5000       284
    35.5200       278
    35.5400       260
    35.5600       270
    35.5800       266
    35.6000       272
    35.6200       270
    35.6400       274
    35.6600       278
    35.6800       318
    35.7000       318
    35.7200       298
    35.7400       340
    35.7600       334
    35.7800       348
    35.8000       362
    35.8200       356
    35.8400       386
    35.8600       414
    35.8800       420
    35.9000       424
    35.9200       438
    35.9400       498
    35.9600       548
    35.9800       576
    36.0000       576
    36.0200       662
    36.0400       668
    36.0600       748
    36.0800       748
    36.1000       796
    36.1200       882
    36.1400       836
    36.1600       838
    36.1800       870
    36.2000       810
    36.2200       804
    36.2400       768
    36.2600       710
    36.2800       706
    36.3000       616
    36.3200       590
    36.3400       536
    36.3600       468
    36.3800       476
    36.4000       478
    36.4200       420
    36.4400       432
    36.4600       414
    36.4800       374
    36.5000       408
    36.5200       414
    36.5400       408
    36.5600       428
    36.5800       422
    36.6000       498
    36.6200       482
    36.6400       508
    36.6600       514
    36.6800       580
    36.7000       652
    36.7200       648
    36.7400       660
    36.7600       766
    36.7800       862
    36.8000       922
    36.8200      1062
    36.8400      1120
    36.8600      1264
    36.8800      1424
    36.9000      1486
    36.9200      1578
    36.9400      1522
    36.9600      1548
    36.9800      1490
    37.0000      1408
    37.0200      1322
    37.0400      1250
    37.0600      1132
    37.0800      1014
    37.1000       956
    37.1200       940
    37.1400       876
    37.1600       770
    37.1800       800
    37.2000       770
    37.2200       742
    37.2400       690
    37.2600       688
    37.2800       690
    37.3000       616
    37.3200       686
    37.3400       602
    37.3600       542
    37.3800       516
    37.4000       566
    37.4200       572
    37.4400       542
    37.4600       568
    37.4800       620
    37.5000       544
    37.5200       616
    37.5400       666
    37.5600       654
    37.5800       768
    37.6000       826
    37.6200       950
    37.6400       912
    37.6600       904
    37.6800       956
    37.7000       948
    37.7200       892
    37.7400       944
    37.7600       992
    37.7800       936
    37.8000       922
    37.8200       894
    37.8400       850
    37.8600       848
    37.8800       918
    37.9000       966
    37.9200      1110
    37.9400      1078
    37.9600      1136
    37.9800      1288
    38.0000      1412
    38.0200      1442
    38.0400      1530
    38.0600      1670
    38.0800      1718
    38.1000      1690
    38.1200      1712
    38.1400      1600
    38.1600      1620
    38.1800      1492
    38.2000      1494
    38.2200      1426
    38.2400      1384
    38.2600      1472
    38.2800      1458
    38.3000      1632
    38.3200      1680
    38.3400      1734
    38.3600      1938
    38.3800      2086
    38.4000      2292
    38.4200      2592
    38.4400      2854
    38.4600      3188
    38.4800      3610
    38.5000      3854
    38.5200      4216
    38.5400      4558
    38.5600      4656
    38.5800      5084
    38.6000      5152
    38.6200      5340
    38.6400      5364
    38.6600      5446
    38.6800      5418
    38.7000      5046
    38.7200      4848
    38.7400      4694
    38.7600      4586
    38.7800      4152
    38.8000      3860
    38.8200      3536
    38.8400      3194
    38.8600      2980
    38.8800      2648
    38.9000      2426
    38.9200      2120
    38.9400      1846
    38.9600      1854
    38.9800      1562
    39.0000      1436
    39.0200      1390
    39.0400      1280
    39.0600      1238
    39.0800      1164
    39.1000      1192
    39.1200      1184
    39.1400      1154
    39.1600      1132
    39.1800      1132
    39.2000      1072
    39.2200      1098
    39.2400      1138
    39.2600      1146
    39.2800      1114
    39.3000      1138
    39.3200      1150
    39.3400      1120
    39.3600      1214
    39.3800      1212
    39.4000      1228
    39.4200      1146
    39.4400      1174
    39.4600      1118
    39.4800      1120
    39.5000      1170
    39.5200      1148
    39.5400      1162
    39.5600      1126
    39.5800      1218
    39.6000      1162
    39.6200      1346
    39.6400      1268
    39.6600      1460
    39.6800      1558
    39.7000      1628
    39.7200      1680
    39.7400      1780
    39.7600      1882
    39.7800      1824
    39.8000      1738
    39.8200      1730
    39.8400      1616
    39.8600      1496
    39.8800      1334
    39.9000      1266
    39.9200      1208
    39.9400      1042
    39.9600      1008
    39.9800       920
    40.0000       908
    40.0200       838
    40.0400       846
    40.0600       794
    40.0800       810
    40.1000       800
    40.1200       782
    40.1400       844
    40.1600       844
    40.1800       814
    40.2000       854
    40.2200       838
    40.2400       892
    40.2600       860
    40.2800       820
    40.3000       892
    40.3200       856
    40.3400       886
    40.3600       904
    40.3800       968
    40.4000       930
    40.4200      1078
    40.4400      1084
    40.4600      1136
    40.4800      1186
    40.5000      1306
    40.5200      1368
    40.5400      1410
    40.5600      1468
    40.5800      1570
    40.6000      1518
    40.6200      1610
    40.6400      1560
    40.6600      1516
    40.6800      1460
    40.7000      1368
    40.7200      1296
    40.7400      1234
    40.7600      1146
    40.7800      1076
    40.8000      1030
    40.8200       950
    40.8400       836
    40.8600       856
    40.8800       790
    40.9000       704
    40.9200       682
    40.9400       690
    40.9600       644
    40.9800       618
    41.0000       648
    41.0200       702
    41.0400       636
    41.0600       608
    41.0800       702
    41.1000       664
    41.1200       754
    41.1400       760
    41.1600       858
    41.1800       898
    41.2000       962
    41.2200      1010
    41.2400      1012
    41.2600      1120
    41.2800      1140
    41.3000      1258
    41.3200      1262
    41.3400      1292
    41.3600      1286
    41.3800      1354
    41.4000      1378
    41.4200      1386
    41.4400      1454
    41.4600      1438
    41.4800      1492
    41.5000      1458
    41.5200      1528
    41.5400      1442
    41.5600      1378
    41.5800      1352
    41.6000      1328
    41.6200      1188
    41.6400      1198
    41.6600      1122
    41.6800      1034
    41.7000      1020
    41.7200       930
    41.7400       942
    41.7600       966
    41.7800       964
    41.8000      1014
    41.8200      1076
    41.8400      1178
    41.8600      1172
    41.8800      1294
    41.9000      1362
    41.9200      1402
    41.9400      1448
    41.9600      1402
    41.9800      1410
    42.0000      1304
    42.0200      1336
    42.0400      1240
    42.0600      1254
    42.0800      1130
    42.1000      1034
    42.1200       978
    42.1400       884
    42.1600       764
    42.1800       678
    42.2000       650
    42.2200       622
    42.2400       586
    42.2600       570
    42.2800       448
    42.3000       464
    42.3200       456
    42.3400       420
    42.3600       410
    42.3800       446
    42.4000       410
    42.4200       420
    42.4400       400
    42.4600       408
    42.4800       396
    42.5000       404
    42.5200       354
    42.5400       388
    42.5600       396
    42.5800       376
    42.6000       362
    42.6200       340
    42.6400       340
    42.6600       360
    42.6800       380
    42.7000       344
    42.7200       340
    42.7400       374
    42.7600       390
    42.7800       360
    42.8000       426
    42.8200       388
    42.8400       432
    42.8600       442
    42.8800       444
    42.9000       428
    42.9200       428
    42.9400       520
    42.9600       496
    42.9800       570
    43.0000       570
    43.0200       636
    43.0400       698
    43.0600       692
    43.0800       808
    43.1000       870
    43.1200       948
    43.1400       968
    43.1600      1072
    43.1800      1132
    43.2000      1224
    43.2200      1308
    43.2400      1352
    43.2600      1442
    43.2800      1458
    43.3000      1432
    43.3200      1368
    43.3400      1308
    43.3600      1212
    43.3800      1188
    43.4000      1128
    43.4200      1006
    43.4400       944
    43.4600       804
    43.4800       748
    43.5000       716
    43.5200       686
    43.5400       592
    43.5600       582
    43.5800       574
    43.6000       556
    43.6200       486
    43.6400       550
    43.6600       494
    43.6800       518
    43.7000       512
    43.7200       526
    43.7400       496
    43.7600       556
    43.7800       564
    43.8000       608
    43.8200       572
    43.8400       608
    43.8600       624
    43.8800       602
    43.9000       624
    43.9200       602
    43.9400       556
    43.9600       590
    43.9800       560
    44.0000       554
    44.0200       574
    44.0400       550
    44.0600       484
    44.0800       506
    44.1000       520
    44.1200       442
    44.1400       450
    44.1600       438
    44.1800       434
    44.2000       416
    44.2200       430
    44.2400       398
    44.2600       418
    44.2800       474
    44.3000       458
    44.3200       416
    44.3400       456
    44.3600       446
    44.3800       448
    44.4000       420
    44.4200       440
    44.4400       456
    44.4600       436
    44.4800       396
    44.5000       402
    44.5200       388
    44.5400       428
    44.5600       398
    44.5800       432
    44.6000       416
    44.6200       440
    44.6400       478
    44.6600       430
    44.6800       474
    44.7000       456
    44.7200       502
    44.7400       488
    44.7600       518
    44.7800       550
    44.8000       552
    44.8200       566
    44.8400       668
    44.8600       662
    44.8800       686
    44.9000       692
    44.9200       776
    44.9400       844
    44.9600       928
    44.9800       946
    45.0000      1052
    45.0200      1154
    45.0400      1186
    45.0600      1300
    45.0800      1394
    45.1000      1410
    45.1200      1464
    45.1400      1402
    45.1600      1514
    45.1800      1612
    45.2000      1662
    45.2200      1642
    45.2400      1706
    45.2600      1674
    45.2800      1712
    45.3000      1638
    45.3200      1562
    45.3400      1510
    45.3600      1446
    45.3800      1422
    45.4000      1340
    45.4200      1294
    45.4400      1336
    45.4600      1260
    45.4800      1190
    45.5000      1088
    45.5200      1138
    45.5400      1100
    45.5600      1112
    45.5800      1022
    45.6000      1016
    45.6200       926
    45.6400       910
    45.6600       960
    45.6800       908
    45.7000       944
    45.7200       934
    45.7400       936
    45.7600       982
    45.7800      1012
    45.8000      1018
    45.8200      1038
    45.8400      1046
    45.8600       974
    45.8800       954
    45.9000       926
    45.9200       884
    45.9400       904
    45.9600       796
    45.9800       794
    46.0000       732
    46.0200       696
    46.0400       762
    46.0600       680
    46.0800       682
    46.1000       706
    46.1200       764
    46.1400       750
    46.1600       696
    46.1800       742
    46.2000       780
    46.2200       762
    46.2400       834
    46.2600       896
    46.2800       956
    46.3000       994
    46.3200       968
    46.3400      1082
    46.3600      1152
    46.3800      1232
    46.4000      1328
    46.4200      1410
    46.4400      1626
    46.4600      1824
    46.4800      1942
    46.5000      2104
    46.5200      2264
    46.5400      2522
    46.5600      2696
    46.5800      3026
    46.6000      3296
    46.6200      3688
    46.6400      4098
    46.6600      4516
    46.6800      4856
    46.7000      5356
    46.7200      5594
    46.7400      5892
    46.7600      6154
    46.7800      6482
    46.8000      6418
    46.8200      6410
    46.8400      6324
    46.8600      5998
    46.8800      5876
    46.9000      5514
    46.9200      5482
    46.9400      5040
    46.9600      4860
    46.9800      4572
    47.0000      4410
    47.0200      4012
    47.0400      3800
    47.0600      3540
    47.0800      3334
    47.1000      3134
    47.1200      2842
    47.1400      2650
    47.1600      2378
    47.1800      2198
    47.2000      2018
    47.2200      1796
    47.2400      1646
    47.2600      1524
    47.2800      1462
    47.3000      1294
    47.3200      1186
    47.3400      1122
    47.3600       992
    47.3800       948
    47.4000       934
    47.4200       846
    47.4400       844
    47.4600       748
    47.4800       696
    47.5000       618
    47.5200       674
    47.5400       678
    47.5600       596
    47.5800       608
    47.6000       608
    47.6200       614
    47.6400       602
    47.6600       616
    47.6800       652
    47.7000       578
    47.7200       640
    47.7400       634
    47.7600       584
    47.7800       596
    47.8000       662
    47.8200       658
    47.8400       718
    47.8600       686
    47.8800       718
    47.9000       716
    47.9200       718
    47.9400       700
    47.9600       676
    47.9800       730
    48.0000       688
    48.0200       684
    48.0400       642
    48.0600       662
    48.0800       652
    48.1000       626
    48.1200       680
    48.1400       690
    48.1600       674
    48.1800       726
    48.2000       724
    48.2200       668
    48.2400       736
    48.2600       722
    48.2800       702
    48.3000       658
    48.3200       732
    48.3400       768
    48.3600       708
    48.3800       692
    48.4000       756
    48.4200       708
    48.4400       716
    48.4600       720
    48.4800       700
    48.5000       728
    48.5200       728
    48.5400       726
    48.5600       768
    48.5800       746
    48.6000       742
    48.6200       780
    48.6400       812
    48.6600       690
    48.6800       756
    48.7000       738
    48.7200       702
    48.7400       662
    48.7600       654
    48.7800       634
    48.8000       582
    48.8200       546
    48.8400       500
    48.8600       474
    48.8800       450
    48.9000       442
    48.9200       430
    48.9400       408
    48.9600       374
    48.9800       356
    49.0000       352
    49.0200       328
    49.0400       354
    49.0600       330
    49.0800       308
    49.1000       298
    49.1200       342
    49.1400       326
    49.1600       316
    49.1800       322
    49.2000       290
    49.2200       318
    49.2400       316
    49.2600       284
    49.2800       296
    49.3000       292
    49.3200       286
    49.3400       304
    49.3600       304
    49.3800       314
    49.4000       278
    49.4200       276
    49.4400       296
    49.4600       306
    49.4800       274
    49.5000       310
    49.5200       290
    49.5400       322
    49.5600       260
    49.5800       316
    49.6000       326
    49.6200       330
    49.6400       324
    49.6600       344
    49.6800       288
    49.7000       342
    49.7200       360
    49.7400       310
    49.7600       340
    49.7800       306
    49.8000       306
    49.8200       328
    49.8400       356
    49.8600       336
    49.8800       332
    49.9000       356
    49.9200       396
    49.9400       380
    49.9600       362
    49.9800       390
    50.0000       416
    50.0200       414
    50.0400       422
    50.0600       432
    50.0800       434
    50.1000       452
    50.1200       490
    50.1400       516
    50.1600       526
    50.1800       598
    50.2000       638
    50.2200       648
    50.2400       692
    50.2600       716
    50.2800       818
    50.3000       798
    50.3200       890
    50.3400       884
    50.3600       872
    50.3800       858
    50.4000       874
    50.4200       804
    50.4400       838
    50.4600       860
    50.4800       836
    50.5000       838
    50.5200       854
    50.5400       886
    50.5600       888
    50.5800       938
    50.6000       986
    50.6200       974
    50.6400      1128
    50.6600      1090
    50.6800      1174
    50.7000      1244
    50.7200      1282
    50.7400      1432
    50.7600      1552
    50.7800      1630
    50.8000      1696
    50.8200      1698
    50.8400      1706
    50.8600      1664
    50.8800      1630
    50.9000      1608
    50.9200      1570
    50.9400      1554
    50.9600      1522
    50.9800      1368
    51.0000      1316
    51.0200      1220
    51.0400      1154
    51.0600      1068
    51.0800      1046
    51.1000      1002
    51.1200       912
    51.1400       918
    51.1600       884
    51.1800       780
    51.2000       770
    51.2200       750
    51.2400       742
    51.2600       732
    51.2800       674
    51.3000       698
    51.3200       752
    51.3400       726
    51.3600       680
    51.3800       732
    51.4000       732
    51.4200       760
    51.4400       744
    51.4600       730
    51.4800       772
    51.5000       756
    51.5200       788
    51.5400       730
    51.5600       784
    51.5800       764
    51.6000       792
    51.6200       834
    51.6400       824
    51.6600       854
    51.6800       890
    51.7000       870
    51.7200       938
    51.7400      1002
    51.7600      1010
    51.7800      1078
    51.8000      1146
    51.8200      1258
    51.8400      1342
    51.8600      1386
    51.8800      1450
    51.9000      1592
    51.9200      1548
    51.9400      1666
    51.9600      1716
    51.9800      1742
    52.0000      1854
    52.0200      1854
    52.0400      1768
    52.0600      1698
    52.0800      1730
    52.1000      1486
    52.1200      1424
    52.1400      1356
    52.1600      1310
    52.1800      1216
    52.2000      1104
    52.2200      1100
    52.2400       968
    52.2600       930
    52.2800       860
    52.3000       778
    52.3200       776
    52.3400       754
    52.3600       800
    52.3800       728
    52.4000       790
    52.4200       816
    52.4400       780
    52.4600       800
    52.4800       846
    52.5000       924
    52.5200       852
    52.5400       936
    52.5600       958
    52.5800      1040
    52.6000      1090
    52.6200      1146
    52.6400      1204
    52.6600      1210
    52.6800      1210
    52.7000      1198
    52.7200      1288
    52.7400      1274
    52.7600      1260
    52.7800      1254
    52.8000      1252
    52.8200      1174
    52.8400      1132
    52.8600      1038
    52.8800      1042
    52.9000      1052
    52.9200       948
    52.9400       960
    52.9600       900
    52.9800       846
    53.0000       826
    53.0200       836
    53.0400       812
    53.0600       802
    53.0800       780
    53.1000       824
    53.1200       842
    53.1400       850
    53.1600       844
    53.1800       926
    53.2000       870
    53.2200       982
    53.2400      1036
    53.2600      1150
    53.2800      1160
    53.3000      1204
    53.3200      1268
    53.3400      1292
    53.3600      1154
    53.3800      1190
    53.4000      1164
    53.4200      1140
    53.4400      1062
    53.4600      1158
    53.4800      1032
    53.5000       958
    53.5200       942
    53.5400       834
    53.5600       846
    53.5800       826
    53.6000       780
    53.6200       748
    53.6400       694
    53.6600       626
    53.6800       638
    53.7000       608
    53.7200       600
    53.7400       562
    53.7600       568
    53.7800       502
    53.8000       522
    53.8200       516
    53.8400       500
    53.8600       456
    53.8800       476
    53.9000       472
    53.9200       460
    53.9400       448
    53.9600       448
    53.9800       428
    54.0000       412
    54.0200       448
    54.0400       422
    54.0600       470
    54.0800       460
    54.1000       454
    54.1200       464
    54.1400       488
    54.1600       450
    54.1800       476
    54.2000       512
    54.2200       500
    54.2400       528
    54.2600       566
    54.2800       592
    54.3000       642
    54.3200       612
    54.3400       632
    54.3600       590
    54.3800       660
    54.4000       632
    54.4200       644
    54.4400       648
    54.4600       756
    54.4800       694
    54.5000       716
    54.5200       676
    54.5400       800
    54.5600       750
    54.5800       686
    54.6000       728
    54.6200       726
    54.6400       744
    54.6600       744
    54.6800       762
    54.7000       740
    54.7200       734
    54.7400       750
    54.7600       760
    54.7800       724
    54.8000       774
    54.8200       742
    54.8400       778
    54.8600       752
    54.8800       720
    54.9000       764
    54.9200       778
    54.9400       722
    54.9600       744
    54.9800       696
    55.0000       740
    55.0200       710
    55.0400       708
    55.0600       718
    55.0800       746
    55.1000       702
    55.1200       788
    55.1400       760
    55.1600       744
    55.1800       768
    55.2000       734
    55.2200       752
    55.2400       830
    55.2600       746
    55.2800       702
    55.3000       734
    55.3200       738
    55.3400       706
    55.3600       736
    55.3800       726
    55.4000       676
    55.4200       662
    55.4400       678
    55.4600       642
    55.4800       608
    55.5000       640
    55.5200       640
    55.5400       684
    55.5600       660
    55.5800       702
    55.6000       682
    55.6200       768
    55.6400       772
    55.6600       778
    55.6800       822
    55.7000       778
    55.7200       882
    55.7400       808
    55.7600       858
    55.7800       818
    55.8000       816
    55.8200       864
    55.8400       830
    55.8600       834
    55.8800       722
    55.9000       714
    55.9200       734
    55.9400       722
    55.9600       672
    55.9800       618
    56.0000       592
    56.0200       554
    56.0400       504
    56.0600       456
    56.0800       448
    56.1000       446
    56.1200       458
    56.1400       416
    56.1600       424
    56.1800       426
    56.2000       414
    56.2200       364
    56.2400       402
    56.2600       390
    56.2800       376
    56.3000       364
    56.3200       360
    56.3400       398
    56.3600       370
    56.3800       340
    56.4000       356
    56.4200       368
    56.4400       352
    56.4600       382
    56.4800       378
    56.5000       390
    56.5200       412
    56.5400       436
    56.5600       412
    56.5800       452
    56.6000       442
    56.6200       502
    56.6400       420
    56.6600       488
    56.6800       530
    56.7000       536
    56.7200       552
    56.7400       564
    56.7600       600
    56.7800       582
    56.8000       614
    56.8200       538
    56.8400       668
    56.8600       604
    56.8800       576
    56.9000       574
    56.9200       592
    56.9400       572
    56.9600       590
    56.9800       592
    57.0000       562
    57.0200       568
    57.0400       548
    57.0600       566
    57.0800       536
    57.1000       554
    57.1200       566
    57.1400       546
    57.1600       648
    57.1800       614
    57.2000       682
    57.2200       702
    57.2400       704
    57.2600       760
    57.2800       810
    57.3000       838
    57.3200       894
    57.3400       890
    57.3600      1006
    57.3800      1116
    57.4000      1040
    57.4200      1174
    57.4400      1190
    57.4600      1250
    57.4800      1268
    57.5000      1298
    57.5200      1300
    57.5400      1276
    57.5600      1282
    57.5800      1174
    57.6000      1196
    57.6200      1178
    57.6400      1134
    57.6600      1196
    57.6800      1158
    57.7000      1164
    57.7200      1208
    57.7400      1208
    57.7600      1180
    57.7800      1264
    57.8000      1260
    57.8200      1284
    57.8400      1344
    57.8600      1252
    57.8800      1218
    57.9000      1184
    57.9200      1150
    57.9400      1138
    57.9600      1118
    57.9800      1032
    58.0000       988
    58.0200       948
    58.0400       964
    58.0600       882
    58.0800       840
    58.1000       816
    58.1200       842
    58.1400       794
    58.1600       800
    58.1800       772
    58.2000       784
    58.2200       794
    58.2400       798
    58.2600       784
    58.2800       824
    58.3000       862
    58.3200       864
    58.3400       914
    58.3600      1002
    58.3800      1040
    58.4000      1046
    58.4200      1098
    58.4400      1152
    58.4600      1184
    58.4800      1256
    58.5000      1420
    58.5200      1482
    58.5400      1520
    58.5600      1572
    58.5800      1726
    58.6000      1722
    58.6200      1788
    58.6400      1890
    58.6600      1912
    58.6800      1984
    58.7000      2106
    58.7200      2302
    58.7400      2274
    58.7600      2344
    58.7800      2362
    58.8000      2342
    58.8200      2322
    58.8400      2252
    58.8600      2330
    58.8800      2286
    58.9000      2206
    58.9200      2072
    58.9400      2038
    58.9600      1900
    58.9800      1848
    59.0000      1820
    59.0200      1676
    59.0400      1496
    59.0600      1466
    59.0800      1380
    59.1000      1308
    59.1200      1268
    59.1400      1176
    59.1600      1238
    59.1800      1112
    59.2000      1164
    59.2200      1124
    59.2400      1062
    59.2600      1098
    59.2800      1122
    59.3000      1144
    59.3200      1172
    59.3400      1230
    59.3600      1322
    59.3800      1270
    59.4000      1306
    59.4200      1452
    59.4400      1430
    59.4600      1456
    59.4800      1470
    59.5000      1376
    59.5200      1418
    59.5400      1378
    59.5600      1320
    59.5800      1190
    59.6000      1266
    59.6200      1140
    59.6400      1182
    59.6600      1084
    59.6800      1024
    59.7000      1040
    59.7200       968
    59.7400       914
    59.7600       834
    59.7800       794
    59.8000       822
    59.8200       712
    59.8400       760
    59.8600       688
    59.8800       658
    59.9000       680
    59.9200       616
    59.9400       616
    59.9600       586
    59.9800       572
    60.0000       534
    60.0200       506
    60.0400       510
    60.0600       510
    60.0800       452
    60.1000       452
    60.1200       452
    60.1400       464
    60.1600       434
    60.1800       428
    60.2000       422
    60.2200       370
    60.2400       372
    60.2600       370
    60.2800       390
    60.3000       368
    60.3200       352
    60.3400       356
    60.3600       370
    60.3800       380
    60.4000       362
    60.4200       382
    60.4400       376
    60.4600       344
    60.4800       420
    60.5000       384
    60.5200       378
    60.5400       396
    60.5600       374
    60.5800       406
    60.6000       400
    60.6200       440
    60.6400       412
    60.6600       434
    60.6800       430
    60.7000       424
    60.7200       468
    60.7400       464
    60.7600       480
    60.7800       486
    60.8000       470
    60.8200       480
    60.8400       502
    60.8600       494
    60.8800       510
    60.9000       538
    60.9200       492
    60.9400       502
    60.9600       548
    60.9800       510
    61.0000       500
    61.0200       510
    61.0400       538
    61.0600       616
    61.0800       548
    61.1000       560
    61.1200       634
    61.1400       652
    61.1600       648
    61.1800       690
    61.2000       732
    61.2200       698
    61.2400       688
    61.2600       706
    61.2800       786
    61.3000       800
    61.3200       810
    61.3400       800
    61.3600       884
    61.3800       892
    61.4000       914
    61.4200       946
    61.4400       998
    61.4600      1052
    61.4800      1106
    61.5000      1130
    61.5200      1092
    61.5400      1112
    61.5600      1158
    61.5800      1144
    61.6000      1200
    61.6200      1170
    61.6400      1188
    61.6600      1148
    61.6800      1160
    61.7000      1140
    61.7200      1058
    61.7400      1002
    61.7600       926
    61.7800       992
    61.8000       902
    61.8200       898
    61.8400       784
    61.8600       760
    61.8800       726
    61.9000       660
    61.9200       612
    61.9400       688
    61.9600       652
    61.9800       632
    62.0000       592
    62.0200       596
    62.0400       538
    62.0600       580
    62.0800       572
    62.1000       532
    62.1200       536
    62.1400       538
    62.1600       548
    62.1800       530
    62.2000       540
    62.2200       558
    62.2400       548
    62.2600       524
    62.2800       452
    62.3000       484
    62.3200       484
    62.3400       480
    62.3600       506
    62.3800       482
    62.4000       466
    62.4200       496
    62.4400       454
    62.4600       442
    62.4800       444
    62.5000       414
    62.5200       426
    62.5400       404
    62.5600       400
    62.5800       382
    62.6000       360
    62.6200       392
    62.6400       340
    62.6600       370
    62.6800       372
    62.7000       344
    62.7200       328
    62.7400       352
    62.7600       334
    62.7800       336
    62.8000       318
    62.8200       312
    62.8400       338
    62.8600       366
    62.8800       316
    62.9000       284
    62.9200       298
    62.9400       280
    62.9600       312
    62.9800       306
    63.0000       328
    63.0200       278
    63.0400       272
    63.0600       276
    63.0800       250
    63.1000       252
    63.1200       252
    63.1400       268
    63.1600       234
    63.1800       252
    63.2000       276
    63.2200       266
    63.2400       252
    63.2600       292
    63.2800       246
    63.3000       250
    63.3200       278
    63.3400       246
    63.3600       270
    63.3800       268
    63.4000       312
    63.4200       272
    63.4400       284
    63.4600       288
    63.4800       300
    63.5000       264
    63.5200       296
    63.5400       338
    63.5600       284
    63.5800       408
    63.6000       352
    63.6200       378
    63.6400       390
    63.6600       390
    63.6800       358
    63.7000       408
    63.7200       462
    63.7400       442
    63.7600       482
    63.7800       522
    63.8000       552
    63.8200       566
    63.8400       570
    63.8600       606
    63.8800       642
    63.9000       690
    63.9200       654
    63.9400       652
    63.9600       660
    63.9800       692
    64.0000       654
    64.0200       626
    64.0400       644
    64.0600       630
    64.0800       560
    64.1000       540
    64.1200       552
    64.1400       516
    64.1600       466
    64.1800       502
    64.2000       444
    64.2200       386
    64.2400       412
    64.2600       346
    64.2800       360
    64.3000       340
    64.3200       340
    64.3400       342
    64.3600       334
    64.3800       318
    64.4000       278
    64.4200       280
    64.4400       290
    64.4600       272
    64.4800       272
    64.5000       280
    64.5200       250
    64.5400       296
    64.5600       268
    64.5800       264
    64.6000       258
    64.6200       254
    64.6400       216
    64.6600       256
    64.6800       268
    64.7000       246
    64.7200       254
    64.7400       238
    64.7600       230
    64.7800       258
    64.8000       218
    64.8200       244
    64.8400       256
    64.8600       260
    64.8800       260
    64.9000       256
    64.9200       272
    64.9400       266
    64.9600       278
    64.9800       286
    65.0000       272
    65.0200       270
    65.0400       286
    65.0600       308
    65.0800       286
    65.1000       302
    65.1200       330
    65.1400       322
    65.1600       336
    65.1800       352
    65.2000       346
    65.2200       350
    65.2400       344
    65.2600       356
    65.2800       368
    65.3000       380
    65.3200       424
    65.3400       446
    65.3600       382
    65.3800       390
    65.4000       384
    65.4200       382
    65.4400       412
    65.4600       360
    65.4800       394
    65.5000       352
    65.5200       416
    65.5400       354
    65.5600       356
    65.5800       388
    65.6000       400
    65.6200       342
    65.6400       398
    65.6600       372
    65.6800       380
    65.7000       346
    65.7200       326
    65.7400       342
    65.7600       338
    65.7800       314
    65.8000       308
    65.8200       292
    65.8400       300
    65.8600       302
    65.8800       294
    65.9000       294
    65.9200       270
    65.9400       294
    65.9600       282
    65.9800       258
    66.0000       270
    66.0200       260
    66.0400       264
    66.0600       272
    66.0800       270
    66.1000       256
    66.1200       256
    66.1400       268
    66.1600       286
    66.1800       266
    66.2000       250
    66.2200       284
    66.2400       252
    66.2600       292
    66.2800       296
    66.3000       300
    66.3200       298
    66.3400       310
    66.3600       282
    66.3800       308
    66.4000       318
    66.4200       330
    66.4400       358
    66.4600       342
    66.4800       390
    66.5000       364
    66.5200       412
    66.5400       414
    66.5600       418
    66.5800       448
    66.6000       448
    66.6200       486
    66.6400       544
    66.6600       552
    66.6800       572
    66.7000       628
    66.7200       686
    66.7400       734
    66.7600       808
    66.7800       862
    66.8000       856
    66.8200       902
    66.8400       882
    66.8600       884
    66.8800       888
    66.9000       920
    66.9200       884
    66.9400       870
    66.9600       864
    66.9800       874
    67.0000       834
    67.0200       858
    67.0400       722
    67.0600       762
    67.0800       702
    67.1000       644
    67.1200       642
    67.1400       640
    67.1600       570
    67.1800       522
    67.2000       524
    67.2200       468
    67.2400       486
    67.2600       476
    67.2800       492
    67.3000       410
    67.3200       444
    67.3400       424
    67.3600       392
    67.3800       356
    67.4000       334
    67.4200       364
    67.4400       330
    67.4600       310
    67.4800       316
    67.5000       334
    67.5200       314
    67.5400       282
    67.5600       314
    67.5800       324
    67.6000       312
    67.6200       340
    67.6400       302
    67.6600       314
    67.6800       330
    67.7000       308
    67.7200       304
    67.7400       310
    67.7600       326
    67.7800       316
    67.8000       358
    67.8200       312
    67.8400       394
    67.8600       320
    67.8800       362
    67.9000       414
    67.9200       450
    67.9400       444
    67.9600       476
    67.9800       476
    68.0000       516
    68.0200       534
    68.0400       534
    68.0600       604
    68.0800       602
    68.1000       678
    68.1200       668
    68.1400       774
    68.1600       768
    68.1800       814
    68.2000       844
    68.2200       920
    68.2400       884
    68.2600       858
    68.2800       908
    68.3000       918
    68.3200       886
    68.3400       930
    68.3600       978
    68.3800       960
    68.4000       978
    68.4200       906
    68.4400       922
    68.4600       900
    68.4800       930
    68.5000       860
    68.5200       800
    68.5400       792
    68.5600       854
    68.5800       758
    68.6000       752
    68.6200       792
    68.6400       724
    68.6600       748
    68.6800       672
    68.7000       650
    68.7200       676
    68.7400       650
    68.7600       584
    68.7800       598
    68.8000       558
    68.8200       600
    68.8400       540
    68.8600       544
    68.8800       462
    68.9000       480
    68.9200       440
    68.9400       462
    68.9600       446
    68.9800       422
    69.0000       402
    69.0200       410
    69.0400       408
    69.0600       414
    69.0800       378
    69.1000       438
    69.1200       428
    69.1400       416
    69.1600       410
    69.1800       398
    69.2000       436
    69.2200       406
    69.2400       404
    69.2600       410
    69.2800       436
    69.3000       398
    69.3200       440
    69.3400       454
    69.3600       444
    69.3800       440
    69.4000       458
    69.4200       440
    69.4400       430
    69.4600       490
    69.4800       454
    69.5000       460
    69.5200       456
    69.5400       486
    69.5600       496
    69.5800       460
    69.6000       464
    69.6200       446
    69.6400       466
    69.6600       450
    69.6800       466
    69.7000       430
    69.7200       442
    69.7400       446
    69.7600       440
    69.7800       442
    69.8000       414
    69.8200       412
    69.8400       456
    69.8600       394
    69.8800       410
    69.9000       386
    69.9200       440
    69.9400       380
    69.9600       372
    69.9800       392
    70.0000       370
    70.0200       372
    70.0400       336
    70.0600       338
    70.0800       350
    70.1000       332
    70.1200       290
    70.1400       338
    70.1600       290
    70.1800       318
    70.2000       302
    70.2200       314
    70.2400       270
    70.2600       284
    70.2800       280
    70.3000       246
    70.3200       254
    70.3400       258
    70.3600       230
    70.3800       252
    70.4000       242
    70.4200       260
    70.4400       258
    70.4600       260
    70.4800       240
    70.5000       234
    70.5200       240
    70.5400       224
    70.5600       206
    70.5800       248
    70.6000       254
    70.6200       268
    70.6400       232
    70.6600       254
    70.6800       230
    70.7000       240
    70.7200       266
    70.7400       250
    70.7600       232
    70.7800       256
    70.8000       222
    70.8200       242
    70.8400       252
    70.8600       212
    70.8800       236
    70.9000       228
    70.9200       244
    70.9400       218
    70.9600       224
    70.9800       248
    71.0000       216
    71.0200       264
    71.0400       212
    71.0600       226
    71.0800       232
    71.1000       214
    71.1200       236
    71.1400       264
    71.1600       230
    71.1800       262
    71.2000       248
    71.2200       266
    71.2400       266
    71.2600       286
    71.2800       298
    71.3000       278
    71.3200       286
    71.3400       284
    71.3600       318
    71.3800       310
    71.4000       372
    71.4200       366
    71.4400       346
    71.4600       366
    71.4800       396
    71.5000       446
    71.5200       472
    71.5400       454
    71.5600       460
    71.5800       434
    71.6000       440
    71.6200       510
    71.6400       518
    71.6600       492
    71.6800       484
    71.7000       516
    71.7200       536
    71.7400       498
    71.7600       490
    71.7800       486
    71.8000       506
    71.8200       500
    71.8400       532
    71.8600       468
    71.8800       500
    71.9000       476
    71.9200       476
    71.9400       450
    71.9600       422
    71.9800       442
    72.0000       408
    72.0200       438
    72.0400       428
    72.0600       404
    72.0800       422
    72.1000       410
    72.1200       420
    72.1400       404
    72.1600       460
    72.1800       412
    72.2000       418
    72.2200       416
    72.2400       400
    72.2600       414
    72.2800       410
    72.3000       404
    72.3200       434
    72.3400       466
    72.3600       450
    72.3800       468
    72.4000       466
    72.4200       484
    72.4400       466
    72.4600       466
    72.4800       484
    72.5000       446
    72.5200       462
    72.5400       482
    72.5600       488
    72.5800       484
    72.6000       514
    72.6200       514
    72.6400       504
    72.6600       530
    72.6800       470
    72.7000       518
    72.7200       506
    72.7400       502
    72.7600       470
    72.7800       512
    72.8000       516
    72.8200       502
    72.8400       492
    72.8600       520
    72.8800       484
    72.9000       524
    72.9200       470
    72.9400       462
    72.9600       460
    72.9800       460
    73.0000       454
    73.0200       442
    73.0400       442
    73.0600       438
    73.0800       374
    73.1000       396
    73.1200       350
    73.1400       396
    73.1600       390
    73.1800       350
    73.2000       316
    73.2200       310
    73.2400       300
    73.2600       312
    73.2800       306
    73.3000       258
    73.3200       272
    73.3400       280
    73.3600       288
    73.3800       286
    73.4000       294
    73.4200       274
    73.4400       270
    73.4600       254
    73.4800       260
    73.5000       248
    73.5200       244
    73.5400       194
    73.5600       250
    73.5800       202
    73.6000       242
    73.6200       240
    73.6400       234
    73.6600       210
    73.6800       240
    73.7000       218
    73.7200       268
    73.7400       240
    73.7600       242
    73.7800       188
    73.8000       216
    73.8200       254
    73.8400       244
    73.8600       252
    73.8800       222
    73.9000       264
    73.9200       226
    73.9400       270
    73.9600       244
    73.9800       240
    74.0000       234
    74.0200       240
    74.0400       238
    74.0600       258
    74.0800       250
    74.1000       228
    74.1200       262
    74.1400       242
    74.1600       260
    74.1800       250
    74.2000       272
    74.2200       274
    74.2400       252
    74.2600       242
    74.2800       258
    74.3000       246
    74.3200       232
    74.3400       250
    74.3600       254
    74.3800       250
    74.4000       236
    74.4200       236
    74.4400       246
    74.4600       206
    74.4800       216
    74.5000       228
    74.5200       216
    74.5400       218
    74.5600       218
    74.5800       216
    74.6000       190
    74.6200       190
    74.6400       202
    74.6600       208
    74.6800       186
    74.7000       220
    74.7200       198
    74.7400       202
    74.7600       222
    74.7800       214
    74.8000       212
    74.8200       220
    74.8400       198
    74.8600       174
    74.8800       208
    74.9000       198
    74.9200       190
    74.9400       202
    74.9600       190
    74.9800       190
    75.0000       190
    75.0200       214
    75.0400       214
    75.0600       206
    75.0800       190
    75.1000       202
    75.1200       202
    75.1400       220
    75.1600       208
    75.1800       200
    75.2000       244
    75.2200       214
    75.2400       224
    75.2600       246
    75.2800       224
    75.3000       234
    75.3200       216
    75.3400       234
    75.3600       242
    75.3800       248
    75.4000       254
    75.4200       262
    75.4400       268
    75.4600       242
    75.4800       274
    75.5000       240
    75.5200       264
    75.5400       286
    75.5600       250
    75.5800       324
    75.6000       296
    75.6200       278
    75.6400       332
    75.6600       292
    75.6800       322
    75.7000       330
    75.7200       326
    75.7400       334
    75.7600       364
    75.7800       386
    75.8000       360
    75.8200       364
    75.8400       382
    75.8600       368
    75.8800       406
    75.9000       384
    75.9200       392
    75.9400       366
    75.9600       378
    75.9800       350
    76.0000       354
    76.0200       330
    76.0400       368
    76.0600       386
    76.0800       354
    76.1000       366
    76.1200       310
    76.1400       332
    76.1600       344
    76.1800       334
    76.2000       340
    76.2200       406
    76.2400       318
    76.2600       348
    76.2800       332
    76.3000       308
    76.3200       310
    76.3400       330
    76.3600       314
    76.3800       344
    76.4000       334
    76.4200       348
    76.4400       350
    76.4600       330
    76.4800       360
    76.5000       368
    76.5200       358
    76.5400       356
    76.5600       344
    76.5800       380
    76.6000       380
    76.6200       344
    76.6400       390
    76.6600       386
    76.6800       352
    76.7000       376
    76.7200       432
    76.7400       378
    76.7600       336
    76.7800       416
    76.8000       370
    76.8200       384
    76.8400       394
    76.8600       358
    76.8800       374
    76.9000       354
    76.9200       360
    76.9400       370
    76.9600       364
    76.9800       356
    77.0000       360
    77.0200       338
    77.0400       348
    77.0600       320
    77.0800       334
    77.1000       330
    77.1200       356
    77.1400       340
    77.1600       352
    77.1800       352
    77.2000       382
    77.2200       370
    77.2400       366
    77.2600       354
    77.2800       338
    77.3000       326
    77.3200       380
    77.3400       336
    77.3600       372
    77.3800       384
    77.4000       398
    77.4200       392
    77.4400       402
    77.4600       430
    77.4800       422
    77.5000       446
    77.5200       474
    77.5400       452
    77.5600       460
    77.5800       498
    77.6000       492
    77.6200       500
    77.6400       554
    77.6600       566
    77.6800       572
    77.7000       594
    77.7200       568
    77.7400       670
    77.7600       648
    77.7800       630
    77.8000       590
    77.8200       678
    77.8400       642
    77.8600       638
    77.8800       624
    77.9000       580
    77.9200       594
    77.9400       648
    77.9600       548
    77.9800       540
    78.0000       542
    78.0200       522
    78.0400       542
    78.0600       472
    78.0800       522
    78.1000       426
    78.1200       450
    78.1400       426
    78.1600       444
    78.1800       420
    78.2000       434
    78.2200       380
    78.2400       374
    78.2600       368
    78.2800       424
    78.3000       362
    78.3200       344
    78.3400       380
    78.3600       366
    78.3800       338
    78.4000       332
    78.4200       346
    78.4400       330
    78.4600       322
    78.4800       360
    78.5000       350
    78.5200       302
    78.5400       380
    78.5600       354
    78.5800       394
    78.6000       364
    78.6200       394
    78.6400       378
    78.6600       370
    78.6800       380
    78.7000       374
    78.7200       398
    78.7400       348
    78.7600       396
    78.7800       382
    78.8000       380
    78.8200       350
    78.8400       382
    78.8600       408
    78.8800       368
    78.9000       356
    78.9200       400
    78.9400       352
    78.9600       388
    78.9800       324
    79.0000       326
    79.0200       314
    79.0400       328
    79.0600       332
    79.0800       312
    79.1000       304
    79.1200       298
    79.1400       290
    79.1600       276
    79.1800       318
    79.2000       300
    79.2200       282
    79.2400       274
    79.2600       296
    79.2800       284
    79.3000       316
    79.3200       276
    79.3400       264
    79.3600       298
    79.3800       278
    79.4000       270
    79.4200       232
    79.4400       276
    79.4600       248
    79.4800       244
    79.5000       264
    79.5200       248
    79.5400       238
    79.5600       242
    79.5800       228
    79.6000       230
    79.6200       258
    79.6400       266
    79.6600       256
    79.6800       232
    79.7000       266
    79.7200       230
    79.7400       230
    79.7600       226
    79.7800       224
    79.8000       252
    79.8200       220
    79.8400       224
    79.8600       250
    79.8800       228
    79.9000       276
    79.9200       256
    79.9400       230
    79.9600       222
    79.9800       218
    80.0000       250
    80.0200       250
    80.0400       268
    80.0600       238
    80.0800       258
    80.1000       242
    80.1200       230
    80.1400       262
    80.1600       208
    80.1800       210
    80.2000       226
    80.2200       238
    80.2400       284
    80.2600       224
    80.2800       252
    80.3000       228
    80.3200       208
    80.3400       224
    80.3600       226
    80.3800       212
    80.4000       208
    80.4200       248
    80.4400       218
    80.4600       252
    80.4800       234
    80.5000       244
    80.5200       226
    80.5400       264
    80.5600       230
    80.5800       234
    80.6000       232
    80.6200       226
    80.6400       244
    80.6600       230
    80.6800       238
    80.7000       214
    80.7200       224
    80.7400       226
    80.7600       244
    80.7800       222
    80.8000       222
    80.8200       236
    80.8400       224
    80.8600       212
    80.8800       234
    80.9000       182
    80.9200       208
    80.9400       216
    80.9600       200
    80.9800       170
    81.0000       194
    81.0200       208
    81.0400       222
    81.0600       202
    81.0800       236
    81.1000       206
    81.1200       200
    81.1400       208
    81.1600       216
    81.1800       214
    81.2000       204
    81.2200       212
    81.2400       238
    81.2600       222
    81.2800       236
    81.3000       228
    81.3200       244
    81.3400       222
    81.3600       250
    81.3800       214
    81.4000       256
    81.4200       264
    81.4400       244
    81.4600       250
    81.4800       254
    81.5000       224
    81.5200       266
    81.5400       248
    81.5600       258
    81.5800       274
    81.6000       244
    81.6200       254
    81.6400       260
    81.6600       248
    81.6800       256
    81.7000       264
    81.7200       246
    81.7400       238
    81.7600       258
    81.7800       250
    81.8000       294
    81.8200       256
    81.8400       280
    81.8600       268
    81.8800       268
    81.9000       246
    81.9200       258
    81.9400       264
    81.9600       270
    81.9800       272
    82.0000       274
    82.0200       278
    82.0400       292
    82.0600       290
    82.0800       284
    82.1000       296
    82.1200       326
    82.1400       296
    82.1600       302
    82.1800       298
    82.2000       302
    82.2200       304
    82.2400       318
    82.2600       342
    82.2800       288
    82.3000       336
    82.3200       320
    82.3400       348
    82.3600       326
    82.3800       342
    82.4000       402
    82.4200       406
    82.4400       362
    82.4600       366
    82.4800       378
    82.5000       394
    82.5200       386
    82.5400       404
    82.5600       394
    82.5800       418
    82.6000       446
    82.6200       440
    82.6400       440
    82.6600       480
    82.6800       476
    82.7000       528
    82.7200       516
    82.7400       544
    82.7600       560
    82.7800       532
    82.8000       580
    82.8200       598
    82.8400       616
    82.8600       576
    82.8800       612
    82.9000       594
    82.9200       642
    82.9400       614
    82.9600       636
    82.9800       626
    83.0000       616
    83.0200       610
    83.0400       602
    83.0600       572
    83.0800       596
    83.1000       566
    83.1200       544
    83.1400       554
    83.1600       560
    83.1800       496
    83.2000       474
    83.2200       528
    83.2400       516
    83.2600       510
    83.2800       488
    83.3000       468
    83.3200       438
    83.3400       456
    83.3600       486
    83.3800       390
    83.4000       404
    83.4200       350
    83.4400       382
    83.4600       400
    83.4800       406
    83.5000       378
    83.5200       362
    83.5400       354
    83.5600       362
    83.5800       348
    83.6000       338
    83.6200       330
    83.6400       322
    83.6600       324
    83.6800       298
    83.7000       348
    83.7200       346
    83.7400       342
    83.7600       264
    83.7800       314
    83.8000       294
    83.8200       282
    83.8400       302
    83.8600       302
    83.8800       308
    83.9000       328
    83.9200       296
    83.9400       290
    83.9600       278
    83.9800       336
    84.0000       270
    84.0200       328
    84.0400       288
    84.0600       308
    84.0800       266
    84.1000       286
    84.1200       308
    84.1400       326
    84.1600       326
    84.1800       300
    84.2000       316
    84.2200       300
    84.2400       300
    84.2600       298
    84.2800       280
    84.3000       304
    84.3200       302
    84.3400       290
    84.3600       308
    84.3800       318
    84.4000       272
    84.4200       276
    84.4400       264
    84.4600       292
    84.4800       300
    84.5000       308
    84.5200       260
    84.5400       252
    84.5600       276
    84.5800       276
    84.6000       282
    84.6200       280
    84.6400       282
    84.6600       264
    84.6800       272
    84.7000       266
    84.7200       282
    84.7400       280
    84.7600       286
    84.7800       290
    84.8000       294
    84.8200       306
    84.8400       310
    84.8600       272
    84.8800       258
    84.9000       274
    84.9200       256
    84.9400       268
    84.9600       254
    84.9800       284
    85.0000       242
    85.0200       268
    85.0400       300
    85.0600       286
    85.0800       250
    85.1000       256
    85.1200       246
    85.1400       270
    85.1600       222
    85.1800       240
    85.2000       218
    85.2200       264
    85.2400       232
    85.2600       256
    85.2800       244
    85.3000       232
    85.3200       226
    85.3400       232
    85.3600       254
    85.3800       218
    85.4000       242
    85.4200       226
    85.4400       260
    85.4600       254
    85.4800       256
    85.5000       248
    85.5200       258
    85.5400       276
    85.5600       238
    85.5800       254
    85.6000       272
    85.6200       254
    85.6400       258
    85.6600       264
    85.6800       264
    85.7000       250
    85.7200       246
    85.7400       260
    85.7600       268
    85.7800       278
    85.8000       238
    85.8200       256
    85.8400       236
    85.8600       244
    85.8800       246
    85.9000       244
    85.9200       262
    85.9400       214
    85.9600       270
    85.9800       262
    86.0000       234
    86.0200       244
    86.0400       236
    86.0600       236
    86.0800       250
    86.1000       226
    86.1200       230
    86.1400       254
    86.1600       244
    86.1800       246
    86.2000       230
    86.2200       242
    86.2400       240
    86.2600       256
    86.2800       238
    86.3000       220
    86.3200       234
    86.3400       230
    86.3600       250
    86.3800       246
    86.4000       246
    86.4200       248
    86.4400       250
    86.4600       290
    86.4800       238
    86.5000       250
    86.5200       252
    86.5400       232
    86.5600       284
    86.5800       240
    86.6000       266
    86.6200       286
    86.6400       276
    86.6600       290
    86.6800       290
    86.7000       312
    86.7200       300
    86.7400       338
    86.7600       296
    86.7800       302
    86.8000       332
    86.8200       340
    86.8400       330
    86.8600       324
    86.8800       392
    86.9000       348
    86.9200       390
    86.9400       412
    86.9600       400
    86.9800       400
    87.0000       398
    87.0200       424
    87.0400       420
    87.0600       436
    87.0800       444
    87.1000       424
    87.1200       438
    87.1400       418
    87.1600       444
    87.1800       452
    87.2000       510
    87.2200       492
    87.2400       460
    87.2600       468
    87.2800       506
    87.3000       480
    87.3200       508
    87.3400       498
    87.3600       516
    87.3800       528
    87.4000       508
    87.4200       528
    87.4400       494
    87.4600       494
    87.4800       508
    87.5000       504
    87.5200       514
    87.5400       482
    87.5600       498
    87.5800       490
    87.6000       534
    87.6200       502
    87.6400       466
    87.6600       490
    87.6800       472
    87.7000       496
    87.7200       458
    87.7400       500
    87.7600       462
    87.7800       448
    87.8000       492
    87.8200       452
    87.8400       442
    87.8600       440
    87.8800       502
    87.9000       444
    87.9200       424
    87.9400       410
    87.9600       426
    87.9800       422
    88.0000       408
    88.0200       414
    88.0400       418
    88.0600       402
    88.0800       380
    88.1000       436
    88.1200       398
    88.1400       404
    88.1600       404
    88.1800       402
    88.2000       372
    88.2200       382
    88.2400       376
    88.2600       392
    88.2800       364
    88.3000       372
    88.3200       382
    88.3400       396
    88.3600       346
    88.3800       334
    88.4000       342
    88.4200       354
    88.4400       338
    88.4600       326
    88.4800       328
    88.5000       316
    88.5200       294
    88.5400       278
    88.5600       334
    88.5800       292
    88.6000       290
    88.6200       286
    88.6400       290
    88.6600       292
    88.6800       292
    88.7000       298
    88.7200       312
    88.7400       278
    88.7600       300
    88.7800       284
    88.8000       298
    88.8200       284
    88.8400       260
    88.8600       256
    88.8800       268
    88.9000       260
    88.9200       250
    88.9400       250
    88.9600       242
    88.9800       260
    89.0000       268
    89.0200       246
    89.0400       238
    89.0600       258
    89.0800       246
    89.1000       230
    89.1200       250
    89.1400       226
    89.1600       224
    89.1800       224
    89.2000       246
    89.2200       212
    89.2400       254
    89.2600       260
    89.2800       202
    89.3000       242
    89.3200       218
    89.3400       236
    89.3600       228
    89.3800       228
    89.4000       212
    89.4200       238
    89.4400       236
    89.4600       244
    89.4800       238
    89.5000       250
    89.5200       228
    89.5400       248
    89.5600       266
    89.5800       254
    89.6000       232
    89.6200       240
    89.6400       268
    89.6600       238
    89.6800       252
    89.7000       286
    89.7200       246
    89.7400       280
    89.7600       250
    89.7800       282
    89.8000       286
    89.8200       294
    89.8400       250
    89.8600       272
    89.8800       294
    89.9000       282
    89.9200       264
    89.9400       272
    89.9600       274
    89.9800       256
    90.0000       288
