    10.0000       320
    10.0200       374
    10.0400       336
    10.0600       364
    10.0800       382
    10.1000       368
    10.1200       398
    10.1400       380
    10.1600       354
    10.1800       336
    10.2000       378
    10.2200       358
    10.2400       346
    10.2600       354
    10.2800       322
    10.3000       382
    10.3200       362
    10.3400       360
    10.3600       312
    10.3800       354
    10.4000       362
    10.4200       342
    10.4400       368
    10.4600       330
    10.4800       360
    10.5000       358
    10.5200       356
    10.5400       362
    10.5600       332
    10.5800       318
    10.6000       330
    10.6200       368
    10.6400       318
    10.6600       332
    10.6800       342
    10.7000       330
    10.7200       332
    10.7400       342
    10.7600       358
    10.7800       352
    10.8000       372
    10.8200       338
    10.8400       322
    10.8600       320
    10.8800       304
    10.9000       326
    10.9200       332
    10.9400       344
    10.9600       338
    10.9800       342
    11.0000       344
    11.0200       346
    11.0400       360
    11.0600       312
    11.0800       360
    11.1000       336
    11.1200       316
    11.1400       326
    11.1600       314
    11.1800       318
    11.2000       322
    11.2200       300
    11.2400       356
    11.2600       350
    11.2800       332
    11.3000       366
    11.3200       354
    11.3400       304
    11.3600       290
    11.3800       362
    11.4000       310
    11.4200       360
    11.4400       306
    11.4600       284
    11.4800       350
    11.5000       318
    11.5200       316
    11.5400       334
    11.5600       320
    11.5800       320
    11.6000       312
    11.6200       338
    11.6400       356
    11.6600       330
    11.6800       342
    11.7000       328
    11.7200       342
    11.7400       320
    11.7600       352
    11.7800       356
    11.8000       352
    11.8200       342
    11.8400       360
    11.8600       334
    11.8800       388
    11.9000       390
    11.9200       388
    11.9400       396
    11.9600       394
    11.9800       398
    12.0000       460
    12.0200       484
    12.0400       460
    12.0600       468
    12.0800       490
    12.1000       528
    12.1200       642
    12.1400       616
    12.1600       634
    12.1800       652
    12.2000       678
    12.2200       710
    12.2400       658
    12.2600       580
    12.2800       490
    12.3000       472
    12.3200       360
    12.3400       350
    12.3600       352
    12.3800       358
    12.4000       318
    12.4200       322
    12.4400       318
    12.4600       306
    12.4800       318
    12.5000       294
    12.5200       294
    12.5400       286
    12.5600       308
    12.5800       276
    12.6000       282
    12.6200       322
    12.6400       302
    12.6600       306
    12.6800       306
    12.7000       296
    12.7200       294
    12.7400       308
    12.7600       274
    12.7800       286
    12.8000       292
    12.8200       296
    12.8400       272
    12.8600       304
    12.8800       270
    12.9000       316
    12.9200       272
    12.9400       280
    12.9600       288
    12.9800       286
    13.0000       272
    13.0200       264
    13.0400       276
    13.0600       320
    13.0800       276
    13.1000       288
    13.1200       278
    13.1400       294
    13.1600       270
    13.1800       276
    13.2000       266
    13.2200       300
    13.2400       266
    13.2600       296
    13.2800       280
    13.3000       260
    13.3200       264
    13.3400       286
    13.3600       262
    13.3800       270
    13.4000       264
    13.4200       260
    13.4400       260
    13.4600       298
    13.4800       260
    13.5000       244
    13.5200       262
    13.5400       270
    13.5600       254
    13.5800       278
    13.6000       260
    13.6200       260
    13.6400       274
    13.6600       268
    13.6800       264
    13.7000       262
    13.7200       274
    13.7400       264
    13.7600       282
    13.7800       286
    13.8000       262
    13.8200       310
    13.8400       272
    13.8600       278
    13.8800       254
    13.9000       276
    13.9200       262
    13.9400       266
    13.9600       294
    13.9800       274
    14.0000       258
    14.0200       258
    14.0400       252
    14.0600       230
    14.0800       246
    14.1000       290
    14.1200       272
    14.1400       240
    14.1600       268
    14.1800       242
    14.2000       260
    14.2200       278
    14.2400       242
    14.2600       236
    14.2800       272
    14.3000       260
    14.3200       294
    14.3400       284
    14.3600       290
    14.3800       284
    14.4000       250
    14.4200       262
    14.4400       278
    14.4600       262
    14.4800       268
    14.5000       294
    14.5200       276
    14.5400       256
    14.5600       302
    14.5800       294
    14.6000       292
    14.6200       312
    14.6400       294
    14.6600       346
    14.6800       300
    14.7000       308
    14.7200       330
    14.7400       334
    14.7600       354
    14.7800       374
    14.8000       376
    14.8200       450
    14.8400       438
    14.8600       462
    14.8800       512
    14.9000       526
    14.9200       572
    14.9400       618
    14.9600       670
    14.9800       750
    15.0000       846
    15.0200       800
    15.0400      1038
    15.0600      1092
    15.0800      1164
    15.1000      1298
    15.1200      1448
    15.1400      1558
    15.1600      1836
    15.1800      1986
    15.2000      2006
    15.2200      1960
    15.2400      1872
    15.2600      1636
    15.2800      1344
    15.3000      1098
    15.3200       842
    15.3400       668
    15.3600       568
    15.3800       500
    15.4000       486
    15.4200       446
    15.4400       408
    15.4600       392
    15.4800       342
    15.5000       358
    15.5200       304
    15.5400       302
    15.5600       300
    15.5800       302
    15.6000       294
    15.6200       300
    15.6400       272
    15.6600       264
    15.6800       274
    15.7000       288
    15.7200       272
    15.7400       278
    15.7600       260
    15.7800       268
    15.8000       260
    15.8200       286
    15.8400       268
    15.8600       280
    15.8800       262
    15.9000       274
    15.9200       294
    15.9400       300
    15.9600       274
    15.9800       268
    16.0000       300
    16.0200       268
    16.0400       310
    16.0600       284
    16.0800       294
    16.1000       344
    16.1200       314
    16.1400       358
    16.1600       364
    16.1800       354
    16.2000       364
    16.2200       378
    16.2400       390
    16.2600       414
    16.2800       454
    16.3000       402
    16.3200       430
    16.3400       454
    16.3600       350
    16.3800       396
    16.4000       374
    16.4200       312
    16.4400       360
    16.4600       372
    16.4800       330
    16.5000       324
    16.5200       354
    16.5400       390
    16.5600       352
    16.5800       366
    16.6000       414
    16.6200       408
    16.6400       448
    16.6600       446
    16.6800       506
    16.7000       542
    16.7200       542
    16.7400       634
    16.7600       694
    16.7800       764
    16.8000       832
    16.8200       934
    16.8400      1008
    16.8600      1100
    16.8800      1218
    16.9000      1416
    16.9200      1644
    16.9400      1908
    16.9600      2110
    16.9800      2458
    17.0000      2840
    17.0200      3060
    17.0400      3220
    17.0600      3002
    17.0800      2884
    17.1000      2480
    17.1200      2028
    17.1400      1582
    17.1600      1310
    17.1800      1102
    17.2000       984
    17.2200       932
    17.2400       918
    17.2600       842
    17.2800       824
    17.3000       812
    17.3200       706
    17.3400       624
    17.3600       620
    17.3800       562
    17.4000       536
    17.4200       478
    17.4400       462
    17.4600       452
    17.4800       408
    17.5000       402
    17.5200       408
    17.5400       478
    17.5600       402
    17.5800       424
    17.6000       516
    17.6200       474
    17.6400       554
    17.6600       556
    17.6800       588
    17.7000       626
    17.7200       694
    17.7400       724
    17.7600       806
    17.7800       836
    17.8000       946
    17.8200       958
    17.8400       978
    17.8600      1018
    17.8800       916
    17.9000       854
    17.9200       726
    17.9400       642
    17.9600       486
    17.9800       410
    18.0000       378
    18.0200       322
    18.0400       296
    18.0600       310
    18.0800       314
    18.1000       266
    18.1200       290
    18.1400       266
    18.1600       268
    18.1800       284
    18.2000       218
    18.2200       248
    18.2400       234
    18.2600       200
    18.2800       260
    18.3000       256
    18.3200       240
    18.3400       242
    18.3600       216
    18.3800       268
    18.4000       220
    18.4200       240
    18.4400       246
    18.4600       230
    18.4800       224
    18.5000       220
    18.5200       236
    18.5400       224
    18.5600       196
    18.5800       236
    18.6000       252
    18.6200       244
    18.6400       226
    18.6600       216
    18.6800       220
    18.7000       204
    18.7200       240
    18.7400       236
    18.7600       238
    18.7800       226
    18.8000       208
    18.8200       228
    18.8400       248
    18.8600       234
    18.8800       254
    18.9000       224
    18.9200       246
    18.9400       254
    18.9600       242
    18.9800       240
    19.0000       244
    19.0200       278
    19.0400       262
    19.0600       244
    19.0800       276
    19.1000       300
    19.1200       304
    19.1400       344
    19.1600       326
    19.1800       372
    19.2000       388
    19.2200       382
    19.2400       472
    19.2600       512
    19.2800       490
    19.3000       594
    19.3200       662
    19.3400       676
    19.3600       728
    19.3800       892
    19.4000       972
    19.4200      1074
    19.4400      1298
    19.4600      1460
    19.4800      1712
    19.5000      1924
    19.5200      2238
    19.5400      2306
    19.5600      2314
    19.5800      2128
    19.6000      2098
    19.6200      1728
    19.6400      1494
    19.6600      1192
    19.6800       928
    19.7000       820
    19.7200       780
    19.7400       752
    19.7600       750
    19.7800       790
    19.8000       860
    19.8200       826
    19.8400       952
    19.8600      1040
    19.8800      1154
    19.9000      1226
    19.9200      1424
    19.9400      1626
    19.9600      1630
    19.9800      1792
    20.0000      1778
    20.0200      1740
    20.0400      1584
    20.0600      1394
    20.0800      1192
    20.1000       906
    20.1200       732
    20.1400       596
    20.1600       506
    20.1800       462
    20.2000       384
    20.2200       382
    20.2400       374
    20.2600       298
    20.2800       350
    20.3000       284
    20.3200       308
    20.3400       302
    20.3600       302
    20.3800       260
    20.4000       264
    20.4200       224
    20.4400       222
    20.4600       272
    20.4800       260
    20.5000       232
    20.5200       222
    20.5400       220
    20.5600       262
    20.5800       222
    20.6000       228
    20.6200       272
    20.6400       242
    20.6600       258
    20.6800       248
    20.7000       252
    20.7200       272
    20.7400       246
    20.7600       288
    20.7800       308
    20.8000       298
    20.8200       322
    20.8400       354
    20.8600       350
    20.8800       372
    20.9000       384
    20.9200       424
    20.9400       472
    20.9600       512
    20.9800       522
    21.0000       630
    21.0200       678
    21.0400       808
    21.0600       870
    21.0800      1030
    21.1000      1238
    21.1200      1390
    21.1400      1484
    21.1600      1630
    21.1800      1832
    21.2000      1950
    21.2200      2012
    21.2400      1934
    21.2600      1778
    21.2800      1480
    21.3000      1308
    21.3200      1064
    21.3400       954
    21.3600       744
    21.3800       588
    21.4000       502
    21.4200       476
    21.4400       388
    21.4600       352
    21.4800       338
    21.5000       286
    21.5200       294
    21.5400       268
    21.5600       280
    21.5800       222
    21.6000       232
    21.6200       262
    21.6400       258
    21.6600       258
    21.6800       258
    21.7000       218
    21.7200       192
    21.7400       224
    21.7600       208
    21.7800       212
    21.8000       240
    21.8200       202
    21.8400       254
    21.8600       236
    21.8800       216
    21.9000       200
    21.9200       208
    21.9400       214
    21.9600       218
    21.9800       234
    22.0000       240
    22.0200       198
    22.0400       206
    22.0600       200
    22.0800       192
    22.1000       226
    22.1200       230
    22.1400       224
    22.1600       196
    22.1800       196
    22.2000       216
    22.2200       234
    22.2400       230
    22.2600       226
    22.2800       234
    22.3000       232
    22.3200       214
    22.3400       270
    22.3600       248
    22.3800       278
    22.4000       286
    22.4200       280
    22.4400       310
    22.4600       354
    22.4800       334
    22.5000       406
    22.5200       448
    22.5400       414
    22.5600       490
    22.5800       538
    22.6000       578
    22.6200       658
    22.6400       732
    22.6600       842
    22.6800       982
    22.7000      1118
    22.7200      1282
    22.7400      1482
    22.7600      1696
    22.7800      1972
    22.8000      2284
    22.8200      2542
    22.8400      2964
    22.8600      3086
    22.8800      3108
    22.9000      3022
    22.9200      2728
    22.9400      2236
    22.9600      1912
    22.9800      1424
    23.0000      1182
    23.0200       964
    23.0400       738
    23.0600       628
    23.0800       552
    23.1000       554
    23.1200       492
    23.1400       422
    23.1600       400
    23.1800       366
    23.2000       384
    23.2200       344
    23.2400       316
    23.2600       316
    23.2800       294
    23.3000       290
    23.3200       270
    23.3400       262
    23.3600       276
    23.3800       292
    23.4000       202
    23.4200       250
    23.4400       212
    23.4600       212
    23.4800       230
    23.5000       216
    23.5200       240
    23.5400       218
    23.5600       210
    23.5800       212
    23.6000       212
    23.6200       236
    23.6400       216
    23.6600       196
    23.6800       220
    23.7000       222
    23.7200       200
    23.7400       206
    23.7600       236
    23.7800       234
    23.8000       214
    23.8200       208
    23.8400       222
    23.8600       234
    23.8800       230
    23.9000       232
    23.9200       224
    23.9400       228
    23.9600       240
    23.9800       242
    24.0000       234
    24.0200       226
    24.0400       266
    24.0600       248
    24.0800       244
    24.1000       272
    24.1200       228
    24.1400       266
    24.1600       282
    24.1800       304
    24.2000       312
    24.2200       314
    24.2400       344
    24.2600       360
    24.2800       354
    24.3000       388
    24.3200       394
    24.3400       462
    24.3600       524
    24.3800       574
    24.4000       652
    24.4200       746
    24.4400       816
    24.4600       928
    24.4800       994
    24.5000      1178
    24.5200      1242
    24.5400      1250
    24.5600      1254
    24.5800      1248
    24.6000      1200
    24.6200      1120
    24.6400      1028
    24.6600       970
    24.6800       872
    24.7000       860
    24.7200       770
    24.7400       834
    24.7600       776
    24.7800       802
    24.8000       704
    24.8200       672
    24.8400       676
    24.8600       596
    24.8800       560
    24.9000       518
    24.9200       496
    24.9400       470
    24.9600       418
    24.9800       446
    25.0000       486
    25.0200       436
    25.0400       454
    25.0600       492
    25.0800       550
    25.1000       522
    25.1200       602
    25.1400       676
    25.1600       638
    25.1800       742
    25.2000       890
    25.2200       966
    25.2400      1022
    25.2600      1212
    25.2800      1208
    25.3000      1412
    25.3200      1454
    25.3400      1590
    25.3600      1550
    25.3800      1522
    25.4000      1444
    25.4200      1296
    25.4400      1182
    25.4600      1052
    25.4800      1016
    25.5000       866
    25.5200       918
    25.5400       896
    25.5600       844
    25.5800       906
    25.6000       938
    25.6200       888
    25.6400       868
    25.6600       802
    25.6800       706
    25.7000       678
    25.7200       564
    25.7400       554
    25.7600       482
    25.7800       474
    25.8000       418
    25.8200       428
    25.8400       398
    25.8600       376
    25.8800       384
    25.9000       412
    25.9200       366
    25.9400       344
    25.9600       298
    25.9800       276
    26.0000       340
    26.0200       282
    26.0400       278
    26.0600       282
    26.0800       262
    26.1000       278
    26.1200       290
    26.1400       242
    26.1600       258
    26.1800       212
    26.2000       246
    26.2200       280
    26.2400       258
    26.2600       254
    26.2800       238
    26.3000       234
    26.3200       236
    26.3400       260
    26.3600       266
    26.3800       238
    26.4000       230
    26.4200       228
    26.4400       242
    26.4600       268
    26.4800       230
    26.5000       276
    26.5200       256
    26.5400       236
    26.5600       258
    26.5800       226
    26.6000       260
    26.6200       236
    26.6400       256
    26.6600       266
    26.6800       232
    26.7000       250
    26.7200       262
    26.7400       262
    26.7600       274
    26.7800       198
    26.8000       248
    26.8200       244
    26.8400       234
    26.8600       218
    26.8800       244
    26.9000       244
    26.9200       250
    26.9400       234
    26.9600       246
    26.9800       254
    27.0000       258
    27.0200       262
    27.0400       248
    27.0600       242
    27.0800       278
    27.1000       252
    27.1200       292
    27.1400       318
    27.1600       334
    27.1800       334
    27.2000       364
    27.2200       438
    27.2400       438
    27.2600       502
    27.2800       484
    27.3000       536
    27.3200       588
    27.3400       646
    27.3600       754
    27.3800       902
    27.4000       914
    27.4200      1036
    27.4400      1136
    27.4600      1166
    27.4800      1200
    27.5000      1206
    27.5200      1256
    27.5400      1114
    27.5600      1090
    27.5800      1016
    27.6000       894
    27.6200       780
    27.6400       650
    27.6600       634
    27.6800       530
    27.7000       488
    27.7200       438
    27.7400       386
    27.7600       360
    27.7800       344
    27.8000       324
    27.8200       322
    27.8400       332
    27.8600       310
    27.8800       292
    27.9000       270
    27.9200       308
    27.9400       268
    27.9600       286
    27.9800       290
    28.0000       244
    28.0200       252
    28.0400       248
    28.0600       276
    28.0800       270
    28.1000       264
    28.1200       268
    28.1400       270
    28.1600       276
    28.1800       272
    28.2000       264
    28.2200       278
    28.2400       292
    28.2600       308
    28.2800       282
    28.3000       274
    28.3200       280
    28.3400       318
    28.3600       316
    28.3800       314
    28.4000       314
    28.4200       352
    28.4400       332
    28.4600       344
    28.4800       334
    28.5000       346
    28.5200       358
    28.5400       344
    28.5600       354
    28.5800       376
    28.6000       392
    28.6200       392
    28.6400       428
    28.6600       452
    28.6800       494
    28.7000       528
    28.7200       552
    28.7400       480
    28.7600       476
    28.7800       464
    28.8000       454
    28.8200       390
    28.8400       386
    28.8600       374
    28.8800       346
    28.9000       342
    28.9200       342
    28.9400       310
    28.9600       308
    28.9800       298
    29.0000       308
    29.0200       318
    29.0400       280
    29.0600       278
    29.0800       304
    29.1000       290
    29.1200       282
    29.1400       304
    29.1600       314
    29.1800       330
    29.2000       314
    29.2200       324
    29.2400       346
    29.2600       374
    29.2800       374
    29.3000       384
    29.3200       414
    29.3400       418
    29.3600       402
    29.3800       456
    29.4000       514
    29.4200       554
    29.4400       580
    29.4600       608
    29.4800       608
    29.5000       746
    29.5200       740
    29.5400       796
    29.5600       934
    29.5800       994
    29.6000      1160
    29.6200      1288
    29.6400      1406
    29.6600      1538
    29.6800      1574
    29.7000      1576
    29.7200      1566
    29.7400      1512
    29.7600      1434
    29.7800      1336
    29.8000      1180
    29.8200      1032
    29.8400       968
    29.8600       856
    29.8800       866
    29.9000       856
    29.9200       850
    29.9400       780
    29.9600       802
    29.9800       860
    30.0000       996
    30.0200      1054
    30.0400      1200
    30.0600      1300
    30.0800      1452
    30.1000      1618
    30.1200      1762
    30.1400      1942
    30.1600      2062
    30.1800      2192
    30.2000      2192
    30.2200      2180
    30.2400      2118
    30.2600      2060
    30.2800      2002
    30.3000      1872
    30.3200      1796
    30.3400      1712
    30.3600      1706
    30.3800      1772
    30.4000      1814
    30.4200      1988
    30.4400      2156
    30.4600      2248
    30.4800      2526
    30.5000      2850
    30.5200      3334
    30.5400      3702
    30.5600      4204
    30.5800      4676
    30.6000      5340
    30.6200      6080
    30.6400      7008
    30.6600      7718
    30.6800      8372
    30.7000      8628
    30.7200      8660
    30.7400      8404
    30.7600      7594
    30.7800      6986
    30.8000      6060
    30.8200      5118
    30.8400      4348
    30.8600      3530
    30.8800      2922
    30.9000      2336
    30.9200      1968
    30.9400      1738
    30.9600      1432
    30.9800      1232
    31.0000      1156
    31.0200      1030
    31.0400       914
    31.0600       894
    31.0800       728
    31.1000       730
    31.1200       658
    31.1400       632
    31.1600       576
    31.1800       540
    31.2000       502
    31.2200       490
    31.2400       450
    31.2600       438
    31.2800       408
    31.3000       410
    31.3200       414
    31.3400       396
    31.3600       368
    31.3800       354
    31.4000       332
    31.4200       380
    31.4400       362
    31.4600       378
    31.4800       358
    31.5000       372
    31.5200       380
    31.5400       324
    31.5600       366
    31.5800       360
    31.6000       364
    31.6200       384
    31.6400       406
    31.6600       402
    31.6800       454
    31.7000       462
    31.7200       446
    31.7400       500
    31.7600       528
    31.7800       544
    31.8000       690
    31.8200       674
    31.8400       726
    31.8600       788
    31.8800       940
    31.9000      1070
    31.9200      1128
    31.9400      1332
    31.9600      1380
    31.9800      1456
    32.0000      1572
    32.0200      1708
    32.0400      1680
    32.0600      1624
    32.0800      1370
    32.1000      1280
    32.1200      1222
    32.1400      1094
    32.1600      1082
    32.1800      1020
    32.2000       986
    32.2200       958
    32.2400       994
    32.2600      1042
    32.2800      1116
    32.3000      1226
    32.3200      1262
    32.3400      1506
    32.3600      1590
    32.3800      1862
    32.4000      2166
    32.4200      2362
    32.4400      2852
    32.4600      3212
    32.4800      3748
    32.5000      4302
    32.5200      4670
    32.5400      5110
    32.5600      5418
    32.5800      5298
    32.6000      5368
    32.6200      5062
    32.6400      4734
    32.6600      4274
    32.6800      3788
    32.7000      3220
    32.7200      2834
    32.7400      2300
    32.7600      1974
    32.7800      1716
    32.8000      1494
    32.8200      1314
    32.8400      1174
    32.8600      1136
    32.8800      1050
    32.9000      1002
    32.9200       972
    32.9400       966
    32.9600       906
    32.9800       974
    33.0000      1026
    33.0200      1052
    33.0400      1110
    33.0600      1242
    33.0800      1236
    33.1000      1316
    33.1200      1168
    33.1400      1160
    33.1600      1030
    33.1800       972
    33.2000       864
    33.2200       790
    33.2400       674
    33.2600       622
    33.2800       552
    33.3000       472
    33.3200       428
    33.3400       440
    33.3600       402
    33.3800       372
    33.4000       354
    33.4200       340
    33.4400       304
    33.4600       296
    33.4800       256
    33.5000       272
    33.5200       306
    33.5400       274
    33.5600       270
    33.5800       250
    33.6000       254
    33.6200       268
    33.6400       274
    33.6600       242
    33.6800       282
    33.7000       238
    33.7200       250
    33.7400       236
    33.7600       230
    33.7800       248
    33.8000       224
    33.8200       248
    33.8400       262
    33.8600       270
    33.8800       238
    33.9000       230
    33.9200       250
    33.9400       232
    33.9600       212
    33.9800       208
    34.0000       258
    34.0200       254
    34.0400       268
    34.0600       258
    34.0800       252
    34.1000       292
    34.1200       260
    34.1400       282
    34.1600       276
    34.1800       308
    34.2000       284
    34.2200       306
    34.2400       328
    34.2600       330
    34.2800       360
    34.3000       370
    34.3200       426
    34.3400       470
    34.3600       494
    34.3800       566
    34.4000       586
    34.4200       644
    34.4400       752
    34.4600       794
    34.4800       794
    34.5000       748
    34.5200       826
    34.5400       792
    34.5600       686
    34.5800       632
    34.6000       560
    34.6200       524
    34.6400       508
    34.6600       428
    34.6800       410
    34.7000       378
    34.7200       380
    34.7400       380
    34.7600       394
    34.7800       372
    34.8000       328
    34.8200       350
    34.8400       368
    34.8600       348
    34.8800       334
    34.9000       320
    34.9200       326
    34.9400       308
    34.9600       272
    34.9800       304
    35.0000       304
    35.0200       312
    35.0400       298
    35.0600       280
    35.0800       260
    35.1000       242
    35.1200       254
    35.1400       254
    35.1600       282
    35.1800       270
    35.2000       266
    35.2200       232
    35.2400       244
    35.2600       244
    35.2800       270
    35.3000       260
    35.3200       238
    35.3400       248
    35.3600       270
    35.3800       254
    35.4000       254
    35.4200       220
    35.4400       246
    35.4600       246
    35.4800       246
    35.5000       244
    35.5200       256
    35.5400       270
    35.5600       292
    35.5800       278
    35.6000       254
    35.6200       274
    35.6400       286
    35.6600       278
    35.6800       330
    35.7000       310
    35.7200       296
    35.7400       328
    35.7600       358
    35.7800       332
    35.8000       330
    35.8200       364
    35.8400       376
    35.8600       362
    35.8800       420
    35.9000       418
    35.9200       464
    35.9400       506
    35.9600       518
    35.9800       568
    36.0000       642
    36.0200       666
    36.0400       754
    36.0600       788
    36.0800       846
    36.1000       956
    36.1200       968
    36.1400      1074
    36.1600      1042
    36.1800      1040
    36.2000      1014
    36.2200      1016
    36.2400       916
    36.2600       850
    36.2800       794
    36.3000       684
    36.3200       626
    36.3400       558
    36.3600       548
    36.3800       536
    36.4000       444
    36.4200       482
    36.4400       482
    36.4600       440
    36.4800       372
    36.5000       430
    36.5200       410
    36.5400       388
    36.5600       448
    36.5800       442
    36.6000       458
    36.6200       502
    36.6400       514
    36.6600       508
    36.6800       552
    36.7000       596
    36.7200       674
    36.7400       652
    36.7600       756
    36.7800       908
    36.8000      1020
    36.8200      1030
    36.8400      1154
    36.8600      1348
    36.8800      1532
    36.9000      1468
    36.9200      1488
    36.9400      1500
    36.9600      1434
    36.9800      1310
    37.0000      1276
    37.0200      1154
    37.0400      1144
    37.0600      1064
    37.0800      1000
    37.1000       898
    37.1200       912
    37.1400       900
    37.1600       846
    37.1800       906
    37.2000       834
    37.2200       886
    37.2400       798
    37.2600       758
    37.2800       752
    37.3000       690
    37.3200       640
    37.3400       634
    37.3600       596
    37.3800       542
    37.4000       486
    37.4200       506
    37.4400       438
    37.4600       460
    37.4800       444
    37.5000       444
    37.5200       464
    37.5400       454
    37.5600       442
    37.5800       398
    37.6000       426
    37.6200       420
    37.6400       448
    37.6600       440
    37.6800       442
    37.7000       484
    37.7200       492
    37.7400       534
    37.7600       552
    37.7800       556
    37.8000       588
    37.8200       608
    37.8400       610
    37.8600       784
    37.8800       814
    37.9000       914
    37.9200       930
    37.9400      1076
    37.9600      1252
    37.9800      1308
    38.0000      1430
    38.0200      1548
    38.0400      1562
    38.0600      1590
    38.0800      1568
    38.1000      1496
    38.1200      1470
    38.1400      1370
    38.1600      1308
    38.1800      1328
    38.2000      1314
    38.2200      1306
    38.2400      1342
    38.2600      1388
    38.2800      1440
    38.3000      1516
    38.3200      1640
    38.3400      1782
    38.3600      1972
    38.3800      2234
    38.4000      2626
    38.4200      2788
    38.4400      3158
    38.4600      3616
    38.4800      3888
    38.5000      4208
    38.5200      4462
    38.5400      4672
    38.5600      4940
    38.5800      5252
    38.6000      5598
    38.6200      5792
    38.6400      6092
    38.6600      6112
    38.6800      6278
    38.7000      6146
    38.7200      5948
    38.7400      5680
    38.7600      5362
    38.7800      5046
    38.8000      4476
    38.8200      4010
    38.8400      3632
    38.8600      3098
    38.8800      2762
    38.9000      2476
    38.9200      2186
    38.9400      1884
    38.9600      1758
    38.9800      1612
    39.0000      1500
    39.0200      1456
    39.0400      1356
    39.0600      1378
    39.0800      1242
    39.1000      1266
    39.1200      1242
    39.1400      1218
    39.1600      1142
    39.1800      1266
    39.2000      1202
    39.2200      1202
    39.2400      1192
    39.2600      1198
    39.2800      1184
    39.3000      1270
    39.3200      1270
    39.3400      1286
    39.3600      1348
    39.3800      1284
    39.4000      1302
    39.4200      1436
    39.4400      1334
    39.4600      1286
    39.4800      1354
    39.5000      1316
    39.5200      1276
    39.5400      1308
    39.5600      1310
    39.5800      1326
    39.6000      1380
    39.6200      1474
    39.6400      1544
    39.6600      1656
    39.6800      1706
    39.7000      1794
    39.7200      1772
    39.7400      1794
    39.7600      1688
    39.7800      1654
    39.8000      1450
    39.8200      1314
    39.8400      1206
    39.8600      1136
    39.8800      1058
    39.9000       916
    39.9200       932
    39.9400       844
    39.9600       740
    39.9800       726
    40.0000       724
    40.0200       716
    40.0400       696
    40.0600       738
    40.0800       782
    40.1000       786
    40.1200       814
    40.1400       882
    40.1600       918
    40.1800       900
    40.2000      1034
    40.2200       960
    40.2400      1026
    40.2600      1014
    40.2800      1004
    40.3000      1078
    40.3200      1016
    40.3400      1030
    40.3600      1002
    40.3800      1042
    40.4000      1018
    40.4200      1136
    40.4400      1162
    40.4600      1264
    40.4800      1420
    40.5000      1452
    40.5200      1556
    40.5400      1606
    40.5600      1740
    40.5800      1870
    40.6000      1834
    40.6200      1920
    40.6400      1854
    40.6600      1784
    40.6800      1672
    40.7000      1546
    40.7200      1452
    40.7400      1402
    40.7600      1240
    40.7800      1168
    40.8000      1022
    40.8200       980
    40.8400       864
    40.8600       878
    40.8800       780
    40.9000       730
    40.9200       666
    40.9400       736
    40.9600       692
    40.9800       648
    41.0000       720
    41.0200       730
    41.0400       754
    41.0600       750
    41.0800       878
    41.1000       896
    41.1200      1008
    41.1400      1022
    41.1600      1184
    41.1800      1218
    41.2000      1364
    41.2200      1492
    41.2400      1562
    41.2600      1596
    41.2800      1694
    41.3000      1732
    41.3200      1816
    41.3400      1856
    41.3600      1764
    41.3800      1746
    41.4000      1868
    41.4200      1922
    41.4400      1852
    41.4600      1942
    41.4800      1882
    41.5000      1952
    41.5200      2082
    41.5400      2146
    41.5600      2166
    41.5800      2086
    41.6000      2036
    41.6200      2020
    41.6400      1972
    41.6600      1846
    41.6800      1648
    41.7000      1640
    41.7200      1544
    41.7400      1472
    41.7600      1396
    41.7800      1326
    41.8000      1318
    41.8200      1402
    41.8400      1370
    41.8600      1424
    41.8800      1462
    41.9000      1384
    41.9200      1480
    41.9400      1452
    41.9600      1462
    41.9800      1432
    42.0000      1252
    42.0200      1170
    42.0400      1096
    42.0600      1096
    42.0800       950
    42.1000       838
    42.1200       774
    42.1400       654
    42.1600       640
    42.1800       590
    42.2000       594
    42.2200       510
    42.2400       472
    42.2600       468
    42.2800       468
    42.3000       476
    42.3200       444
    42.3400       466
    42.3600       462
    42.3800       444
    42.4000       476
    42.4200       408
    42.4400       430
    42.4600       380
    42.4800       420
    42.5000       400
    42.5200       454
    42.5400       410
    42.5600       406
    42.5800       406
    42.6000       408
    42.6200       380
    42.6400       372
    42.6600       388
    42.6800       408
    42.7000       376
    42.7200       420
    42.7400       384
    42.7600       360
    42.7800       386
    42.8000       416
    42.8200       406
    42.8400       452
    42.8600       410
    42.8800       448
    42.9000       470
    42.9200       492
    42.9400       524
    42.9600       574
    42.9800       570
    43.0000       544
    43.0200       638
    43.0400       698
    43.0600       740
    43.0800       804
    43.1000       930
    43.1200       996
    43.1400      1168
    43.1600      1162
    43.1800      1346
    43.2000      1330
    43.2200      1344
    43.2400      1346
    43.2600      1328
    43.2800      1284
    43.3000      1278
    43.3200      1114
    43.3400      1102
    43.3600      1018
    43.3800       926
    43.4000       808
    43.4200       760
    43.4400       676
    43.4600       620
    43.4800       628
    43.5000       564
    43.5200       522
    43.5400       524
    43.5600       460
    43.5800       490
    43.6000       468
    43.6200       492
    43.6400       440
    43.6600       474
    43.6800       474
    43.7000       516
    43.7200       488
    43.7400       484
    43.7600       564
    43.7800       574
    43.8000       564
    43.8200       574
    43.8400       556
    43.8600       608
    43.8800       584
    43.9000       550
    43.9200       520
    43.9400       510
    43.9600       516
    43.9800       534
    44.0000       492
    44.0200       486
    44.0400       422
    44.0600       448
    44.0800       476
    44.1000       432
    44.1200       466
    44.1400       460
    44.1600       440
    44.1800       404
    44.2000       456
    44.2200       478
    44.2400       460
    44.2600       480
    44.2800       480
    44.3000       512
    44.3200       488
    44.3400       514
    44.3600       462
    44.3800       530
    44.4000       500
    44.4200       496
    44.4400       478
    44.4600       482
    44.4800       454
    44.5000       512
    44.5200       490
    44.5400       468
    44.5600       454
    44.5800       464
    44.6000       498
    44.6200       456
    44.6400       502
    44.6600       478
    44.6800       510
    44.7000       542
    44.7200       566
    44.7400       606
    44.7600       616
    44.7800       698
    44.8000       662
    44.8200       790
    44.8400       796
    44.8600       876
    44.8800       950
    44.9000      1084
    44.9200      1178
    44.9400      1320
    44.9600      1374
    44.9800      1538
    45.0000      1766
    45.0200      1776
    45.0400      1900
    45.0600      2080
    45.0800      1976
    45.1000      2182
    45.1200      2276
    45.1400      2310
    45.1600      2424
    45.1800      2460
    45.2000      2608
    45.2200      2490
    45.2400      2588
    45.2600      2652
    45.2800      2652
    45.3000      2644
    45.3200      2498
    45.3400      2406
    45.3600      2340
    45.3800      2384
    45.4000      2182
    45.4200      1988
    45.4400      1994
    45.4600      1948
    45.4800      1880
    45.5000      1694
    45.5200      1588
    45.5400      1512
    45.5600      1418
    45.5800      1272
    45.6000      1164
    45.6200      1148
    45.6400      1030
    45.6600       958
    45.6800       930
    45.7000       882
    45.7200       816
    45.7400       734
    45.7600       752
    45.7800       652
    45.8000       682
    45.8200       654
    45.8400       590
    45.8600       618
    45.8800       644
    45.9000       566
    45.9200       562
    45.9400       592
    45.9600       576
    45.9800       550
    46.0000       550
    46.0200       576
    46.0400       594
    46.0600       618
    46.0800       588
    46.1000       542
    46.1200       626
    46.1400       608
    46.1600       634
    46.1800       626
    46.2000       666
    46.2200       692
    46.2400       706
    46.2600       778
    46.2800       784
    46.3000       896
    46.3200       914
    46.3400       942
    46.3600      1056
    46.3800      1112
    46.4000      1260
    46.4200      1318
    46.4400      1458
    46.4600      1558
    46.4800      1838
    46.5000      2074
    46.5200      2192
    46.5400      2524
    46.5600      2796
    46.5800      3002
    46.6000      3520
    46.6200      3778
    46.6400      4378
    46.6600      4860
    46.6800      5106
    46.7000      5530
    46.7200      5800
    46.7400      5652
    46.7600      5776
    46.7800      5408
    46.8000      5162
    46.8200      4762
    46.8400      4420
    46.8600      4202
    46.8800      3594
    46.9000      3204
    46.9200      2922
    46.9400      2396
    46.9600      2184
    46.9800      1838
    47.0000      1746
    47.0200      1476
    47.0400      1234
    47.0600      1142
    47.0800      1070
    47.1000      1024
    47.1200       966
    47.1400       846
    47.1600       842
    47.1800       712
    47.2000       696
    47.2200       656
    47.2400       622
    47.2600       678
    47.2800       594
    47.3000       538
    47.3200       558
    47.3400       500
    47.3600       506
    47.3800       478
    47.4000       468
    47.4200       508
    47.4400       502
    47.4600       466
    47.4800       466
    47.5000       434
    47.5200       450
    47.5400       484
    47.5600       418
    47.5800       482
    47.6000       446
    47.6200       430
    47.6400       458
    47.6600       466
    47.6800       490
    47.7000       466
    47.7200       486
    47.7400       524
    47.7600       574
    47.7800       550
    47.8000       560
    47.8200       618
    47.8400       596
    47.8600       632
    47.8800       666
    47.9000       658
    47.9200       604
    47.9400       614
    47.9600       574
    47.9800       578
    48.0000       632
    48.0200       586
    48.0400       632
    48.0600       554
    48.0800       582
    48.1000       600
    48.1200       632
    48.1400       672
    48.1600       640
    48.1800       680
    48.2000       706
    48.2200       776
    48.2400       792
    48.2600       700
    48.2800       752
    48.3000       664
    48.3200       772
    48.3400       794
    48.3600       768
    48.3800       822
    48.4000       818
    48.4200       832
    48.4400       836
    48.4600       930
    48.4800       918
    48.5000       994
    48.5200      1034
    48.5400      1110
    48.5600      1044
    48.5800      1146
    48.6000      1134
    48.6200      1154
    48.6400      1196
    48.6600      1174
    48.6800      1154
    48.7000      1040
    48.7200      1038
    48.7400      1032
    48.7600       870
    48.7800       898
    48.8000       800
    48.8200       804
    48.8400       696
    48.8600       616
    48.8800       644
    48.9000       612
    48.9200       540
    48.9400       532
    48.9600       516
    48.9800       484
    49.0000       486
    49.0200       456
    49.0400       460
    49.0600       406
    49.0800       398
    49.1000       380
    49.1200       352
    49.1400       332
    49.1600       362
    49.1800       364
    49.2000       362
    49.2200       358
    49.2400       354
    49.2600       358
    49.2800       318
    49.3000       352
    49.3200       320
    49.3400       354
    49.3600       282
    49.3800       344
    49.4000       342
    49.4200       362
    49.4400       366
    49.4600       334
    49.4800       308
    49.5000       294
    49.5200       326
    49.5400       360
    49.5600       336
    49.5800       324
    49.6000       310
    49.6200       376
    49.6400       344
    49.6600       340
    49.6800       350
    49.7000       328
    49.7200       348
    49.7400       376
    49.7600       374
    49.7800       378
    49.8000       362
    49.8200       372
    49.8400       402
    49.8600       412
    49.8800       402
    49.9000       428
    49.9200       402
    49.9400       460
    49.9600       442
    49.9800       478
    50.0000       514
    50.0200       540
    50.0400       580
    50.0600       588
    50.0800       580
    50.1000       694
    50.1200       708
    50.1400       782
    50.1600       814
    50.1800       908
    50.2000       992
    50.2200      1064
    50.2400      1166
    50.2600      1228
    50.2800      1220
    50.3000      1278
    50.3200      1412
    50.3400      1296
    50.3600      1356
    50.3800      1408
    50.4000      1364
    50.4200      1298
    50.4400      1356
    50.4600      1258
    50.4800      1318
    50.5000      1282
    50.5200      1234
    50.5400      1196
    50.5600      1274
    50.5800      1286
    50.6000      1232
    50.6200      1324
    50.6400      1326
    50.6600      1482
    50.6800      1516
    50.7000      1706
    50.7200      1790
    50.7400      2036
    50.7600      2088
    50.7800      2166
    50.8000      2380
    50.8200      2430
    50.8400      2676
    50.8600      2498
    50.8800      2504
    50.9000      2470
    50.9200      2366
    50.9400      2244
    50.9600      2026
    50.9800      2022
    51.0000      1860
    51.0200      1734
    51.0400      1552
    51.0600      1440
    51.0800      1334
    51.1000      1298
    51.1200      1134
    51.1400      1050
    51.1600      1012
    51.1800       900
    51.2000       864
    51.2200       886
    51.2400       838
    51.2600       762
    51.2800       774
    51.3000       784
    51.3200       760
    51.3400       788
    51.3600       818
    51.3800       772
    51.4000       824
    51.4200       772
    51.4400       754
    51.4600       810
    51.4800       780
    51.5000       802
    51.5200       802
    51.5400       826
    51.5600       814
    51.5800       782
    51.6000       830
    51.6200       838
    51.6400       878
    51.6600       912
    51.6800       870
    51.7000       872
    51.7200       954
    51.7400      1002
    51.7600      1048
    51.7800      1130
    51.8000      1210
    51.8200      1248
    51.8400      1342
    51.8600      1456
    51.8800      1582
    51.9000      1718
    51.9200      1720
    51.9400      1820
    51.9600      1988
    51.9800      2088
    52.0000      2196
    52.0200      2298
    52.0400      2426
    52.0600      2464
    52.0800      2382
    52.1000      2366
    52.1200      2324
    52.1400      2052
    52.1600      2062
    52.1800      1866
    52.2000      1708
    52.2200      1608
    52.2400      1548
    52.2600      1494
    52.2800      1272
    52.3000      1262
    52.3200      1088
    52.3400      1090
    52.3600       964
    52.3800       956
    52.4000       946
    52.4200       938
    52.4400       886
    52.4600       922
    52.4800      1008
    52.5000       992
    52.5200      1032
    52.5400      1062
    52.5600      1176
    52.5800      1166
    52.6000      1264
    52.6200      1190
    52.6400      1218
    52.6600      1314
    52.6800      1308
    52.7000      1296
    52.7200      1316
    52.7400      1302
    52.7600      1324
    52.7800      1228
    52.8000      1200
    52.8200      1204
    52.8400      1164
    52.8600      1070
    52.8800      1054
    52.9000      1014
    52.9200       974
    52.9400       850
    52.9600       830
    52.9800       860
    53.0000       798
    53.0200       810
    53.0400       798
    53.0600       770
    53.0800       744
    53.1000       872
    53.1200       894
    53.1400       888
    53.1600       954
    53.1800      1050
    53.2000      1040
    53.2200      1094
    53.2400      1212
    53.2600      1220
    53.2800      1240
    53.3000      1256
    53.3200      1290
    53.3400      1168
    53.3600      1170
    53.3800      1146
    53.4000      1098
    53.4200      1024
    53.4400      1026
    53.4600       908
    53.4800       906
    53.5000       798
    53.5200       786
    53.5400       754
    53.5600       702
    53.5800       718
    53.6000       696
    53.6200       632
    53.6400       630
    53.6600       580
    53.6800       608
    53.7000       540
    53.7200       564
    53.7400       576
    53.7600       586
    53.7800       518
    53.8000       594
    53.8200       590
    53.8400       562
    53.8600       526
    53.8800       528
    53.9000       506
    53.9200       576
    53.9400       562
    53.9600       530
    53.9800       524
    54.0000       500
    54.0200       508
    54.0400       548
    54.0600       544
    54.0800       522
    54.1000       484
    54.1200       554
    54.1400       574
    54.1600       540
    54.1800       616
    54.2000       586
    54.2200       622
    54.2400       636
    54.2600       704
    54.2800       704
    54.3000       762
    54.3200       690
    54.3400       688
    54.3600       812
    54.3800       760
    54.4000       760
    54.4200       794
    54.4400       806
    54.4600       866
    54.4800       866
    54.5000       844
    54.5200       914
    54.5400       944
    54.5600       970
    54.5800       930
    54.6000       998
    54.6200      1004
    54.6400       958
    54.6600       934
    54.6800       960
    54.7000       988
    54.7200       948
    54.7400       918
    54.7600       964
    54.7800       964
    54.8000       880
    54.8200       914
    54.8400       868
    54.8600       930
    54.8800       818
    54.9000       778
    54.9200       764
    54.9400       796
    54.9600       826
    54.9800       808
    55.0000       818
    55.0200       786
    55.0400       818
    55.0600       860
    55.0800       906
    55.1000       868
    55.1200       960
    55.1400      1024
    55.1600       916
    55.1800       996
    55.2000      1086
    55.2200       970
    55.2400       974
    55.2600      1054
    55.2800       982
    55.3000       986
    55.3200       988
    55.3400       934
    55.3600       888
    55.3800       820
    55.4000       856
    55.4200       780
    55.4400       808
    55.4600       738
    55.4800       704
    55.5000       674
    55.5200       630
    55.5400       656
    55.5600       608
    55.5800       576
    55.6000       538
    55.6200       522
    55.6400       512
    55.6600       416
    55.6800       450
    55.7000       448
    55.7200       440
    55.7400       412
    55.7600       412
    55.7800       336
    55.8000       364
    55.8200       336
    55.8400       336
    55.8600       352
    55.8800       320
    55.9000       352
    55.9200       302
    55.9400       334
    55.9600       318
    55.9800       296
    56.0000       292
    56.0200       336
    56.0400       328
    56.0600       330
    56.0800       320
    56.1000       316
    56.1200       340
    56.1400       324
    56.1600       346
    56.1800       340
    56.2000       332
    56.2200       348
    56.2400       340
    56.2600       352
    56.2800       340
    56.3000       342
    56.3200       380
    56.3400       338
    56.3600       354
    56.3800       358
    56.4000       390
    56.4200       394
    56.4400       348
    56.4600       366
    56.4800       382
    56.5000       398
    56.5200       392
    56.5400       412
    56.5600       430
    56.5800       466
    56.6000       438
    56.6200       452
    56.6400       460
    56.6600       518
    56.6800       542
    56.7000       556
    56.7200       560
    56.7400       612
    56.7600       642
    56.7800       692
    56.8000       690
    56.8200       732
    56.8400       766
    56.8600       772
    56.8800       736
    56.9000       748
    56.9200       782
    56.9400       770
    56.9600       752
    56.9800       722
    57.0000       706
    57.0200       664
    57.0400       732
    57.0600       642
    57.0800       638
    57.1000       630
    57.1200       662
    57.1400       658
    57.1600       630
    57.1800       686
    57.2000       666
    57.2200       704
    57.2400       728
    57.2600       776
    57.2800       864
    57.3000       870
    57.3200       924
    57.3400      1016
    57.3600      1118
    57.3800      1112
    57.4000      1158
    57.4200      1118
    57.4400      1228
    57.4600      1188
    57.4800      1070
    57.5000      1166
    57.5200      1106
    57.5400      1070
    57.5600      1026
    57.5800      1094
    57.6000      1058
    57.6200      1034
    57.6400      1004
    57.6600      1070
    57.6800      1076
    57.7000      1020
    57.7200      1154
    57.7400      1138
    57.7600      1182
    57.7800      1188
    57.8000      1138
    57.8200      1090
    57.8400      1068
    57.8600      1014
    57.8800      1050
    57.9000      1014
    57.9200       932
    57.9400       880
    57.9600       884
    57.9800       844
    58.0000       828
    58.0200       768
    58.0400       720
    58.0600       674
    58.0800       686
    58.1000       714
    58.1200       642
    58.1400       662
    58.1600       718
    58.1800       704
    58.2000       716
    58.2200       718
    58.2400       732
    58.2600       768
    58.2800       808
    58.3000       858
    58.3200       860
    58.3400       890
    58.3600      1010
    58.3800      1040
    58.4000      1092
    58.4200      1130
    58.4400      1276
    58.4600      1300
    58.4800      1356
    58.5000      1420
    58.5200      1486
    58.5400      1558
    58.5600      1652
    58.5800      1728
    58.6000      1748
    58.6200      1870
    58.6400      1870
    58.6600      1982
    58.6800      2086
    58.7000      2210
    58.7200      2260
    58.7400      2250
    58.7600      2228
    58.7800      2336
    58.8000      2240
    58.8200      2208
    58.8400      2140
    58.8600      2002
    58.8800      1992
    58.9000      1852
    58.9200      1800
    58.9400      1726
    58.9600      1562
    58.9800      1432
    59.0000      1404
    59.0200      1304
    59.0400      1318
    59.0600      1186
    59.0800      1212
    59.1000      1100
    59.1200      1144
    59.1400      1114
    59.1600      1124
    59.1800      1080
    59.2000      1144
    59.2200      1150
    59.2400      1230
    59.2600      1248
    59.2800      1308
    59.3000      1388
    59.3200      1534
    59.3400      1582
    59.3600      1750
    59.3800      1868
    59.4000      1946
    59.4200      2032
    59.4400      1996
    59.4600      2050
    59.4800      2006
    59.5000      1988
    59.5200      1924
    59.5400      1894
    59.5600      1880
    59.5800      1666
    59.6000      1784
    59.6200      1646
    59.6400      1588
    59.6600      1584
    59.6800      1460
    59.7000      1396
    59.7200      1356
    59.7400      1184
    59.7600      1200
    59.7800      1162
    59.8000      1152
    59.8200      1062
    59.8400      1046
    59.8600       978
    59.8800       932
    59.9000       914
    59.9200       824
    59.9400       764
    59.9600       838
    59.9800       740
    60.0000       698
    60.0200       700
    60.0400       704
    60.0600       646
    60.0800       630
    60.1000       592
    60.1200       582
    60.1400       540
    60.1600       496
    60.1800       526
    60.2000       464
    60.2200       478
    60.2400       504
    60.2600       454
    60.2800       442
    60.3000       432
    60.3200       446
    60.3400       456
    60.3600       442
    60.3800       406
    60.4000       388
    60.4200       366
    60.4400       362
    60.4600       384
    60.4800       398
    60.5000       372
    60.5200       358
    60.5400       374
    60.5600       390
    60.5800       406
    60.6000       396
    60.6200       376
    60.6400       352
    60.6600       366
    60.6800       338
    60.7000       328
    60.7200       382
    60.7400       380
    60.7600       408
    60.7800       402
    60.8000       418
    60.8200       378
    60.8400       410
    60.8600       420
    60.8800       396
    60.9000       440
    60.9200       466
    60.9400       452
    60.9600       472
    60.9800       524
    61.0000       498
    61.0200       518
    61.0400       580
    61.0600       580
    61.0800       628
    61.1000       644
    61.1200       646
    61.1400       698
    61.1600       690
    61.1800       686
    61.2000       742
    61.2200       744
    61.2400       742
    61.2600       800
    61.2800       786
    61.3000       796
    61.3200       824
    61.3400       868
    61.3600       938
    61.3800       904
    61.4000       920
    61.4200       974
    61.4400      1072
    61.4600      1096
    61.4800      1176
    61.5000      1152
    61.5200      1220
    61.5400      1306
    61.5600      1366
    61.5800      1470
    61.6000      1550
    61.6200      1524
    61.6400      1618
    61.6600      1706
    61.6800      1724
    61.7000      1640
    61.7200      1602
    61.7400      1522
    61.7600      1548
    61.7800      1480
    61.8000      1346
    61.8200      1338
    61.8400      1238
    61.8600      1202
    61.8800      1136
    61.9000      1062
    61.9200      1052
    61.9400       980
    61.9600       900
    61.9800       858
    62.0000       786
    62.0200       774
    62.0400       740
    62.0600       708
    62.0800       656
    62.1000       600
    62.1200       684
    62.1400       606
    62.1600       646
    62.1800       600
    62.2000       612
    62.2200       570
    62.2400       532
    62.2600       520
    62.2800       514
    62.3000       504
    62.3200       554
    62.3400       492
    62.3600       516
    62.3800       514
    62.4000       488
    62.4200       440
    62.4400       458
    62.4600       480
    62.4800       416
    62.5000       400
    62.5200       418
    62.5400       418
    62.5600       414
    62.5800       428
    62.6000       378
    62.6200       454
    62.6400       416
    62.6600       416
    62.6800       434
    62.7000       430
    62.7200       426
    62.7400       448
    62.7600       386
    62.7800       436
    62.8000       370
    62.8200       386
    62.8400       372
    62.8600       388
    62.8800       366
    62.9000       364
    62.9200       344
    62.9400       340
    62.9600       330
    62.9800       324
    63.0000       328
    63.0200       332
    63.0400       310
    63.0600       298
    63.0800       310
    63.1000       308
    63.1200       288
    63.1400       298
    63.1600       286
    63.1800       302
    63.2000       284
    63.2200       288
    63.2400       270
    63.2600       258
    63.2800       272
    63.3000       282
    63.3200       320
    63.3400       312
    63.3600       302
    63.3800       298
    63.4000       292
    63.4200       288
    63.4400       304
    63.4600       290
    63.4800       366
    63.5000       314
    63.5200       304
    63.5400       362
    63.5600       356
    63.5800       380
    63.6000       400
    63.6200       410
    63.6400       408
    63.6600       446
    63.6800       452
    63.7000       520
    63.7200       504
    63.7400       560
    63.7600       560
    63.7800       630
    63.8000       618
    63.8200       712
    63.8400       768
    63.8600       790
    63.8800       822
    63.9000       846
    63.9200       892
    63.9400       886
    63.9600       880
    63.9800       876
    64.0000       882
    64.0200       822
    64.0400       822
    64.0600       744
    64.0800       770
    64.1000       720
    64.1200       724
    64.1400       684
    64.1600       686
    64.1800       662
    64.2000       548
    64.2200       562
    64.2400       548
    64.2600       484
    64.2800       430
    64.3000       464
    64.3200       412
    64.3400       414
    64.3600       374
    64.3800       382
    64.4000       376
    64.4200       342
    64.4400       340
    64.4600       354
    64.4800       316
    64.5000       312
    64.5200       298
    64.5400       300
    64.5600       278
    64.5800       284
    64.6000       282
    64.6200       282
    64.6400       274
    64.6600       242
    64.6800       272
    64.7000       246
    64.7200       288
    64.7400       264
    64.7600       292
    64.7800       256
    64.8000       256
    64.8200       258
    64.8400       282
    64.8600       256
    64.8800       264
    64.9000       292
    64.9200       276
    64.9400       274
    64.9600       256
    64.9800       306
    65.0000       296
    65.0200       306
    65.0400       322
    65.0600       284
    65.0800       332
    65.1000       338
    65.1200       360
    65.1400       352
    65.1600       384
    65.1800       408
    65.2000       392
    65.2200       420
    65.2400       402
    65.2600       410
    65.2800       392
    65.3000       426
    65.3200       424
    65.3400       442
    65.3600       424
    65.3800       462
    65.4000       440
    65.4200       444
    65.4400       412
    65.4600       424
    65.4800       440
    65.5000       402
    65.5200       426
    65.5400       396
    65.5600       376
    65.5800       444
    65.6000       398
    65.6200       406
    65.6400       386
    65.6600       378
    65.6800       416
    65.7000       386
    65.7200       406
    65.7400       342
    65.7600       364
    65.7800       350
    65.8000       368
    65.8200       386
    65.8400       336
    65.8600       326
    65.8800       320
    65.9000       306
    65.9200       302
    65.9400       328
    65.9600       280
    65.9800       308
    66.0000       266
    66.0200       260
    66.0400       266
    66.0600       268
    66.0800       292
    66.1000       276
    66.1200       280
    66.1400       244
    66.1600       266
    66.1800       270
    66.2000       286
    66.2200       270
    66.2400       282
    66.2600       294
    66.2800       260
    66.3000       292
    66.3200       290
    66.3400       298
    66.3600       276
    66.3800       282
    66.4000       270
    66.4200       318
    66.4400       314
    66.4600       312
    66.4800       314
    66.5000       334
    66.5200       360
    66.5400       358
    66.5600       362
    66.5800       374
    66.6000       378
    66.6200       352
    66.6400       402
    66.6600       438
    66.6800       398
    66.7000       454
    66.7200       418
    66.7400       454
    66.7600       482
    66.7800       514
    66.8000       508
    66.8200       520
    66.8400       558
    66.8600       610
    66.8800       664
    66.9000       650
    66.9200       716
    66.9400       700
    66.9600       696
    66.9800       714
    67.0000       704
    67.0200       740
    67.0400       718
    67.0600       668
    67.0800       666
    67.1000       710
    67.1200       644
    67.1400       624
    67.1600       580
    67.1800       570
    67.2000       554
    67.2200       512
    67.2400       532
    67.2600       478
    67.2800       502
    67.3000       496
    67.3200       410
    67.3400       420
    67.3600       394
    67.3800       380
    67.4000       370
    67.4200       378
    67.4400       354
    67.4600       356
    67.4800       324
    67.5000       350
    67.5200       332
    67.5400       310
    67.5600       314
    67.5800       286
    67.6000       344
    67.6200       312
    67.6400       320
    67.6600       288
    67.6800       332
    67.7000       312
    67.7200       316
    67.7400       330
    67.7600       320
    67.7800       354
    67.8000       344
    67.8200       338
    67.8400       380
    67.8600       364
    67.8800       434
    67.9000       386
    67.9200       436
    67.9400       496
    67.9600       470
    67.9800       488
    68.0000       512
    68.0200       602
    68.0400       582
    68.0600       636
    68.0800       658
    68.1000       678
    68.1200       770
    68.1400       782
    68.1600       828
    68.1800       838
    68.2000       798
    68.2200       762
    68.2400       826
    68.2600       846
    68.2800       844
    68.3000       842
    68.3200       798
    68.3400       900
    68.3600       810
    68.3800       784
    68.4000       768
    68.4200       774
    68.4400       690
    68.4600       726
    68.4800       674
    68.5000       646
    68.5200       612
    68.5400       570
    68.5600       536
    68.5800       558
    68.6000       526
    68.6200       536
    68.6400       498
    68.6600       492
    68.6800       452
    68.7000       496
    68.7200       494
    68.7400       404
    68.7600       438
    68.7800       420
    68.8000       390
    68.8200       376
    68.8400       450
    68.8600       384
    68.8800       368
    68.9000       396
    68.9200       406
    68.9400       372
    68.9600       336
    68.9800       366
    69.0000       376
    69.0200       338
    69.0400       396
    69.0600       332
    69.0800       364
    69.1000       380
    69.1200       384
    69.1400       394
    69.1600       366
    69.1800       390
    69.2000       452
    69.2200       476
    69.2400       428
    69.2600       458
    69.2800       476
    69.3000       474
    69.3200       438
    69.3400       480
    69.3600       498
    69.3800       502
    69.4000       512
    69.4200       564
    69.4400       522
    69.4600       506
    69.4800       498
    69.5000       470
    69.5200       530
    69.5400       468
    69.5600       456
    69.5800       496
    69.6000       424
    69.6200       464
    69.6400       452
    69.6600       434
    69.6800       434
    69.7000       434
    69.7200       430
    69.7400       400
    69.7600       442
    69.7800       430
    69.8000       444
    69.8200       414
    69.8400       428
    69.8600       446
    69.8800       434
    69.9000       430
    69.9200       460
    69.9400       448
    69.9600       448
    69.9800       442
    70.0000       446
    70.0200       434
    70.0400       436
    70.0600       408
    70.0800       428
    70.1000       424
    70.1200       404
    70.1400       392
    70.1600       380
    70.1800       364
    70.2000       340
    70.2200       358
    70.2400       348
    70.2600       318
    70.2800       302
    70.3000       306
    70.3200       292
    70.3400       286
    70.3600       296
    70.3800       292
    70.4000       272
    70.4200       270
    70.4400       260
    70.4600       268
    70.4800       256
    70.5000       298
    70.5200       288
    70.5400       272
    70.5600       270
    70.5800       274
    70.6000       252
    70.6200       290
    70.6400       248
    70.6600       246
    70.6800       256
    70.7000       282
    70.7200       272
    70.7400       256
    70.7600       234
    70.7800       252
    70.8000       260
    70.8200       250
    70.8400       226
    70.8600       214
    70.8800       232
    70.9000       242
    70.9200       220
    70.9400       214
    70.9600       258
    70.9800       204
    71.0000       236
    71.0200       246
    71.0400       260
    71.0600       238
    71.0800       236
    71.1000       240
    71.1200       244
    71.1400       270
    71.1600       276
    71.1800       272
    71.2000       232
    71.2200       296
    71.2400       264
    71.2600       266
    71.2800       266
    71.3000       310
    71.3200       330
    71.3400       340
    71.3600       340
    71.3800       376
    71.4000       370
    71.4200       412
    71.4400       418
    71.4600       472
    71.4800       450
    71.5000       476
    71.5200       474
    71.5400       446
    71.5600       502
    71.5800       456
    71.6000       546
    71.6200       478
    71.6400       568
    71.6600       466
    71.6800       482
    71.7000       498
    71.7200       510
    71.7400       526
    71.7600       516
    71.7800       478
    71.8000       440
    71.8200       436
    71.8400       474
    71.8600       446
    71.8800       434
    71.9000       426
    71.9200       406
    71.9400       442
    71.9600       396
    71.9800       410
    72.0000       388
    72.0200       404
    72.0400       396
    72.0600       398
    72.0800       384
    72.1000       416
    72.1200       390
    72.1400       380
    72.1600       396
    72.1800       426
    72.2000       452
    72.2200       480
    72.2400       394
    72.2600       458
    72.2800       464
    72.3000       490
    72.3200       452
    72.3400       496
    72.3600       520
    72.3800       498
    72.4000       492
    72.4200       536
    72.4400       546
    72.4600       550
    72.4800       522
    72.5000       528
    72.5200       538
    72.5400       634
    72.5600       596
    72.5800       602
    72.6000       654
    72.6200       634
    72.6400       660
    72.6600       698
    72.6800       640
    72.7000       666
    72.7200       612
    72.7400       626
    72.7600       638
    72.7800       692
    72.8000       630
    72.8200       640
    72.8400       590
    72.8600       598
    72.8800       596
    72.9000       558
    72.9200       584
    72.9400       562
    72.9600       564
    72.9800       476
    73.0000       538
    73.0200       470
    73.0400       540
    73.0600       464
    73.0800       438
    73.1000       482
    73.1200       422
    73.1400       432
    73.1600       386
    73.1800       414
    73.2000       364
    73.2200       362
    73.2400       358
    73.2600       362
    73.2800       334
    73.3000       334
    73.3200       342
    73.3400       310
    73.3600       332
    73.3800       310
    73.4000       320
    73.4200       312
    73.4400       298
    73.4600       282
    73.4800       260
    73.5000       268
    73.5200       272
    73.5400       280
    73.5600       250
    73.5800       284
    73.6000       272
    73.6200       266
    73.6400       264
    73.6600       288
    73.6800       258
    73.7000       260
    73.7200       240
    73.7400       280
    73.7600       284
    73.7800       254
    73.8000       254
    73.8200       254
    73.8400       284
    73.8600       276
    73.8800       272
    73.9000       282
    73.9200       274
    73.9400       264
    73.9600       268
    73.9800       288
    74.0000       280
    74.0200       274
    74.0400       240
    74.0600       276
    74.0800       278
    74.1000       312
    74.1200       288
    74.1400       300
    74.1600       316
    74.1800       274
    74.2000       302
    74.2200       272
    74.2400       276
    74.2600       268
    74.2800       256
    74.3000       264
    74.3200       256
    74.3400       236
    74.3600       260
    74.3800       260
    74.4000       244
    74.4200       242
    74.4400       244
    74.4600       214
    74.4800       246
    74.5000       222
    74.5200       216
    74.5400       208
    74.5600       242
    74.5800       204
    74.6000       198
    74.6200       212
    74.6400       204
    74.6600       174
    74.6800       198
    74.7000       190
    74.7200       198
    74.7400       210
    74.7600       206
    74.7800       180
    74.8000       190
    74.8200       200
    74.8400       198
    74.8600       202
    74.8800       200
    74.9000       226
    74.9200       214
    74.9400       194
    74.9600       206
    74.9800       216
    75.0000       214
    75.0200       202
    75.0400       202
    75.0600       212
    75.0800       224
    75.1000       226
    75.1200       222
    75.1400       248
    75.1600       210
    75.1800       234
    75.2000       236
    75.2200       242
    75.2400       236
    75.2600       240
    75.2800       254
    75.3000       232
    75.3200       260
    75.3400       256
    75.3600       238
    75.3800       262
    75.4000       250
    75.4200       254
    75.4400       260
    75.4600       266
    75.4800       262
    75.5000       268
    75.5200       272
    75.5400       272
    75.5600       284
    75.5800       272
    75.6000       280
    75.6200       258
    75.6400       266
    75.6600       242
    75.6800       284
    75.7000       272
    75.7200       252
    75.7400       314
    75.7600       316
    75.7800       260
    75.8000       290
    75.8200       288
    75.8400       248
    75.8600       262
    75.8800       284
    75.9000       280
    75.9200       258
    75.9400       264
    75.9600       272
    75.9800       260
    76.0000       294
    76.0200       260
    76.0400       258
    76.0600       282
    76.0800       248
    76.1000       250
    76.1200       304
    76.1400       280
    76.1600       256
    76.1800       256
    76.2000       282
    76.2200       268
    76.2400       288
    76.2600       278
    76.2800       282
    76.3000       298
    76.3200       310
    76.3400       322
    76.3600       306
    76.3800       334
    76.4000       302
    76.4200       304
    76.4400       354
    76.4600       340
    76.4800       326
    76.5000       362
    76.5200       334
    76.5400       360
    76.5600       378
    76.5800       368
    76.6000       396
    76.6200       398
    76.6400       404
    76.6600       396
    76.6800       418
    76.7000       400
    76.7200       414
    76.7400       450
    76.7600       432
    76.7800       416
    76.8000       412
    76.8200       408
    76.8400       418
    76.8600       410
    76.8800       340
    76.9000       352
    76.9200       410
    76.9400       362
    76.9600       392
    76.9800       386
    77.0000       340
    77.0200       382
    77.0400       390
    77.0600       360
    77.0800       352
    77.1000       348
    77.1200       352
    77.1400       344
    77.1600       362
    77.1800       352
    77.2000       396
    77.2200       352
    77.2400       388
    77.2600       372
    77.2800       408
    77.3000       388
    77.3200       408
    77.3400       430
    77.3600       390
    77.3800       432
    77.4000       416
    77.4200       446
    77.4400       406
    77.4600       450
    77.4800       462
    77.5000       470
    77.5200       524
    77.5400       534
    77.5600       568
    77.5800       568
    77.6000       604
    77.6200       622
    77.6400       616
    77.6600       620
    77.6800       632
    77.7000       658
    77.7200       702
    77.7400       682
    77.7600       628
    77.7800       626
    77.8000       648
    77.8200       606
    77.8400       630
    77.8600       634
    77.8800       570
    77.9000       586
    77.9200       522
    77.9400       546
    77.9600       490
    77.9800       472
    78.0000       522
    78.0200       502
    78.0400       436
    78.0600       436
    78.0800       396
    78.1000       422
    78.1200       420
    78.1400       392
    78.1600       372
    78.1800       390
    78.2000       342
    78.2200       372
    78.2400       336
    78.2600       332
    78.2800       330
    78.3000       336
    78.3200       316
    78.3400       324
    78.3600       352
    78.3800       336
    78.4000       332
    78.4200       342
    78.4400       338
    78.4600       384
    78.4800       346
    78.5000       390
    78.5200       380
    78.5400       384
    78.5600       350
    78.5800       404
    78.6000       370
    78.6200       426
    78.6400       396
    78.6600       442
    78.6800       396
    78.7000       404
    78.7200       406
    78.7400       424
    78.7600       404
    78.7800       462
    78.8000       428
    78.8200       368
    78.8400       398
    78.8600       406
    78.8800       372
    78.9000       388
    78.9200       350
    78.9400       344
    78.9600       344
    78.9800       360
    79.0000       348
    79.0200       314
    79.0400       330
    79.0600       338
    79.0800       350
    79.1000       294
    79.1200       336
    79.1400       322
    79.1600       272
    79.1800       326
    79.2000       280
    79.2200       336
    79.2400       244
    79.2600       244
    79.2800       290
    79.3000       288
    79.3200       274
    79.3400       256
    79.3600       272
    79.3800       270
    79.4000       282
    79.4200       252
    79.4400       250
    79.4600       248
    79.4800       252
    79.5000       254
    79.5200       266
    79.5400       256
    79.5600       252
    79.5800       282
    79.6000       242
    79.6200       254
    79.6400       264
    79.6600       274
    79.6800       266
    79.7000       256
    79.7200       228
    79.7400       264
    79.7600       260
    79.7800       236
    79.8000       274
    79.8200       236
    79.8400       254
    79.8600       254
    79.8800       260
    79.9000       258
    79.9200       260
    79.9400       252
    79.9600       266
    79.9800       232
    80.0000       246
    80.0200       234
    80.0400       230
    80.0600       248
    80.0800       248
    80.1000       276
    80.1200       242
    80.1400       246
    80.1600       266
    80.1800       250
    80.2000       248
    80.2200       276
    80.2400       254
    80.2600       276
    80.2800       266
    80.3000       266
    80.3200       300
    80.3400       284
    80.3600       234
    80.3800       282
    80.4000       286
    80.4200       266
    80.4400       286
    80.4600       266
    80.4800       266
    80.5000       278
    80.5200       312
    80.5400       302
    80.5600       310
    80.5800       270
    80.6000       282
    80.6200       272
    80.6400       296
    80.6600       274
    80.6800       290
    80.7000       250
    80.7200       258
    80.7400       244
    80.7600       272
    80.7800       246
    80.8000       272
    80.8200       270
    80.8400       276
    80.8600       232
    80.8800       248
    80.9000       250
    80.9200       220
    80.9400       230
    80.9600       222
    80.9800       224
    81.0000       228
    81.0200       224
    81.0400       258
    81.0600       230
    81.0800       220
    81.1000       220
    81.1200       244
    81.1400       222
    81.1600       240
    81.1800       244
    81.2000       252
    81.2200       216
    81.2400       220
    81.2600       244
    81.2800       248
    81.3000       240
    81.3200       196
    81.3400       258
    81.3600       248
    81.3800       282
    81.4000       234
    81.4200       262
    81.4400       286
    81.4600       264
    81.4800       260
    81.5000       272
    81.5200       236
    81.5400       268
    81.5600       278
    81.5800       244
    81.6000       256
    81.6200       244
    81.6400       256
    81.6600       282
    81.6800       278
    81.7000       268
    81.7200       248
    81.7400       296
    81.7600       278
    81.7800       306
    81.8000       276
    81.8200       276
    81.8400       302
    81.8600       316
    81.8800       298
    81.9000       284
    81.9200       320
    81.9400       308
    81.9600       308
    81.9800       326
    82.0000       310
    82.0200       324
    82.0400       358
    82.0600       370
    82.0800       380
    82.1000       330
    82.1200       358
    82.1400       332
    82.1600       312
    82.1800       362
    82.2000       380
    82.2200       362
    82.2400       338
    82.2600       376
    82.2800       392
    82.3000       410
    82.3200       394
    82.3400       418
    82.3600       396
    82.3800       416
    82.4000       446
    82.4200       450
    82.4400       406
    82.4600       394
    82.4800       442
    82.5000       496
    82.5200       474
    82.5400       458
    82.5600       478
    82.5800       466
    82.6000       506
    82.6200       514
    82.6400       522
    82.6600       552
    82.6800       600
    82.7000       592
    82.7200       632
    82.7400       576
    82.7600       628
    82.7800       664
    82.8000       700
    82.8200       740
    82.8400       708
    82.8600       806
    82.8800       830
    82.9000       880
    82.9200       862
    82.9400       808
    82.9600       892
    82.9800       818
    83.0000       780
    83.0200       762
    83.0400       828
    83.0600       768
    83.0800       782
    83.1000       760
    83.1200       750
    83.1400       704
    83.1600       724
    83.1800       666
    83.2000       674
    83.2200       682
    83.2400       674
    83.2600       612
    83.2800       600
    83.3000       526
    83.3200       554
    83.3400       492
    83.3600       520
    83.3800       518
    83.4000       518
    83.4200       516
    83.4400       462
    83.4600       464
    83.4800       436
    83.5000       416
    83.5200       414
    83.5400       410
    83.5600       394
    83.5800       350
    83.6000       388
    83.6200       342
    83.6400       358
    83.6600       324
    83.6800       366
    83.7000       332
    83.7200       364
    83.7400       320
    83.7600       340
    83.7800       330
    83.8000       310
    83.8200       314
    83.8400       294
    83.8600       324
    83.8800       362
    83.9000       292
    83.9200       312
    83.9400       292
    83.9600       312
    83.9800       332
    84.0000       300
    84.0200       346
    84.0400       310
    84.0600       360
    84.0800       328
    84.1000       314
    84.1200       330
    84.1400       308
    84.1600       320
    84.1800       340
    84.2000       302
    84.2200       296
    84.2400       332
    84.2600       308
    84.2800       306
    84.3000       334
    84.3200       358
    84.3400       314
    84.3600       330
    84.3800       334
    84.4000       336
    84.4200       332
    84.4400       324
    84.4600       302
    84.4800       304
    84.5000       286
    84.5200       286
    84.5400       346
    84.5600       296
    84.5800       304
    84.6000       326
    84.6200       318
    84.6400       302
    84.6600       300
    84.6800       308
    84.7000       302
    84.7200       328
    84.7400       296
    84.7600       304
    84.7800       272
    84.8000       288
    84.8200       302
    84.8400       308
    84.8600       264
    84.8800       302
    84.9000       312
    84.9200       308
    84.9400       282
    84.9600       270
    84.9800       274
    85.0000       256
    85.0200       242
    85.0400       272
    85.0600       294
    85.0800       298
    85.1000       276
    85.1200       282
    85.1400       266
    85.1600       322
    85.1800       300
    85.2000       262
    85.2200       250
    85.2400       296
    85.2600       260
    85.2800       260
    85.3000       274
    85.3200       296
    85.3400       268
    85.3600       252
    85.3800       258
    85.4000       296
    85.4200       256
    85.4400       244
    85.4600       272
    85.4800       276
    85.5000       296
    85.5200       286
    85.5400       312
    85.5600       290
    85.5800       308
    85.6000       278
    85.6200       264
    85.6400       326
    85.6600       286
    85.6800       292
    85.7000       300
    85.7200       270
    85.7400       292
    85.7600       268
    85.7800       284
    85.8000       302
    85.8200       302
    85.8400       256
    85.8600       272
    85.8800       294
    85.9000       264
    85.9200       266
    85.9400       288
    85.9600       272
    85.9800       230
    86.0000       258
    86.0200       266
    86.0400       242
    86.0600       240
    86.0800       264
    86.1000       248
    86.1200       260
    86.1400       240
    86.1600       252
    86.1800       242
    86.2000       258
    86.2200       254
    86.2400       232
    86.2600       270
    86.2800       252
    86.3000       274
    86.3200       210
    86.3400       268
    86.3600       282
    86.3800       250
    86.4000       220
    86.4200       258
    86.4400       262
    86.4600       258
    86.4800       268
    86.5000       252
    86.5200       258
    86.5400       274
    86.5600       276
    86.5800       262
    86.6000       314
    86.6200       264
    86.6400       290
    86.6600       296
    86.6800       282
    86.7000       340
    86.7200       278
    86.7400       294
    86.7600       340
    86.7800       336
    86.8000       318
    86.8200       372
    86.8400       400
    86.8600       394
    86.8800       380
    86.9000       360
    86.9200       372
    86.9400       432
    86.9600       418
    86.9800       396
    87.0000       402
    87.0200       362
    87.0400       410
    87.0600       426
    87.0800       406
    87.1000       390
    87.1200       392
    87.1400       362
    87.1600       380
    87.1800       394
    87.2000       406
    87.2200       372
    87.2400       334
    87.2600       360
    87.2800       356
    87.3000       316
    87.3200       324
    87.3400       350
    87.3600       358
    87.3800       350
    87.4000       346
    87.4200       306
    87.4400       314
    87.4600       312
    87.4800       366
    87.5000       296
    87.5200       328
    87.5400       330
    87.5600       330
    87.5800       354
    87.6000       346
    87.6200       360
    87.6400       344
    87.6600       332
    87.6800       374
    87.7000       374
    87.7200       352
    87.7400       380
    87.7600       398
    87.7800       408
    87.8000       396
    87.8200       414
    87.8400       436
    87.8600       456
    87.8800       448
    87.9000       460
    87.9200       472
    87.9400       446
    87.9600       452
    87.9800       450
    88.0000       468
    88.0200       460
    88.0400       470
    88.0600       428
    88.0800       432
    88.1000       440
    88.1200       452
    88.1400       478
    88.1600       486
    88.1800       452
    88.2000       442
    88.2200       442
    88.2400       444
    88.2600       428
    88.2800       412
    88.3000       396
    88.3200       436
    88.3400       400
    88.3600       424
    88.3800       406
    88.4000       432
    88.4200       408
    88.4400       414
    88.4600       394
    88.4800       402
    88.5000       422
    88.5200       398
    88.5400       410
    88.5600       384
    88.5800       374
    88.6000       340
    88.6200       338
    88.6400       326
    88.6600       338
    88.6800       364
    88.7000       296
    88.7200       332
    88.7400       334
    88.7600       320
    88.7800       318
    88.8000       276
    88.8200       348
    88.8400       306
    88.8600       300
    88.8800       286
    88.9000       282
    88.9200       258
    88.9400       266
    88.9600       262
    88.9800       280
    89.0000       302
    89.0200       280
    89.0400       252
    89.0600       266
    89.0800       268
    89.1000       278
    89.1200       260
    89.1400       244
    89.1600       254
    89.1800       264
    89.2000       272
    89.2200       270
    89.2400       240
    89.2600       254
    89.2800       226
    89.3000       232
    89.3200       246
    89.3400       238
    89.3600       246
    89.3800       260
    89.4000       250
    89.4200       258
    89.4400       256
    89.4600       288
    89.4800       242
    89.5000       258
    89.5200       252
    89.5400       272
    89.5600       270
    89.5800       286
    89.6000       260
    89.6200       272
    89.6400       278
    89.6600       252
    89.6800       288
    89.7000       254
    89.7200       290
    89.7400       258
    89.7600       256
    89.7800       296
    89.8000       272
    89.8200       294
    89.8400       300
    89.8600       326
    89.8800       312
    89.9000       296
    89.9200       312
    89.9400       302
    89.9600       328
    89.9800       308
    90.0000       296
