    10.0000       356
    10.0200       378
    10.0400       384
    10.0600       354
    10.0800       356
    10.1000       386
    10.1200       380
    10.1400       396
    10.1600       348
    10.1800       374
    10.2000       352
    10.2200       350
    10.2400       414
    10.2600       368
    10.2800       334
    10.3000       384
    10.3200       370
    10.3400       378
    10.3600       390
    10.3800       398
    10.4000       338
    10.4200       320
    10.4400       324
    10.4600       338
    10.4800       332
    10.5000       336
    10.5200       348
    10.5400       362
    10.5600       354
    10.5800       376
    10.6000       342
    10.6200       386
    10.6400       338
    10.6600       324
    10.6800       388
    10.7000       328
    10.7200       354
    10.7400       328
    10.7600       350
    10.7800       368
    10.8000       374
    10.8200       372
    10.8400       362
    10.8600       320
    10.8800       358
    10.9000       352
    10.9200       344
    10.9400       340
    10.9600       338
    10.9800       362
    11.0000       370
    11.0200       376
    11.0400       326
    11.0600       360
    11.0800       350
    11.1000       348
    11.1200       346
    11.1400       348
    11.1600       316
    11.1800       320
    11.2000       350
    11.2200       354
    11.2400       326
    11.2600       346
    11.2800       354
    11.3000       346
    11.3200       350
    11.3400       318
    11.3600       356
    11.3800       372
    11.4000       358
    11.4200       336
    11.4400       302
    11.4600       348
    11.4800       350
    11.5000       334
    11.5200       332
    11.5400       340
    11.5600       318
    11.5800       338
    11.6000       326
    11.6200       324
    11.6400       350
    11.6600       330
    11.6800       338
    11.7000       376
    11.7200       338
    11.7400       374
    11.7600       344
    11.7800       328
    11.8000       370
    11.8200       356
    11.8400       398
    11.8600       386
    11.8800       380
    11.9000       426
    11.9200       416
    11.9400       392
    11.9600       418
    11.9800       420
    12.0000       438
    12.0200       412
    12.0400       454
    12.0600       458
    12.0800       530
    12.1000       556
    12.1200       588
    12.1400       618
    12.1600       658
    12.1800       696
    12.2000       670
    12.2200       644
    12.2400       556
    12.2600       550
    12.2800       538
    12.3000       436
    12.3200       394
    12.3400       366
    12.3600       356
    12.3800       314
    12.4000       330
    12.4200       354
    12.4400       314
    12.4600       332
    12.4800       328
    12.5000       346
    12.5200       316
    12.5400       336
    12.5600       318
    12.5800       302
    12.6000       306
    12.6200       300
    12.6400       318
    12.6600       318
    12.6800       310
    12.7000       296
    12.7200       300
    12.7400       320
    12.7600       300
    12.7800       288
    12.8000       338
    12.8200       304
    12.8400       304
    12.8600       310
    12.8800       300
    12.9000       300
    12.9200       310
    12.9400       294
    12.9600       288
    12.9800       306
    13.0000       282
    13.0200       322
    13.0400       322
    13.0600       282
    13.0800       302
    13.1000       306
    13.1200       286
    13.1400       304
    13.1600       304
    13.1800       302
    13.2000       308
    13.2200       260
    13.2400       262
    13.2600       312
    13.2800       286
    13.3000       276
    13.3200       308
    13.3400       284
    13.3600       282
    13.3800       290
    13.4000       282
    13.4200       268
    13.4400       286
    13.4600       294
    13.4800       328
    13.5000       244
    13.5200       274
    13.5400       292
    13.5600       264
    13.5800       270
    13.6000       274
    13.6200       290
    13.6400       284
    13.6600       302
    13.6800       306
    13.7000       272
    13.7200       262
    13.7400       276
    13.7600       252
    13.7800       286
    13.8000       274
    13.8200       318
    13.8400       276
    13.8600       256
    13.8800       274
    13.9000       290
    13.9200       278
    13.9400       284
    13.9600       280
    13.9800       268
    14.0000       280
    14.0200       292
    14.0400       308
    14.0600       268
    14.0800       272
    14.1000       306
    14.1200       270
    14.1400       294
    14.1600       278
    14.1800       286
    14.2000       260
    14.2200       296
    14.2400       262
    14.2600       280
    14.2800       264
    14.3000       274
    14.3200       292
    14.3400       284
    14.3600       290
    14.3800       288
    14.4000       290
    14.4200       272
    14.4400       310
    14.4600       304
    14.4800       294
    14.5000       292
    14.5200       306
    14.5400       290
    14.5600       302
    14.5800       294
    14.6000       326
    14.6200       320
    14.6400       312
    14.6600       306
    14.6800       328
    14.7000       348
    14.7200       356
    14.7400       374
    14.7600       396
    14.7800       408
    14.8000       410
    14.8200       404
    14.8400       460
    14.8600       482
    14.8800       480
    14.9000       560
    14.9200       602
    14.9400       666
    14.9600       704
    14.9800       738
    15.0000       794
    15.0200       836
    15.0400       928
    15.0600      1024
    15.0800      1130
    15.1000      1102
    15.1200      1224
    15.1400      1260
    15.1600      1414
    15.1800      1498
    15.2000      1404
    15.2200      1352
    15.2400      1186
    15.2600       946
    15.2800       900
    15.3000       664
    15.3200       536
    15.3400       490
    15.3600       460
    15.3800       370
    15.4000       406
    15.4200       360
    15.4400       378
    15.4600       360
    15.4800       346
    15.5000       306
    15.5200       324
    15.5400       320
    15.5600       300
    15.5800       318
    15.6000       308
    15.6200       288
    15.6400       326
    15.6600       282
    15.6800       294
    15.7000       298
    15.7200       308
    15.7400       262
    15.7600       296
    15.7800       262
    15.8000       254
    15.8200       274
    15.8400       282
    15.8600       294
    15.8800       264
    15.9000       302
    15.9200       306
    15.9400       286
    15.9600       282
    15.9800       294
    16.0000       298
    16.0200       318
    16.0400       318
    16.0600       330
    16.0800       314
    16.1000       290
    16.1200       342
    16.1400       314
    16.1600       342
    16.1800       368
    16.2000       354
    16.2200       364
    16.2400       374
    16.2600       390
    16.2800       398
    16.3000       408
    16.3200       400
    16.3400       374
    16.3600       352
    16.3800       396
    16.4000       352
    16.4200       354
    16.4400       362
    16.4600       346
    16.4800       356
    16.5000       362
    16.5200       334
    16.5400       382
    16.5600       364
    16.5800       386
    16.6000       392
    16.6200       382
    16.6400       466
    16.6600       454
    16.6800       428
    16.7000       476
    16.7200       516
    16.7400       570
    16.7600       598
    16.7800       620
    16.8000       682
    16.8200       704
    16.8400       798
    16.8600       916
    16.8800      1018
    16.9000      1082
    16.9200      1254
    16.9400      1420
    16.9600      1608
    16.9800      1782
    17.0000      2050
    17.0200      2266
    17.0400      2292
    17.0600      2362
    17.0800      2190
    17.1000      1918
    17.1200      1642
    17.1400      1400
    17.1600      1220
    17.1800      1074
    17.2000      1046
    17.2200       960
    17.2400       886
    17.2600       884
    17.2800       848
    17.3000       800
    17.3200       702
    17.3400       714
    17.3600       616
    17.3800       646
    17.4000       596
    17.4200       588
    17.4400       596
    17.4600       532
    17.4800       552
    17.5000       508
    17.5200       538
    17.5400       506
    17.5600       502
    17.5800       486
    17.6000       496
    17.6200       552
    17.6400       570
    17.6600       556
    17.6800       636
    17.7000       624
    17.7200       660
    17.7400       734
    17.7600       726
    17.7800       812
    17.8000       818
    17.8200       824
    17.8400       758
    17.8600       722
    17.8800       604
    17.9000       546
    17.9200       482
    17.9400       402
    17.9600       380
    17.9800       338
    18.0000       326
    18.0200       308
    18.0400       302
    18.0600       322
    18.0800       288
    18.1000       248
    18.1200       268
    18.1400       260
    18.1600       288
    18.1800       260
    18.2000       266
    18.2200       250
    18.2400       264
    18.2600       258
    18.2800       258
    18.3000       250
    18.3200       260
    18.3400       264
    18.3600       252
    18.3800       236
    18.4000       292
    18.4200       232
    18.4400       244
    18.4600       244
    18.4800       236
    18.5000       266
    18.5200       244
    18.5400       248
    18.5600       244
    18.5800       256
    18.6000       242
    18.6200       256
    18.6400       226
    18.6600       252
    18.6800       252
    18.7000       290
    18.7200       272
    18.7400       252
    18.7600       282
    18.7800       268
    18.8000       270
    18.8200       262
    18.8400       268
    18.8600       298
    18.8800       300
    18.9000       268
    18.9200       298
    18.9400       308
    18.9600       326
    18.9800       310
    19.0000       296
    19.0200       346
    19.0400       326
    19.0600       350
    19.0800       350
    19.1000       338
    19.1200       372
    19.1400       378
    19.1600       436
    19.1800       402
    19.2000       398
    19.2200       508
    19.2400       532
    19.2600       566
    19.2800       624
    19.3000       644
    19.3200       706
    19.3400       850
    19.3600       888
    19.3800       962
    19.4000      1100
    19.4200      1350
    19.4400      1462
    19.4600      1654
    19.4800      1828
    19.5000      1964
    19.5200      2252
    19.5400      2262
    19.5600      2148
    19.5800      1934
    19.6000      1608
    19.6200      1424
    19.6400      1196
    19.6600      1046
    19.6800       928
    19.7000       802
    19.7200       784
    19.7400       770
    19.7600       834
    19.7800       860
    19.8000       870
    19.8200       990
    19.8400      1060
    19.8600      1120
    19.8800      1234
    19.9000      1468
    19.9200      1560
    19.9400      1702
    19.9600      1686
    19.9800      1708
    20.0000      1564
    20.0200      1430
    20.0400      1236
    20.0600      1114
    20.0800       888
    20.1000       728
    20.1200       602
    20.1400       528
    20.1600       446
    20.1800       400
    20.2000       384
    20.2200       400
    20.2400       372
    20.2600       334
    20.2800       302
    20.3000       338
    20.3200       290
    20.3400       326
    20.3600       290
    20.3800       298
    20.4000       286
    20.4200       266
    20.4400       294
    20.4600       270
    20.4800       264
    20.5000       280
    20.5200       278
    20.5400       286
    20.5600       242
    20.5800       260
    20.6000       258
    20.6200       266
    20.6400       250
    20.6600       300
    20.6800       250
    20.7000       292
    20.7200       260
    20.7400       286
    20.7600       300
    20.7800       306
    20.8000       350
    20.8200       384
    20.8400       420
    20.8600       384
    20.8800       404
    20.9000       434
    20.9200       452
    20.9400       534
    20.9600       576
    20.9800       570
    21.0000       690
    21.0200       748
    21.0400       790
    21.0600       948
    21.0800      1020
    21.1000      1202
    21.1200      1324
    21.1400      1428
    21.1600      1566
    21.1800      1638
    21.2000      1758
    21.2200      1696
    21.2400      1626
    21.2600      1490
    21.2800      1368
    21.3000      1230
    21.3200      1038
    21.3400       890
    21.3600       762
    21.3800       622
    21.4000       526
    21.4200       470
    21.4400       434
    21.4600       412
    21.4800       378
    21.5000       320
    21.5200       322
    21.5400       330
    21.5600       302
    21.5800       264
    21.6000       298
    21.6200       270
    21.6400       264
    21.6600       268
    21.6800       286
    21.7000       270
    21.7200       238
    21.7400       242
    21.7600       258
    21.7800       274
    21.8000       210
    21.8200       248
    21.8400       248
    21.8600       232
    21.8800       254
    21.9000       258
    21.9200       240
    21.9400       236
    21.9600       258
    21.9800       278
    22.0000       260
    22.0200       250
    22.0400       248
    22.0600       224
    22.0800       234
    22.1000       246
    22.1200       258
    22.1400       246
    22.1600       222
    22.1800       240
    22.2000       260
    22.2200       272
    22.2400       226
    22.2600       280
    22.2800       264
    22.3000       292
    22.3200       280
    22.3400       280
    22.3600       344
    22.3800       306
    22.4000       344
    22.4200       354
    22.4400       358
    22.4600       414
    22.4800       414
    22.5000       424
    22.5200       466
    22.5400       538
    22.5600       588
    22.5800       634
    22.6000       708
    22.6200       836
    22.6400       904
    22.6600       998
    22.6800      1148
    22.7000      1390
    22.7200      1568
    22.7400      1762
    22.7600      2070
    22.7800      2346
    22.8000      2566
    22.8200      2878
    22.8400      3096
    22.8600      2936
    22.8800      2888
    22.9000      2588
    22.9200      2174
    22.9400      1856
    22.9600      1482
    22.9800      1252
    23.0000      1000
    23.0200       824
    23.0400       740
    23.0600       622
    23.0800       584
    23.1000       548
    23.1200       484
    23.1400       444
    23.1600       452
    23.1800       404
    23.2000       390
    23.2200       362
    23.2400       340
    23.2600       378
    23.2800       302
    23.3000       318
    23.3200       294
    23.3400       262
    23.3600       324
    23.3800       276
    23.4000       280
    23.4200       282
    23.4400       290
    23.4600       236
    23.4800       270
    23.5000       258
    23.5200       276
    23.5400       246
    23.5600       254
    23.5800       260
    23.6000       246
    23.6200       246
    23.6400       250
    23.6600       246
    23.6800       242
    23.7000       262
    23.7200       258
    23.7400       268
    23.7600       244
    23.7800       246
    23.8000       272
    23.8200       260
    23.8400       230
    23.8600       226
    23.8800       260
    23.9000       250
    23.9200       276
    23.9400       264
    23.9600       256
    23.9800       292
    24.0000       242
    24.0200       262
    24.0400       284
    24.0600       294
    24.0800       270
    24.1000       304
    24.1200       264
    24.1400       272
    24.1600       318
    24.1800       328
    24.2000       312
    24.2200       366
    24.2400       342
    24.2600       392
    24.2800       436
    24.3000       436
    24.3200       468
    24.3400       548
    24.3600       570
    24.3800       636
    24.4000       708
    24.4200       822
    24.4400       834
    24.4600       992
    24.4800      1002
    24.5000      1022
    24.5200      1068
    24.5400      1182
    24.5600      1162
    24.5800      1162
    24.6000      1090
    24.6200      1056
    24.6400       958
    24.6600       900
    24.6800       898
    24.7000       838
    24.7200       820
    24.7400       812
    24.7600       762
    24.7800       692
    24.8000       714
    24.8200       620
    24.8400       610
    24.8600       622
    24.8800       572
    24.9000       530
    24.9200       564
    24.9400       542
    24.9600       578
    24.9800       570
    25.0000       596
    25.0200       578
    25.0400       602
    25.0600       656
    25.0800       604
    25.1000       694
    25.1200       648
    25.1400       690
    25.1600       776
    25.1800       900
    25.2000       940
    25.2200      1048
    25.2400      1098
    25.2600      1180
    25.2800      1278
    25.3000      1284
    25.3200      1224
    25.3400      1208
    25.3600      1140
    25.3800      1000
    25.4000       908
    25.4200       892
    25.4400       780
    25.4600       772
    25.4800       772
    25.5000       782
    25.5200       838
    25.5400       840
    25.5600       892
    25.5800       936
    25.6000       886
    25.6200       854
    25.6400       814
    25.6600       680
    25.6800       658
    25.7000       588
    25.7200       554
    25.7400       480
    25.7600       438
    25.7800       430
    25.8000       422
    25.8200       406
    25.8400       394
    25.8600       398
    25.8800       376
    25.9000       354
    25.9200       324
    25.9400       336
    25.9600       312
    25.9800       326
    26.0000       308
    26.0200       326
    26.0400       336
    26.0600       318
    26.0800       290
    26.1000       278
    26.1200       284
    26.1400       264
    26.1600       288
    26.1800       296
    26.2000       276
    26.2200       264
    26.2400       258
    26.2600       264
    26.2800       284
    26.3000       274
    26.3200       270
    26.3400       306
    26.3600       284
    26.3800       296
    26.4000       294
    26.4200       252
    26.4400       274
    26.4600       324
    26.4800       314
    26.5000       290
    26.5200       304
    26.5400       292
    26.5600       288
    26.5800       294
    26.6000       316
    26.6200       266
    26.6400       318
    26.6600       320
    26.6800       284
    26.7000       278
    26.7200       264
    26.7400       286
    26.7600       298
    26.7800       296
    26.8000       260
    26.8200       274
    26.8400       270
    26.8600       270
    26.8800       284
    26.9000       232
    26.9200       264
    26.9400       252
    26.9600       282
    26.9800       286
    27.0000       278
    27.0200       300
    27.0400       276
    27.0600       314
    27.0800       320
    27.1000       330
    27.1200       320
    27.1400       348
    27.1600       388
    27.1800       438
    27.2000       412
    27.2200       440
    27.2400       474
    27.2600       482
    27.2800       538
    27.3000       662
    27.3200       670
    27.3400       738
    27.3600       764
    27.3800       870
    27.4000       886
    27.4200      1034
    27.4400      1090
    27.4600      1062
    27.4800      1164
    27.5000      1046
    27.5200      1108
    27.5400      1020
    27.5600       966
    27.5800       850
    27.6000       862
    27.6200       802
    27.6400       726
    27.6600       612
    27.6800       588
    27.7000       554
    27.7200       464
    27.7400       436
    27.7600       418
    27.7800       374
    27.8000       344
    27.8200       344
    27.8400       360
    27.8600       318
    27.8800       338
    27.9000       318
    27.9200       310
    27.9400       328
    27.9600       308
    27.9800       276
    28.0000       310
    28.0200       300
    28.0400       290
    28.0600       332
    28.0800       314
    28.1000       304
    28.1200       238
    28.1400       290
    28.1600       322
    28.1800       300
    28.2000       294
    28.2200       316
    28.2400       330
    28.2600       300
    28.2800       296
    28.3000       312
    28.3200       340
    28.3400       338
    28.3600       328
    28.3800       364
    28.4000       348
    28.4200       316
    28.4400       320
    28.4600       310
    28.4800       320
    28.5000       326
    28.5200       340
    28.5400       364
    28.5600       338
    28.5800       384
    28.6000       394
    28.6200       368
    28.6400       400
    28.6600       414
    28.6800       390
    28.7000       406
    28.7200       454
    28.7400       448
    28.7600       454
    28.7800       446
    28.8000       400
    28.8200       364
    28.8400       378
    28.8600       364
    28.8800       392
    28.9000       324
    28.9200       356
    28.9400       376
    28.9600       326
    28.9800       338
    29.0000       352
    29.0200       348
    29.0400       316
    29.0600       328
    29.0800       304
    29.1000       350
    29.1200       338
    29.1400       350
    29.1600       350
    29.1800       380
    29.2000       416
    29.2200       372
    29.2400       378
    29.2600       400
    29.2800       424
    29.3000       434
    29.3200       432
    29.3400       536
    29.3600       500
    29.3800       554
    29.4000       590
    29.4200       610
    29.4400       652
    29.4600       702
    29.4800       712
    29.5000       800
    29.5200       866
    29.5400       900
    29.5600       998
    29.5800      1056
    29.6000      1076
    29.6200      1208
    29.6400      1226
    29.6600      1184
    29.6800      1214
    29.7000      1118
    29.7200      1028
    29.7400       978
    29.7600       902
    29.7800       832
    29.8000       786
    29.8200       750
    29.8400       740
    29.8600       706
    29.8800       780
    29.9000       762
    29.9200       780
    29.9400       828
    29.9600       874
    29.9800       918
    30.0000       974
    30.0200      1106
    30.0400      1184
    30.0600      1398
    30.0800      1476
    30.1000      1656
    30.1200      1872
    30.1400      1918
    30.1600      2038
    30.1800      2092
    30.2000      2216
    30.2200      2212
    30.2400      2276
    30.2600      2298
    30.2800      2230
    30.3000      2224
    30.3200      2134
    30.3400      2168
    30.3600      2202
    30.3800      2192
    30.4000      2218
    30.4200      2346
    30.4400      2540
    30.4600      2690
    30.4800      2936
    30.5000      3162
    30.5200      3534
    30.5400      4000
    30.5600      4326
    30.5800      4754
    30.6000      5118
    30.6200      5808
    30.6400      6168
    30.6600      6400
    30.6800      6392
    30.7000      6214
    30.7200      5838
    30.7400      5108
    30.7600      4546
    30.7800      3950
    30.8000      3500
    30.8200      2936
    30.8400      2492
    30.8600      2086
    30.8800      1888
    30.9000      1638
    30.9200      1530
    30.9400      1396
    30.9600      1332
    30.9800      1226
    31.0000      1126
    31.0200      1172
    31.0400      1028
    31.0600       960
    31.0800       942
    31.1000       822
    31.1200       814
    31.1400       790
    31.1600       764
    31.1800       740
    31.2000       696
    31.2200       646
    31.2400       646
    31.2600       596
    31.2800       562
    31.3000       544
    31.3200       524
    31.3400       562
    31.3600       542
    31.3800       476
    31.4000       488
    31.4200       426
    31.4400       476
    31.4600       452
    31.4800       426
    31.5000       428
    31.5200       414
    31.5400       424
    31.5600       458
    31.5800       450
    31.6000       442
    31.6200       434
    31.6400       446
    31.6600       500
    31.6800       508
    31.7000       540
    31.7200       556
    31.7400       572
    31.7600       634
    31.7800       670
    31.8000       736
    31.8200       798
    31.8400       888
    31.8600       998
    31.8800      1104
    31.9000      1198
    31.9200      1358
    31.9400      1436
    31.9600      1632
    31.9800      1726
    32.0000      1702
    32.0200      1694
    32.0400      1516
    32.0600      1494
    32.0800      1388
    32.1000      1242
    32.1200      1210
    32.1400      1154
    32.1600      1092
    32.1800      1036
    32.2000      1086
    32.2200      1132
    32.2400      1130
    32.2600      1276
    32.2800      1332
    32.3000      1408
    32.3200      1612
    32.3400      1882
    32.3600      2194
    32.3800      2320
    32.4000      2736
    32.4200      3038
    32.4400      3558
    32.4600      3958
    32.4800      4472
    32.5000      4874
    32.5200      5042
    32.5400      5332
    32.5600      5132
    32.5800      5076
    32.6000      4726
    32.6200      4434
    32.6400      3932
    32.6600      3434
    32.6800      3018
    32.7000      2630
    32.7200      2216
    32.7400      1908
    32.7600      1676
    32.7800      1500
    32.8000      1362
    32.8200      1190
    32.8400      1226
    32.8600      1186
    32.8800      1088
    32.9000      1046
    32.9200      1016
    32.9400      1024
    32.9600      1068
    32.9800      1080
    33.0000      1120
    33.0200      1176
    33.0400      1188
    33.0600      1238
    33.0800      1222
    33.1000      1178
    33.1200      1040
    33.1400      1082
    33.1600       926
    33.1800       886
    33.2000       778
    33.2200       660
    33.2400       620
    33.2600       600
    33.2800       510
    33.3000       500
    33.3200       472
    33.3400       402
    33.3600       400
    33.3800       390
    33.4000       358
    33.4200       326
    33.4400       342
    33.4600       324
    33.4800       298
    33.5000       310
    33.5200       334
    33.5400       272
    33.5600       304
    33.5800       320
    33.6000       288
    33.6200       286
    33.6400       292
    33.6600       248
    33.6800       270
    33.7000       294
    33.7200       220
    33.7400       298
    33.7600       262
    33.7800       240
    33.8000       262
    33.8200       284
    33.8400       224
    33.8600       284
    33.8800       250
    33.9000       246
    33.9200       258
    33.9400       228
    33.9600       230
    33.9800       286
    34.0000       236
    34.0200       276
    34.0400       276
    34.0600       306
    34.0800       248
    34.1000       280
    34.1200       258
    34.1400       270
    34.1600       300
    34.1800       268
    34.2000       312
    34.2200       294
    34.2400       346
    34.2600       344
    34.2800       314
    34.3000       350
    34.3200       392
    34.3400       414
    34.3600       408
    34.3800       440
    34.4000       494
    34.4200       510
    34.4400       530
    34.4600       606
    34.4800       650
    34.5000       654
    34.5200       648
    34.5400       628
    34.5600       618
    34.5800       588
    34.6000       542
    34.6200       542
    34.6400       488
    34.6600       450
    34.6800       440
    34.7000       426
    34.7200       394
    34.7400       374
    34.7600       394
    34.7800       366
    34.8000       384
    34.8200       356
    34.8400       380
    34.8600       362
    34.8800       388
    34.9000       342
    34.9200       330
    34.9400       340
    34.9600       342
    34.9800       358
    35.0000       360
    35.0200       332
    35.0400       316
    35.0600       314
    35.0800       320
    35.1000       324
    35.1200       304
    35.1400       340
    35.1600       300
    35.1800       324
    35.2000       296
    35.2200       316
    35.2400       306
    35.2600       270
    35.2800       278
    35.3000       292
    35.3200       278
    35.3400       258
    35.3600       324
    35.3800       294
    35.4000       282
    35.4200       262
    35.4400       300
    35.4600       302
    35.4800       312
    35.5000       286
    35.5200       322
    35.5400       300
    35.5600       306
    35.5800       334
    35.6000       316
    35.6200       338
    35.6400       376
    35.6600       346
    35.6800       354
    35.7000       354
    35.7200       380
    35.7400       372
    35.7600       396
    35.7800       394
    35.8000       424
    35.8200       408
    35.8400       440
    35.8600       476
    35.8800       472
    35.9000       484
    35.9200       524
    35.9400       590
    35.9600       608
    35.9800       626
    36.0000       724
    36.0200       744
    36.0400       818
    36.0600       884
    36.0800       904
    36.1000       952
    36.1200       948
    36.1400       910
    36.1600       896
    36.1800       884
    36.2000       768
    36.2200       740
    36.2400       748
    36.2600       656
    36.2800       598
    36.3000       578
    36.3200       502
    36.3400       436
    36.3600       450
    36.3800       430
    36.4000       446
    36.4200       398
    36.4400       434
    36.4600       438
    36.4800       450
    36.5000       436
    36.5200       434
    36.5400       524
    36.5600       468
    36.5800       496
    36.6000       534
    36.6200       546
    36.6400       570
    36.6600       612
    36.6800       710
    36.7000       718
    36.7200       750
    36.7400       874
    36.7600       964
    36.7800      1020
    36.8000      1150
    36.8200      1306
    36.8400      1336
    36.8600      1422
    36.8800      1470
    36.9000      1442
    36.9200      1406
    36.9400      1344
    36.9600      1326
    36.9800      1194
    37.0000      1090
    37.0200      1090
    37.0400       980
    37.0600       952
    37.0800       988
    37.1000       902
    37.1200       870
    37.1400       824
    37.1600       830
    37.1800       826
    37.2000       850
    37.2200       824
    37.2400       744
    37.2600       762
    37.2800       752
    37.3000       748
    37.3200       662
    37.3400       632
    37.3600       604
    37.3800       614
    37.4000       578
    37.4200       560
    37.4400       582
    37.4600       540
    37.4800       538
    37.5000       550
    37.5200       556
    37.5400       592
    37.5600       572
    37.5800       556
    37.6000       566
    37.6200       542
    37.6400       622
    37.6600       574
    37.6800       584
    37.7000       636
    37.7200       666
    37.7400       692
    37.7600       660
    37.7800       722
    37.8000       766
    37.8200       780
    37.8400       892
    37.8600       974
    37.8800      1014
    37.9000      1094
    37.9200      1210
    37.9400      1342
    37.9600      1414
    37.9800      1484
    38.0000      1656
    38.0200      1624
    38.0400      1612
    38.0600      1632
    38.0800      1562
    38.1000      1496
    38.1200      1554
    38.1400      1480
    38.1600      1518
    38.1800      1488
    38.2000      1452
    38.2200      1488
    38.2400      1584
    38.2600      1716
    38.2800      1752
    38.3000      1888
    38.3200      2012
    38.3400      2278
    38.3600      2564
    38.3800      2806
    38.4000      3062
    38.4200      3314
    38.4400      3718
    38.4600      3804
    38.4800      3964
    38.5000      4268
    38.5200      4444
    38.5400      4606
    38.5600      4732
    38.5800      4922
    38.6000      5002
    38.6200      5162
    38.6400      5194
    38.6600      5082
    38.6800      5078
    38.7000      4870
    38.7200      4616
    38.7400      4254
    38.7600      4084
    38.7800      3738
    38.8000      3274
    38.8200      2946
    38.8400      2636
    38.8600      2292
    38.8800      2206
    38.9000      2034
    38.9200      1768
    38.9400      1576
    38.9600      1564
    38.9800      1506
    39.0000      1408
    39.0200      1304
    39.0400      1384
    39.0600      1222
    39.0800      1312
    39.1000      1316
    39.1200      1240
    39.1400      1300
    39.1600      1280
    39.1800      1238
    39.2000      1320
    39.2200      1284
    39.2400      1316
    39.2600      1314
    39.2800      1378
    39.3000      1312
    39.3200      1276
    39.3400      1380
    39.3600      1426
    39.3800      1284
    39.4000      1294
    39.4200      1324
    39.4400      1200
    39.4600      1280
    39.4800      1272
    39.5000      1204
    39.5200      1332
    39.5400      1302
    39.5600      1352
    39.5800      1400
    39.6000      1474
    39.6200      1524
    39.6400      1612
    39.6600      1738
    39.6800      1704
    39.7000      1726
    39.7200      1730
    39.7400      1598
    39.7600      1548
    39.7800      1402
    39.8000      1370
    39.8200      1272
    39.8400      1118
    39.8600      1074
    39.8800      1018
    39.9000       908
    39.9200       920
    39.9400       790
    39.9600       824
    39.9800       838
    40.0000       786
    40.0200       886
    40.0400       828
    40.0600       826
    40.0800       824
    40.1000       876
    40.1200       882
    40.1400       904
    40.1600       956
    40.1800      1050
    40.2000       938
    40.2200       976
    40.2400      1016
    40.2600       956
    40.2800       954
    40.3000      1042
    40.3200      1016
    40.3400       972
    40.3600      1090
    40.3800      1094
    40.4000      1224
    40.4200      1310
    40.4400      1316
    40.4600      1360
    40.4800      1462
    40.5000      1462
    40.5200      1590
    40.5400      1656
    40.5600      1546
    40.5800      1566
    40.6000      1512
    40.6200      1480
    40.6400      1426
    40.6600      1338
    40.6800      1206
    40.7000      1174
    40.7200      1084
    40.7400       982
    40.7600       962
    40.7800       930
    40.8000       812
    40.8200       794
    40.8400       722
    40.8600       732
    40.8800       750
    40.9000       704
    40.9200       722
    40.9400       702
    40.9600       708
    40.9800       774
    41.0000       810
    41.0200       768
    41.0400       832
    41.0600       876
    41.0800       910
    41.1000       972
    41.1200       990
    41.1400      1042
    41.1600      1220
    41.1800      1350
    41.2000      1368
    41.2200      1468
    41.2400      1590
    41.2600      1608
    41.2800      1676
    41.3000      1676
    41.3200      1816
    41.3400      1808
    41.3600      1850
    41.3800      1894
    41.4000      1900
    41.4200      1968
    41.4400      2022
    41.4600      1936
    41.4800      2002
    41.5000      1888
    41.5200      1858
    41.5400      1720
    41.5600      1656
    41.5800      1552
    41.6000      1438
    41.6200      1394
    41.6400      1348
    41.6600      1248
    41.6800      1180
    41.7000      1166
    41.7200      1134
    41.7400      1126
    41.7600      1192
    41.7800      1222
    41.8000      1234
    41.8200      1318
    41.8400      1324
    41.8600      1390
    41.8800      1334
    41.9000      1326
    41.9200      1340
    41.9400      1326
    41.9600      1234
    41.9800      1064
    42.0000      1122
    42.0200       968
    42.0400       930
    42.0600       888
    42.0800       736
    42.1000       738
    42.1200       658
    42.1400       646
    42.1600       626
    42.1800       616
    42.2000       540
    42.2200       544
    42.2400       502
    42.2600       492
    42.2800       478
    42.3000       492
    42.3200       472
    42.3400       412
    42.3600       424
    42.3800       452
    42.4000       462
    42.4200       434
    42.4400       386
    42.4600       420
    42.4800       396
    42.5000       410
    42.5200       414
    42.5400       424
    42.5600       416
    42.5800       394
    42.6000       416
    42.6200       400
    42.6400       402
    42.6600       396
    42.6800       442
    42.7000       454
    42.7200       392
    42.7400       452
    42.7600       424
    42.7800       450
    42.8000       454
    42.8200       470
    42.8400       476
    42.8600       510
    42.8800       498
    42.9000       532
    42.9200       528
    42.9400       606
    42.9600       592
    42.9800       614
    43.0000       738
    43.0200       708
    43.0400       808
    43.0600       868
    43.0800       988
    43.1000      1064
    43.1200      1136
    43.1400      1188
    43.1600      1348
    43.1800      1328
    43.2000      1342
    43.2200      1348
    43.2400      1298
    43.2600      1304
    43.2800      1192
    43.3000      1084
    43.3200      1040
    43.3400       988
    43.3600       920
    43.3800       842
    43.4000       786
    43.4200       716
    43.4400       622
    43.4600       596
    43.4800       626
    43.5000       612
    43.5200       538
    43.5400       528
    43.5600       544
    43.5800       502
    43.6000       464
    43.6200       534
    43.6400       490
    43.6600       532
    43.6800       546
    43.7000       550
    43.7200       590
    43.7400       548
    43.7600       572
    43.7800       600
    43.8000       652
    43.8200       620
    43.8400       556
    43.8600       628
    43.8800       546
    43.9000       596
    43.9200       588
    43.9400       522
    43.9600       534
    43.9800       546
    44.0000       494
    44.0200       468
    44.0400       504
    44.0600       450
    44.0800       482
    44.1000       510
    44.1200       456
    44.1400       486
    44.1600       460
    44.1800       452
    44.2000       492
    44.2200       494
    44.2400       494
    44.2600       532
    44.2800       520
    44.3000       526
    44.3200       520
    44.3400       534
    44.3600       508
    44.3800       550
    44.4000       554
    44.4200       506
    44.4400       576
    44.4600       526
    44.4800       476
    44.5000       558
    44.5200       562
    44.5400       588
    44.5600       542
    44.5800       582
    44.6000       560
    44.6200       600
    44.6400       648
    44.6600       678
    44.6800       684
    44.7000       700
    44.7200       720
    44.7400       784
    44.7600       758
    44.7800       802
    44.8000       882
    44.8200       932
    44.8400       970
    44.8600       990
    44.8800      1086
    44.9000      1164
    44.9200      1268
    44.9400      1306
    44.9600      1456
    44.9800      1512
    45.0000      1618
    45.0200      1768
    45.0400      1820
    45.0600      1858
    45.0800      1984
    45.1000      2148
    45.1200      1870
    45.1400      2092
    45.1600      2102
    45.1800      2198
    45.2000      2218
    45.2200      2284
    45.2400      2112
    45.2600      2162
    45.2800      2154
    45.3000      2022
    45.3200      2024
    45.3400      1878
    45.3600      1862
    45.3800      1722
    45.4000      1650
    45.4200      1684
    45.4400      1572
    45.4600      1598
    45.4800      1474
    45.5000      1448
    45.5200      1432
    45.5400      1274
    45.5600      1244
    45.5800      1154
    45.6000      1152
    45.6200      1092
    45.6400       998
    45.6600       972
    45.6800       956
    45.7000       896
    45.7200       854
    45.7400       852
    45.7600       864
    45.7800       856
    45.8000       844
    45.8200       850
    45.8400       792
    45.8600       772
    45.8800       778
    45.9000       786
    45.9200       742
    45.9400       786
    45.9600       758
    45.9800       774
    46.0000       784
    46.0200       748
    46.0400       712
    46.0600       744
    46.0800       772
    46.1000       830
    46.1200       816
    46.1400       826
    46.1600       802
    46.1800       840
    46.2000       828
    46.2200       892
    46.2400       888
    46.2600       952
    46.2800      1010
    46.3000      1108
    46.3200      1156
    46.3400      1210
    46.3600      1350
    46.3800      1438
    46.4000      1494
    46.4200      1682
    46.4400      1798
    46.4600      1928
    46.4800      2218
    46.5000      2414
    46.5200      2620
    46.5400      3096
    46.5600      3268
    46.5800      3578
    46.6000      4006
    46.6200      4204
    46.6400      4680
    46.6600      5162
    46.6800      5328
    46.7000      5170
    46.7200      5130
    46.7400      5170
    46.7600      4938
    46.7800      4530
    46.8000      4338
    46.8200      3862
    46.8400      3758
    46.8600      3244
    46.8800      2840
    46.9000      2480
    46.9200      2142
    46.9400      2020
    46.9600      1696
    46.9800      1508
    47.0000      1420
    47.0200      1242
    47.0400      1118
    47.0600      1090
    47.0800      1034
    47.1000       974
    47.1200       886
    47.1400       830
    47.1600       748
    47.1800       730
    47.2000       724
    47.2200       678
    47.2400       590
    47.2600       614
    47.2800       612
    47.3000       554
    47.3200       534
    47.3400       558
    47.3600       558
    47.3800       548
    47.4000       534
    47.4200       516
    47.4400       546
    47.4600       496
    47.4800       480
    47.5000       504
    47.5200       498
    47.5400       480
    47.5600       490
    47.5800       494
    47.6000       482
    47.6200       520
    47.6400       500
    47.6600       498
    47.6800       562
    47.7000       528
    47.7200       538
    47.7400       552
    47.7600       664
    47.7800       606
    47.8000       640
    47.8200       670
    47.8400       686
    47.8600       668
    47.8800       598
    47.9000       694
    47.9200       680
    47.9400       630
    47.9600       654
    47.9800       620
    48.0000       538
    48.0200       650
    48.0400       624
    48.0600       644
    48.0800       628
    48.1000       618
    48.1200       652
    48.1400       656
    48.1600       760
    48.1800       770
    48.2000       734
    48.2200       772
    48.2400       742
    48.2600       722
    48.2800       760
    48.3000       806
    48.3200       738
    48.3400       748
    48.3600       764
    48.3800       816
    48.4000       834
    48.4200       842
    48.4400       862
    48.4600       856
    48.4800       920
    48.5000       908
    48.5200       952
    48.5400       974
    48.5600       994
    48.5800      1044
    48.6000       984
    48.6200      1030
    48.6400      1038
    48.6600      1012
    48.6800       982
    48.7000       978
    48.7200       942
    48.7400       898
    48.7600       930
    48.7800       846
    48.8000       746
    48.8200       728
    48.8400       716
    48.8600       696
    48.8800       626
    48.9000       598
    48.9200       580
    48.9400       576
    48.9600       600
    48.9800       506
    49.0000       548
    49.0200       454
    49.0400       458
    49.0600       452
    49.0800       452
    49.1000       432
    49.1200       432
    49.1400       406
    49.1600       384
    49.1800       358
    49.2000       392
    49.2200       380
    49.2400       376
    49.2600       360
    49.2800       352
    49.3000       380
    49.3200       358
    49.3400       368
    49.3600       332
    49.3800       366
    49.4000       330
    49.4200       356
    49.4400       320
    49.4600       314
    49.4800       334
    49.5000       376
    49.5200       352
    49.5400       314
    49.5600       386
    49.5800       348
    49.6000       360
    49.6200       394
    49.6400       372
    49.6600       354
    49.6800       360
    49.7000       392
    49.7200       388
    49.7400       386
    49.7600       376
    49.7800       406
    49.8000       426
    49.8200       412
    49.8400       418
    49.8600       448
    49.8800       438
    49.9000       452
    49.9200       478
    49.9400       494
    49.9600       546
    49.9800       512
    50.0000       530
    50.0200       582
    50.0400       626
    50.0600       684
    50.0800       678
    50.1000       708
    50.1200       790
    50.1400       792
    50.1600       848
    50.1800       946
    50.2000       986
    50.2200      1020
    50.2400      1050
    50.2600      1146
    50.2800      1198
    50.3000      1266
    50.3200      1226
    50.3400      1216
    50.3600      1246
    50.3800      1294
    50.4000      1222
    50.4200      1292
    50.4400      1304
    50.4600      1334
    50.4800      1262
    50.5000      1330
    50.5200      1342
    50.5400      1322
    50.5600      1268
    50.5800      1318
    50.6000      1426
    50.6200      1410
    50.6400      1520
    50.6600      1532
    50.6800      1576
    50.7000      1654
    50.7200      1868
    50.7400      1872
    50.7600      1928
    50.7800      1990
    50.8000      2024
    50.8200      2072
    50.8400      2068
    50.8600      1988
    50.8800      1906
    50.9000      1848
    50.9200      1820
    50.9400      1746
    50.9600      1600
    50.9800      1536
    51.0000      1458
    51.0200      1352
    51.0400      1248
    51.0600      1176
    51.0800      1182
    51.1000      1102
    51.1200      1060
    51.1400      1002
    51.1600       958
    51.1800       910
    51.2000       936
    51.2200      1030
    51.2400       898
    51.2600       956
    51.2800       932
    51.3000       964
    51.3200       940
    51.3400       892
    51.3600       958
    51.3800       952
    51.4000       890
    51.4200       966
    51.4400       920
    51.4600       938
    51.4800       950
    51.5000       872
    51.5200       922
    51.5400       848
    51.5600       884
    51.5800       954
    51.6000       908
    51.6200       960
    51.6400       946
    51.6600      1024
    51.6800      1042
    51.7000      1090
    51.7200      1100
    51.7400      1140
    51.7600      1268
    51.7800      1376
    51.8000      1442
    51.8200      1498
    51.8400      1524
    51.8600      1648
    51.8800      1732
    51.9000      1844
    51.9200      1972
    51.9400      1990
    51.9600      1952
    51.9800      1958
    52.0000      1984
    52.0200      1850
    52.0400      1914
    52.0600      1760
    52.0800      1646
    52.1000      1510
    52.1200      1452
    52.1400      1346
    52.1600      1322
    52.1800      1178
    52.2000      1066
    52.2200      1050
    52.2400      1006
    52.2600       920
    52.2800       874
    52.3000       926
    52.3200       876
    52.3400       858
    52.3600       854
    52.3800       798
    52.4000       866
    52.4200       880
    52.4400       948
    52.4600       944
    52.4800      1018
    52.5000      1064
    52.5200      1114
    52.5400      1108
    52.5600      1072
    52.5800      1186
    52.6000      1158
    52.6200      1190
    52.6400      1250
    52.6600      1158
    52.6800      1248
    52.7000      1150
    52.7200      1226
    52.7400      1156
    52.7600      1126
    52.7800      1152
    52.8000      1070
    52.8200       990
    52.8400       966
    52.8600       962
    52.8800       904
    52.9000       898
    52.9200       846
    52.9400       822
    52.9600       774
    52.9800       810
    53.0000       756
    53.0200       810
    53.0400       834
    53.0600       846
    53.0800       872
    53.1000       884
    53.1200       948
    53.1400       964
    53.1600       996
    53.1800      1042
    53.2000      1074
    53.2200      1108
    53.2400      1230
    53.2600      1140
    53.2800      1258
    53.3000      1224
    53.3200      1278
    53.3400      1188
    53.3600      1076
    53.3800      1050
    53.4000      1012
    53.4200      1044
    53.4400       902
    53.4600       894
    53.4800       834
    53.5000       802
    53.5200       782
    53.5400       736
    53.5600       708
    53.5800       640
    53.6000       650
    53.6200       674
    53.6400       642
    53.6600       610
    53.6800       642
    53.7000       596
    53.7200       608
    53.7400       616
    53.7600       594
    53.7800       592
    53.8000       622
    53.8200       594
    53.8400       548
    53.8600       520
    53.8800       510
    53.9000       556
    53.9200       556
    53.9400       578
    53.9600       550
    53.9800       536
    54.0000       538
    54.0200       530
    54.0400       504
    54.0600       540
    54.0800       534
    54.1000       526
    54.1200       538
    54.1400       538
    54.1600       596
    54.1800       608
    54.2000       612
    54.2200       658
    54.2400       654
    54.2600       646
    54.2800       654
    54.3000       686
    54.3200       692
    54.3400       742
    54.3600       708
    54.3800       758
    54.4000       804
    54.4200       784
    54.4400       746
    54.4600       844
    54.4800       844
    54.5000       834
    54.5200       854
    54.5400       876
    54.5600       836
    54.5800       832
    54.6000       798
    54.6200       870
    54.6400       848
    54.6600       798
    54.6800       816
    54.7000       832
    54.7200       844
    54.7400       796
    54.7600       828
    54.7800       834
    54.8000       718
    54.8200       832
    54.8400       790
    54.8600       758
    54.8800       776
    54.9000       772
    54.9200       762
    54.9400       786
    54.9600       804
    54.9800       776
    55.0000       830
    55.0200       834
    55.0400       886
    55.0600       904
    55.0800       870
    55.1000       884
    55.1200       896
    55.1400       922
    55.1600       938
    55.1800       984
    55.2000       918
    55.2200       962
    55.2400       940
    55.2600       916
    55.2800       908
    55.3000       884
    55.3200       846
    55.3400       876
    55.3600       800
    55.3800       804
    55.4000       750
    55.4200       780
    55.4400       732
    55.4600       734
    55.4800       700
    55.5000       586
    55.5200       580
    55.5400       610
    55.5600       548
    55.5800       530
    55.6000       530
    55.6200       512
    55.6400       496
    55.6600       454
    55.6800       450
    55.7000       442
    55.7200       426
    55.7400       410
    55.7600       408
    55.7800       380
    55.8000       388
    55.8200       390
    55.8400       366
    55.8600       406
    55.8800       356
    55.9000       338
    55.9200       346
    55.9400       372
    55.9600       352
    55.9800       312
    56.0000       374
    56.0200       356
    56.0400       360
    56.0600       332
    56.0800       378
    56.1000       346
    56.1200       308
    56.1400       362
    56.1600       348
    56.1800       342
    56.2000       354
    56.2200       374
    56.2400       330
    56.2600       352
    56.2800       360
    56.3000       366
    56.3200       376
    56.3400       372
    56.3600       364
    56.3800       396
    56.4000       410
    56.4200       434
    56.4400       358
    56.4600       416
    56.4800       414
    56.5000       470
    56.5200       406
    56.5400       460
    56.5600       478
    56.5800       506
    56.6000       478
    56.6200       530
    56.6400       554
    56.6600       554
    56.6800       552
    56.7000       628
    56.7200       620
    56.7400       666
    56.7600       662
    56.7800       664
    56.8000       670
    56.8200       702
    56.8400       646
    56.8600       622
    56.8800       644
    56.9000       582
    56.9200       590
    56.9400       624
    56.9600       578
    56.9800       592
    57.0000       570
    57.0200       596
    57.0400       588
    57.0600       586
    57.0800       600
    57.1000       556
    57.1200       678
    57.1400       638
    57.1600       700
    57.1800       690
    57.2000       782
    57.2200       796
    57.2400       836
    57.2600       928
    57.2800      1028
    57.3000      1016
    57.3200      1164
    57.3400      1082
    57.3600      1150
    57.3800      1216
    57.4000      1194
    57.4200      1174
    57.4400      1148
    57.4600      1142
    57.4800      1186
    57.5000      1176
    57.5200      1168
    57.5400      1082
    57.5600      1056
    57.5800      1068
    57.6000      1008
    57.6200      1042
    57.6400      1098
    57.6600      1192
    57.6800      1148
    57.7000      1184
    57.7200      1168
    57.7400      1120
    57.7600      1118
    57.7800      1128
    57.8000      1072
    57.8200      1016
    57.8400      1030
    57.8600      1040
    57.8800       946
    57.9000       942
    57.9200       862
    57.9400       924
    57.9600       784
    57.9800       784
    58.0000       780
    58.0200       756
    58.0400       748
    58.0600       734
    58.0800       712
    58.1000       696
    58.1200       726
    58.1400       728
    58.1600       740
    58.1800       764
    58.2000       786
    58.2200       822
    58.2400       818
    58.2600       850
    58.2800       940
    58.3000       956
    58.3200      1018
    58.3400      1088
    58.3600      1088
    58.3800      1208
    58.4000      1234
    58.4200      1240
    58.4400      1424
    58.4600      1464
    58.4800      1508
    58.5000      1592
    58.5200      1688
    58.5400      1694
    58.5600      1760
    58.5800      1708
    58.6000      1854
    58.6200      1982
    58.6400      1998
    58.6600      2066
    58.6800      2142
    58.7000      2170
    58.7200      2184
    58.7400      2114
    58.7600      2108
    58.7800      2050
    58.8000      2068
    58.8200      2026
    58.8400      1952
    58.8600      1796
    58.8800      1728
    58.9000      1618
    58.9200      1670
    58.9400      1506
    58.9600      1426
    58.9800      1356
    59.0000      1260
    59.0200      1258
    59.0400      1178
    59.0600      1030
    59.0800      1068
    59.1000      1056
    59.1200      1056
    59.1400       980
    59.1600       978
    59.1800       986
    59.2000      1050
    59.2200      1088
    59.2400      1046
    59.2600      1134
    59.2800      1110
    59.3000      1242
    59.3200      1308
    59.3400      1380
    59.3600      1364
    59.3800      1440
    59.4000      1526
    59.4200      1558
    59.4400      1540
    59.4600      1616
    59.4800      1620
    59.5000      1500
    59.5200      1530
    59.5400      1496
    59.5600      1494
    59.5800      1400
    59.6000      1394
    59.6200      1392
    59.6400      1342
    59.6600      1274
    59.6800      1252
    59.7000      1270
    59.7200      1102
    59.7400      1098
    59.7600      1120
    59.7800      1092
    59.8000      1020
    59.8200       978
    59.8400       968
    59.8600       932
    59.8800       890
    59.9000       832
    59.9200       862
    59.9400       814
    59.9600       818
    59.9800       846
    60.0000       814
    60.0200       736
    60.0400       772
    60.0600       684
    60.0800       616
    60.1000       680
    60.1200       604
    60.1400       602
    60.1600       584
    60.1800       576
    60.2000       530
    60.2200       530
    60.2400       506
    60.2600       550
    60.2800       474
    60.3000       464
    60.3200       498
    60.3400       482
    60.3600       466
    60.3800       454
    60.4000       444
    60.4200       446
    60.4400       438
    60.4600       466
    60.4800       464
    60.5000       432
    60.5200       486
    60.5400       392
    60.5600       448
    60.5800       460
    60.6000       414
    60.6200       434
    60.6400       466
    60.6600       474
    60.6800       458
    60.7000       464
    60.7200       430
    60.7400       464
    60.7600       444
    60.7800       472
    60.8000       484
    60.8200       498
    60.8400       520
    60.8600       510
    60.8800       510
    60.9000       558
    60.9200       560
    60.9400       522
    60.9600       582
    60.9800       596
    61.0000       618
    61.0200       596
    61.0400       730
    61.0600       688
    61.0800       700
    61.1000       744
    61.1200       770
    61.1400       770
    61.1600       826
    61.1800       780
    61.2000       820
    61.2200       816
    61.2400       836
    61.2600       894
    61.2800       890
    61.3000       936
    61.3200       926
    61.3400       982
    61.3600      1012
    61.3800      1032
    61.4000      1110
    61.4200      1126
    61.4400      1222
    61.4600      1226
    61.4800      1222
    61.5000      1242
    61.5200      1386
    61.5400      1366
    61.5600      1308
    61.5800      1350
    61.6000      1312
    61.6200      1360
    61.6400      1270
    61.6600      1240
    61.6800      1180
    61.7000      1238
    61.7200      1104
    61.7400      1114
    61.7600      1008
    61.7800       946
    61.8000       894
    61.8200       916
    61.8400       868
    61.8600       784
    61.8800       738
    61.9000       768
    61.9200       720
    61.9400       668
    61.9600       642
    61.9800       674
    62.0000       608
    62.0200       616
    62.0400       620
    62.0600       610
    62.0800       588
    62.1000       566
    62.1200       580
    62.1400       598
    62.1600       514
    62.1800       518
    62.2000       564
    62.2200       516
    62.2400       516
    62.2600       532
    62.2800       472
    62.3000       478
    62.3200       492
    62.3400       466
    62.3600       442
    62.3800       492
    62.4000       398
    62.4200       428
    62.4400       420
    62.4600       442
    62.4800       424
    62.5000       474
    62.5200       400
    62.5400       438
    62.5600       396
    62.5800       404
    62.6000       376
    62.6200       390
    62.6400       380
    62.6600       406
    62.6800       386
    62.7000       390
    62.7200       418
    62.7400       390
    62.7600       390
    62.7800       410
    62.8000       392
    62.8200       374
    62.8400       358
    62.8600       362
    62.8800       334
    62.9000       388
    62.9200       342
    62.9400       366
    62.9600       362
    62.9800       324
    63.0000       320
    63.0200       368
    63.0400       330
    63.0600       326
    63.0800       324
    63.1000       314
    63.1200       308
    63.1400       310
    63.1600       328
    63.1800       296
    63.2000       332
    63.2200       318
    63.2400       304
    63.2600       338
    63.2800       322
    63.3000       316
    63.3200       320
    63.3400       312
    63.3600       320
    63.3800       324
    63.4000       300
    63.4200       364
    63.4400       388
    63.4600       350
    63.4800       370
    63.5000       346
    63.5200       354
    63.5400       424
    63.5600       416
    63.5800       420
    63.6000       410
    63.6200       482
    63.6400       408
    63.6600       492
    63.6800       508
    63.7000       536
    63.7200       564
    63.7400       598
    63.7600       602
    63.7800       648
    63.8000       656
    63.8200       640
    63.8400       714
    63.8600       772
    63.8800       730
    63.9000       744
    63.9200       732
    63.9400       734
    63.9600       684
    63.9800       678
    64.0000       650
    64.0200       638
    64.0400       648
    64.0600       628
    64.0800       604
    64.1000       556
    64.1200       556
    64.1400       532
    64.1600       520
    64.1800       504
    64.2000       448
    64.2200       444
    64.2400       442
    64.2600       414
    64.2800       400
    64.3000       372
    64.3200       408
    64.3400       326
    64.3600       302
    64.3800       360
    64.4000       342
    64.4200       346
    64.4400       342
    64.4600       322
    64.4800       310
    64.5000       306
    64.5200       338
    64.5400       314
    64.5600       326
    64.5800       292
    64.6000       330
    64.6200       298
    64.6400       294
    64.6600       314
    64.6800       298
    64.7000       286
    64.7200       310
    64.7400       288
    64.7600       304
    64.7800       304
    64.8000       324
    64.8200       322
    64.8400       302
    64.8600       300
    64.8800       326
    64.9000       334
    64.9200       302
    64.9400       302
    64.9600       328
    64.9800       322
    65.0000       330
    65.0200       352
    65.0400       386
    65.0600       376
    65.0800       400
    65.1000       360
    65.1200       362
    65.1400       428
    65.1600       404
    65.1800       374
    65.2000       432
    65.2200       462
    65.2400       400
    65.2600       478
    65.2800       426
    65.3000       434
    65.3200       442
    65.3400       434
    65.3600       452
    65.3800       450
    65.4000       450
    65.4200       406
    65.4400       422
    65.4600       442
    65.4800       406
    65.5000       440
    65.5200       424
    65.5400       386
    65.5600       396
    65.5800       380
    65.6000       392
    65.6200       398
    65.6400       376
    65.6600       386
    65.6800       408
    65.7000       384
    65.7200       378
    65.7400       402
    65.7600       390
    65.7800       324
    65.8000       366
    65.8200       348
    65.8400       330
    65.8600       324
    65.8800       348
    65.9000       324
    65.9200       304
    65.9400       320
    65.9600       290
    65.9800       308
    66.0000       290
    66.0200       276
    66.0400       304
    66.0600       320
    66.0800       308
    66.1000       318
    66.1200       326
    66.1400       318
    66.1600       292
    66.1800       284
    66.2000       288
    66.2200       326
    66.2400       316
    66.2600       286
    66.2800       312
    66.3000       332
    66.3200       328
    66.3400       334
    66.3600       376
    66.3800       358
    66.4000       354
    66.4200       386
    66.4400       392
    66.4600       394
    66.4800       394
    66.5000       380
    66.5200       382
    66.5400       430
    66.5600       416
    66.5800       426
    66.6000       458
    66.6200       472
    66.6400       504
    66.6600       494
    66.6800       532
    66.7000       518
    66.7200       540
    66.7400       580
    66.7600       600
    66.7800       634
    66.8000       694
    66.8200       750
    66.8400       756
    66.8600       746
    66.8800       752
    66.9000       772
    66.9200       800
    66.9400       840
    66.9600       764
    66.9800       784
    67.0000       792
    67.0200       768
    67.0400       754
    67.0600       714
    67.0800       688
    67.1000       696
    67.1200       664
    67.1400       642
    67.1600       608
    67.1800       664
    67.2000       550
    67.2200       598
    67.2400       568
    67.2600       474
    67.2800       472
    67.3000       546
    67.3200       450
    67.3400       482
    67.3600       460
    67.3800       426
    67.4000       402
    67.4200       400
    67.4400       412
    67.4600       380
    67.4800       368
    67.5000       384
    67.5200       370
    67.5400       372
    67.5600       350
    67.5800       346
    67.6000       350
    67.6200       344
    67.6400       364
    67.6600       350
    67.6800       362
    67.7000       366
    67.7200       364
    67.7400       380
    67.7600       390
    67.7800       402
    67.8000       426
    67.8200       414
    67.8400       402
    67.8600       440
    67.8800       482
    67.9000       488
    67.9200       494
    67.9400       538
    67.9600       572
    67.9800       562
    68.0000       560
    68.0200       676
    68.0400       650
    68.0600       690
    68.0800       738
    68.1000       780
    68.1200       778
    68.1400       792
    68.1600       864
    68.1800       816
    68.2000       876
    68.2200       812
    68.2400       876
    68.2600       834
    68.2800       808
    68.3000       790
    68.3200       798
    68.3400       776
    68.3600       762
    68.3800       674
    68.4000       732
    68.4200       694
    68.4400       646
    68.4600       620
    68.4800       652
    68.5000       584
    68.5200       566
    68.5400       558
    68.5600       522
    68.5800       480
    68.6000       482
    68.6200       536
    68.6400       460
    68.6600       458
    68.6800       444
    68.7000       444
    68.7200       392
    68.7400       364
    68.7600       386
    68.7800       408
    68.8000       374
    68.8200       346
    68.8400       346
    68.8600       408
    68.8800       390
    68.9000       398
    68.9200       374
    68.9400       384
    68.9600       360
    68.9800       366
    69.0000       400
    69.0200       394
    69.0400       380
    69.0600       396
    69.0800       398
    69.1000       386
    69.1200       388
    69.1400       378
    69.1600       416
    69.1800       398
    69.2000       392
    69.2200       438
    69.2400       476
    69.2600       440
    69.2800       444
    69.3000       462
    69.3200       462
    69.3400       436
    69.3600       490
    69.3800       496
    69.4000       490
    69.4200       508
    69.4400       502
    69.4600       468
    69.4800       482
    69.5000       478
    69.5200       458
    69.5400       466
    69.5600       444
    69.5800       468
    69.6000       456
    69.6200       428
    69.6400       438
    69.6600       412
    69.6800       404
    69.7000       454
    69.7200       416
    69.7400       424
    69.7600       382
    69.7800       444
    69.8000       432
    69.8200       374
    69.8400       448
    69.8600       398
    69.8800       396
    69.9000       382
    69.9200       400
    69.9400       412
    69.9600       388
    69.9800       366
    70.0000       366
    70.0200       374
    70.0400       354
    70.0600       380
    70.0800       312
    70.1000       344
    70.1200       342
    70.1400       300
    70.1600       308
    70.1800       302
    70.2000       306
    70.2200       298
    70.2400       308
    70.2600       278
    70.2800       262
    70.3000       282
    70.3200       280
    70.3400       280
    70.3600       278
    70.3800       258
    70.4000       270
    70.4200       270
    70.4400       266
    70.4600       272
    70.4800       278
    70.5000       288
    70.5200       242
    70.5400       282
    70.5600       232
    70.5800       288
    70.6000       302
    70.6200       258
    70.6400       260
    70.6600       258
    70.6800       264
    70.7000       286
    70.7200       258
    70.7400       270
    70.7600       272
    70.7800       262
    70.8000       240
    70.8200       224
    70.8400       260
    70.8600       236
    70.8800       252
    70.9000       218
    70.9200       240
    70.9400       236
    70.9600       242
    70.9800       222
    71.0000       236
    71.0200       234
    71.0400       246
    71.0600       228
    71.0800       238
    71.1000       278
    71.1200       268
    71.1400       266
    71.1600       302
    71.1800       300
    71.2000       286
    71.2200       318
    71.2400       344
    71.2600       282
    71.2800       336
    71.3000       340
    71.3200       370
    71.3400       342
    71.3600       364
    71.3800       378
    71.4000       410
    71.4200       424
    71.4400       424
    71.4600       434
    71.4800       498
    71.5000       466
    71.5200       446
    71.5400       490
    71.5600       464
    71.5800       514
    71.6000       488
    71.6200       462
    71.6400       462
    71.6600       450
    71.6800       468
    71.7000       488
    71.7200       440
    71.7400       436
    71.7600       500
    71.7800       484
    71.8000       406
    71.8200       428
    71.8400       432
    71.8600       408
    71.8800       414
    71.9000       394
    71.9200       394
    71.9400       430
    71.9600       386
    71.9800       356
    72.0000       410
    72.0200       376
    72.0400       386
    72.0600       374
    72.0800       374
    72.1000       386
    72.1200       414
    72.1400       402
    72.1600       386
    72.1800       420
    72.2000       452
    72.2200       428
    72.2400       444
    72.2600       456
    72.2800       470
    72.3000       466
    72.3200       446
    72.3400       438
    72.3600       464
    72.3800       484
    72.4000       520
    72.4200       470
    72.4400       484
    72.4600       460
    72.4800       492
    72.5000       486
    72.5200       484
    72.5400       490
    72.5600       486
    72.5800       500
    72.6000       476
    72.6200       496
    72.6400       522
    72.6600       522
    72.6800       522
    72.7000       534
    72.7200       540
    72.7400       592
    72.7600       550
    72.7800       564
    72.8000       562
    72.8200       512
    72.8400       548
    72.8600       538
    72.8800       532
    72.9000       576
    72.9200       482
    72.9400       514
    72.9600       496
    72.9800       488
    73.0000       484
    73.0200       450
    73.0400       444
    73.0600       402
    73.0800       368
    73.1000       388
    73.1200       382
    73.1400       346
    73.1600       384
    73.1800       362
    73.2000       358
    73.2200       344
    73.2400       348
    73.2600       320
    73.2800       310
    73.3000       310
    73.3200       270
    73.3400       298
    73.3600       302
    73.3800       302
    73.4000       252
    73.4200       298
    73.4400       284
    73.4600       286
    73.4800       274
    73.5000       274
    73.5200       290
    73.5400       270
    73.5600       268
    73.5800       292
    73.6000       252
    73.6200       298
    73.6400       262
    73.6600       290
    73.6800       276
    73.7000       276
    73.7200       274
    73.7400       266
    73.7600       248
    73.7800       262
    73.8000       264
    73.8200       296
    73.8400       284
    73.8600       266
    73.8800       258
    73.9000       268
    73.9200       278
    73.9400       278
    73.9600       268
    73.9800       276
    74.0000       282
    74.0200       266
    74.0400       282
    74.0600       284
    74.0800       288
    74.1000       314
    74.1200       272
    74.1400       284
    74.1600       288
    74.1800       258
    74.2000       302
    74.2200       276
    74.2400       242
    74.2600       282
    74.2800       270
    74.3000       218
    74.3200       258
    74.3400       268
    74.3600       256
    74.3800       242
    74.4000       238
    74.4200       248
    74.4400       250
    74.4600       214
    74.4800       222
    74.5000       240
    74.5200       220
    74.5400       226
    74.5600       204
    74.5800       210
    74.6000       206
    74.6200       202
    74.6400       216
    74.6600       198
    74.6800       208
    74.7000       202
    74.7200       220
    74.7400       198
    74.7600       226
    74.7800       222
    74.8000       200
    74.8200       202
    74.8400       202
    74.8600       212
    74.8800       214
    74.9000       246
    74.9200       216
    74.9400       228
    74.9600       206
    74.9800       214
    75.0000       222
    75.0200       216
    75.0400       238
    75.0600       218
    75.0800       232
    75.1000       228
    75.1200       236
    75.1400       260
    75.1600       272
    75.1800       238
    75.2000       236
    75.2200       228
    75.2400       226
    75.2600       218
    75.2800       252
    75.3000       248
    75.3200       278
    75.3400       214
    75.3600       248
    75.3800       246
    75.4000       214
    75.4200       264
    75.4400       252
    75.4600       292
    75.4800       278
    75.5000       276
    75.5200       274
    75.5400       284
    75.5600       266
    75.5800       270
    75.6000       268
    75.6200       252
    75.6400       292
    75.6600       286
    75.6800       290
    75.7000       286
    75.7200       276
    75.7400       300
    75.7600       256
    75.7800       296
    75.8000       262
    75.8200       312
    75.8400       280
    75.8600       272
    75.8800       310
    75.9000       284
    75.9200       258
    75.9400       284
    75.9600       258
    75.9800       280
    76.0000       242
    76.0200       274
    76.0400       262
    76.0600       260
    76.0800       248
    76.1000       304
    76.1200       308
    76.1400       264
    76.1600       272
    76.1800       298
    76.2000       294
    76.2200       312
    76.2400       300
    76.2600       298
    76.2800       332
    76.3000       304
    76.3200       334
    76.3400       340
    76.3600       334
    76.3800       368
    76.4000       334
    76.4200       324
    76.4400       354
    76.4600       366
    76.4800       350
    76.5000       398
    76.5200       382
    76.5400       398
    76.5600       388
    76.5800       388
    76.6000       372
    76.6200       364
    76.6400       412
    76.6600       402
    76.6800       434
    76.7000       372
    76.7200       374
    76.7400       386
    76.7600       364
    76.7800       418
    76.8000       388
    76.8200       338
    76.8400       390
    76.8600       384
    76.8800       406
    76.9000       362
    76.9200       348
    76.9400       324
    76.9600       328
    76.9800       356
    77.0000       346
    77.0200       342
    77.0400       344
    77.0600       358
    77.0800       354
    77.1000       322
    77.1200       344
    77.1400       358
    77.1600       370
    77.1800       376
    77.2000       380
    77.2200       354
    77.2400       386
    77.2600       354
    77.2800       414
    77.3000       404
    77.3200       366
    77.3400       428
    77.3600       454
    77.3800       440
    77.4000       462
    77.4200       488
    77.4400       504
    77.4600       492
    77.4800       512
    77.5000       506
    77.5200       548
    77.5400       606
    77.5600       628
    77.5800       620
    77.6000       608
    77.6200       608
    77.6400       660
    77.6600       576
    77.6800       610
    77.7000       628
    77.7200       544
    77.7400       628
    77.7600       610
    77.7800       566
    77.8000       594
    77.8200       538
    77.8400       564
    77.8600       532
    77.8800       512
    77.9000       544
    77.9200       492
    77.9400       518
    77.9600       518
    77.9800       454
    78.0000       440
    78.0200       460
    78.0400       418
    78.0600       432
    78.0800       386
    78.1000       422
    78.1200       390
    78.1400       384
    78.1600       404
    78.1800       360
    78.2000       360
    78.2200       382
    78.2400       358
    78.2600       360
    78.2800       332
    78.3000       348
    78.3200       336
    78.3400       326
    78.3600       318
    78.3800       366
    78.4000       356
    78.4200       354
    78.4400       348
    78.4600       362
    78.4800       386
    78.5000       364
    78.5200       386
    78.5400       424
    78.5600       428
    78.5800       382
    78.6000       362
    78.6200       412
    78.6400       404
    78.6600       426
    78.6800       384
    78.7000       404
    78.7200       422
    78.7400       382
    78.7600       386
    78.7800       398
    78.8000       372
    78.8200       370
    78.8400       388
    78.8600       356
    78.8800       356
    78.9000       346
    78.9200       328
    78.9400       326
    78.9600       304
    78.9800       346
    79.0000       326
    79.0200       304
    79.0400       314
    79.0600       288
    79.0800       328
    79.1000       296
    79.1200       292
    79.1400       242
    79.1600       272
    79.1800       272
    79.2000       272
    79.2200       292
    79.2400       296
    79.2600       264
    79.2800       272
    79.3000       234
    79.3200       288
    79.3400       262
    79.3600       272
    79.3800       290
    79.4000       312
    79.4200       270
    79.4400       272
    79.4600       262
    79.4800       280
    79.5000       284
    79.5200       290
    79.5400       306
    79.5600       248
    79.5800       270
    79.6000       274
    79.6200       286
    79.6400       288
    79.6600       252
    79.6800       258
    79.7000       234
    79.7200       228
    79.7400       258
    79.7600       234
    79.7800       294
    79.8000       256
    79.8200       248
    79.8400       272
    79.8600       260
    79.8800       260
    79.9000       254
    79.9200       270
    79.9400       282
    79.9600       234
    79.9800       284
    80.0000       258
    80.0200       240
    80.0400       230
    80.0600       260
    80.0800       268
    80.1000       246
    80.1200       262
    80.1400       244
    80.1600       278
    80.1800       242
    80.2000       236
    80.2200       252
    80.2400       258
    80.2600       248
    80.2800       268
    80.3000       272
    80.3200       268
    80.3400       276
    80.3600       280
    80.3800       268
    80.4000       268
    80.4200       262
    80.4400       274
    80.4600       246
    80.4800       268
    80.5000       272
    80.5200       260
    80.5400       270
    80.5600       244
    80.5800       284
    80.6000       254
    80.6200       254
    80.6400       254
    80.6600       274
    80.6800       270
    80.7000       254
    80.7200       280
    80.7400       254
    80.7600       262
    80.7800       256
    80.8000       252
    80.8200       266
    80.8400       246
    80.8600       236
    80.8800       258
    80.9000       232
    80.9200       246
    80.9400       204
    80.9600       246
    80.9800       214
    81.0000       234
    81.0200       276
    81.0400       246
    81.0600       258
    81.0800       260
    81.1000       246
    81.1200       236
    81.1400       240
    81.1600       236
    81.1800       280
    81.2000       268
    81.2200       242
    81.2400       252
    81.2600       276
    81.2800       246
    81.3000       246
    81.3200       256
    81.3400       276
    81.3600       286
    81.3800       284
    81.4000       280
    81.4200       242
    81.4400       246
    81.4600       268
    81.4800       256
    81.5000       274
    81.5200       276
    81.5400       286
    81.5600       254
    81.5800       300
    81.6000       266
    81.6200       264
    81.6400       272
    81.6600       272
    81.6800       272
    81.7000       284
    81.7200       288
    81.7400       298
    81.7600       294
    81.7800       312
    81.8000       308
    81.8200       296
    81.8400       308
    81.8600       330
    81.8800       328
    81.9000       326
    81.9200       342
    81.9400       356
    81.9600       314
    81.9800       340
    82.0000       334
    82.0200       326
    82.0400       336
    82.0600       368
    82.0800       366
    82.1000       362
    82.1200       358
    82.1400       350
    82.1600       366
    82.1800       374
    82.2000       388
    82.2200       378
    82.2400       376
    82.2600       380
    82.2800       368
    82.3000       382
    82.3200       436
    82.3400       442
    82.3600       422
    82.3800       418
    82.4000       434
    82.4200       390
    82.4400       432
    82.4600       420
    82.4800       462
    82.5000       456
    82.5200       448
    82.5400       514
    82.5600       480
    82.5800       488
    82.6000       486
    82.6200       492
    82.6400       554
    82.6600       580
    82.6800       546
    82.7000       558
    82.7200       590
    82.7400       594
    82.7600       636
    82.7800       636
    82.8000       666
    82.8200       634
    82.8400       694
    82.8600       670
    82.8800       686
    82.9000       650
    82.9200       726
    82.9400       702
    82.9600       688
    82.9800       654
    83.0000       646
    83.0200       658
    83.0400       630
    83.0600       626
    83.0800       640
    83.1000       632
    83.1200       610
    83.1400       536
    83.1600       570
    83.1800       530
    83.2000       526
    83.2200       572
    83.2400       510
    83.2600       544
    83.2800       494
    83.3000       482
    83.3200       458
    83.3400       456
    83.3600       436
    83.3800       448
    83.4000       452
    83.4200       406
    83.4400       404
    83.4600       388
    83.4800       384
    83.5000       404
    83.5200       342
    83.5400       386
    83.5600       332
    83.5800       362
    83.6000       346
    83.6200       382
    83.6400       330
    83.6600       340
    83.6800       354
    83.7000       318
    83.7200       324
    83.7400       322
    83.7600       336
    83.7800       304
    83.8000       310
    83.8200       346
    83.8400       298
    83.8600       318
    83.8800       370
    83.9000       342
    83.9200       322
    83.9400       294
    83.9600       326
    83.9800       324
    84.0000       332
    84.0200       338
    84.0400       356
    84.0600       334
    84.0800       312
    84.1000       330
    84.1200       340
    84.1400       314
    84.1600       338
    84.1800       340
    84.2000       316
    84.2200       326
    84.2400       304
    84.2600       336
    84.2800       362
    84.3000       326
    84.3200       332
    84.3400       330
    84.3600       310
    84.3800       308
    84.4000       302
    84.4200       282
    84.4400       302
    84.4600       324
    84.4800       294
    84.5000       320
    84.5200       320
    84.5400       318
    84.5600       330
    84.5800       306
    84.6000       288
    84.6200       306
    84.6400       300
    84.6600       302
    84.6800       338
    84.7000       328
    84.7200       310
    84.7400       296
    84.7600       328
    84.7800       306
    84.8000       292
    84.8200       296
    84.8400       286
    84.8600       300
    84.8800       322
    84.9000       316
    84.9200       320
    84.9400       298
    84.9600       280
    84.9800       278
    85.0000       272
    85.0200       310
    85.0400       278
    85.0600       268
    85.0800       268
    85.1000       290
    85.1200       278
    85.1400       258
    85.1600       292
    85.1800       256
    85.2000       300
    85.2200       312
    85.2400       282
    85.2600       264
    85.2800       278
    85.3000       276
    85.3200       250
    85.3400       278
    85.3600       280
    85.3800       268
    85.4000       280
    85.4200       274
    85.4400       258
    85.4600       262
    85.4800       310
    85.5000       274
    85.5200       318
    85.5400       286
    85.5600       304
    85.5800       268
    85.6000       280
    85.6200       274
    85.6400       294
    85.6600       314
    85.6800       268
    85.7000       294
    85.7200       264
    85.7400       258
    85.7600       296
    85.7800       234
    85.8000       264
    85.8200       260
    85.8400       278
    85.8600       286
    85.8800       270
    85.9000       298
    85.9200       272
    85.9400       252
    85.9600       240
    85.9800       220
    86.0000       248
    86.0200       266
    86.0400       250
    86.0600       258
    86.0800       284
    86.1000       246
    86.1200       242
    86.1400       258
    86.1600       272
    86.1800       250
    86.2000       262
    86.2200       238
    86.2400       282
    86.2600       248
    86.2800       260
    86.3000       232
    86.3200       276
    86.3400       228
    86.3600       272
    86.3800       248
    86.4000       258
    86.4200       246
    86.4400       302
    86.4600       232
    86.4800       268
    86.5000       290
    86.5200       256
    86.5400       252
    86.5600       284
    86.5800       270
    86.6000       280
    86.6200       298
    86.6400       274
    86.6600       314
    86.6800       320
    86.7000       306
    86.7200       356
    86.7400       324
    86.7600       350
    86.7800       360
    86.8000       348
    86.8200       340
    86.8400       364
    86.8600       380
    86.8800       368
    86.9000       386
    86.9200       378
    86.9400       346
    86.9600       382
    86.9800       380
    87.0000       370
    87.0200       368
    87.0400       384
    87.0600       348
    87.0800       358
    87.1000       342
    87.1200       370
    87.1400       348
    87.1600       342
    87.1800       362
    87.2000       320
    87.2200       348
    87.2400       306
    87.2600       360
    87.2800       334
    87.3000       348
    87.3200       310
    87.3400       304
    87.3600       374
    87.3800       326
    87.4000       316
    87.4200       278
    87.4400       342
    87.4600       300
    87.4800       326
    87.5000       336
    87.5200       306
    87.5400       368
    87.5600       354
    87.5800       406
    87.6000       326
    87.6200       396
    87.6400       366
    87.6600       370
    87.6800       386
    87.7000       388
    87.7200       382
    87.7400       414
    87.7600       410
    87.7800       410
    87.8000       390
    87.8200       392
    87.8400       386
    87.8600       352
    87.8800       372
    87.9000       368
    87.9200       402
    87.9400       386
    87.9600       396
    87.9800       390
    88.0000       370
    88.0200       380
    88.0400       372
    88.0600       356
    88.0800       380
    88.1000       368
    88.1200       388
    88.1400       354
    88.1600       376
    88.1800       372
    88.2000       368
    88.2200       372
    88.2400       378
    88.2600       376
    88.2800       342
    88.3000       370
    88.3200       376
    88.3400       344
    88.3600       366
    88.3800       352
    88.4000       346
    88.4200       314
    88.4400       378
    88.4600       342
    88.4800       332
    88.5000       364
    88.5200       346
    88.5400       346
    88.5600       376
    88.5800       362
    88.6000       326
    88.6200       316
    88.6400       346
    88.6600       354
    88.6800       324
    88.7000       340
    88.7200       334
    88.7400       324
    88.7600       308
    88.7800       310
    88.8000       316
    88.8200       300
    88.8400       304
    88.8600       290
    88.8800       272
    88.9000       296
    88.9200       294
    88.9400       306
    88.9600       280
    88.9800       272
    89.0000       286
    89.0200       262
    89.0400       298
    89.0600       254
    89.0800       264
    89.1000       272
    89.1200       262
    89.1400       284
    89.1600       270
    89.1800       244
    89.2000       276
    89.2200       258
    89.2400       266
    89.2600       258
    89.2800       236
    89.3000       262
    89.3200       218
    89.3400       252
    89.3600       238
    89.3800       264
    89.4000       256
    89.4200       238
    89.4400       278
    89.4600       296
    89.4800       284
    89.5000       274
    89.5200       264
    89.5400       256
    89.5600       254
    89.5800       272
    89.6000       298
    89.6200       292
    89.6400       282
    89.6600       286
    89.6800       302
    89.7000       328
    89.7200       308
    89.7400       326
    89.7600       294
    89.7800       292
    89.8000       268
    89.8200       274
    89.8400       292
    89.8600       276
    89.8800       256
    89.9000       274
    89.9200       278
    89.9400       304
    89.9600       270
    89.9800       296
    90.0000       274
