    10.0000       334
    10.0200       344
    10.0400       358
    10.0600       362
    10.0800       360
    10.1000       376
    10.1200       358
    10.1400       362
    10.1600       350
    10.1800       346
    10.2000       338
    10.2200       316
    10.2400       348
    10.2600       358
    10.2800       336
    10.3000       352
    10.3200       314
    10.3400       380
    10.3600       356
    10.3800       348
    10.4000       342
    10.4200       312
    10.4400       332
    10.4600       348
    10.4800       378
    10.5000       322
    10.5200       380
    10.5400       330
    10.5600       342
    10.5800       358
    10.6000       356
    10.6200       324
    10.6400       358
    10.6600       386
    10.6800       348
    10.7000       324
    10.7200       352
    10.7400       332
    10.7600       372
    10.7800       326
    10.8000       372
    10.8200       318
    10.8400       358
    10.8600       310
    10.8800       340
    10.9000       326
    10.9200       306
    10.9400       314
    10.9600       332
    10.9800       356
    11.0000       328
    11.0200       316
    11.0400       314
    11.0600       326
    11.0800       344
    11.1000       370
    11.1200       318
    11.1400       332
    11.1600       330
    11.1800       352
    11.2000       292
    11.2200       338
    11.2400       364
    11.2600       324
    11.2800       338
    11.3000       330
    11.3200       364
    11.3400       338
    11.3600       318
    11.3800       314
    11.4000       318
    11.4200       358
    11.4400       290
    11.4600       328
    11.4800       344
    11.5000       342
    11.5200       314
    11.5400       344
    11.5600       346
    11.5800       326
    11.6000       316
    11.6200       360
    11.6400       348
    11.6600       326
    11.6800       352
    11.7000       290
    11.7200       344
    11.7400       358
    11.7600       328
    11.7800       362
    11.8000       368
    11.8200       400
    11.8400       366
    11.8600       358
    11.8800       340
    11.9000       376
    11.9200       370
    11.9400       396
    11.9600       398
    11.9800       456
    12.0000       438
    12.0200       432
    12.0400       472
    12.0600       484
    12.0800       540
    12.1000       562
    12.1200       594
    12.1400       692
    12.1600       712
    12.1800       778
    12.2000       780
    12.2200       778
    12.2400       698
    12.2600       632
    12.2800       558
    12.3000       412
    12.3200       448
    12.3400       390
    12.3600       298
    12.3800       316
    12.4000       336
    12.4200       346
    12.4400       340
    12.4600       296
    12.4800       338
    12.5000       288
    12.5200       318
    12.5400       310
    12.5600       256
    12.5800       288
    12.6000       284
    12.6200       316
    12.6400       282
    12.6600       296
    12.6800       306
    12.7000       298
    12.7200       274
    12.7400       284
    12.7600       280
    12.7800       276
    12.8000       268
    12.8200       296
    12.8400       304
    12.8600       272
    12.8800       292
    12.9000       268
    12.9200       260
    12.9400       286
    12.9600       268
    12.9800       310
    13.0000       270
    13.0200       272
    13.0400       282
    13.0600       278
    13.0800       282
    13.1000       260
    13.1200       266
    13.1400       260
    13.1600       294
    13.1800       296
    13.2000       280
    13.2200       248
    13.2400       266
    13.2600       282
    13.2800       266
    13.3000       276
    13.3200       274
    13.3400       272
    13.3600       254
    13.3800       242
    13.4000       264
    13.4200       250
    13.4400       254
    13.4600       254
    13.4800       300
    13.5000       278
    13.5200       278
    13.5400       240
    13.5600       286
    13.5800       294
    13.6000       264
    13.6200       250
    13.6400       238
    13.6600       226
    13.6800       248
    13.7000       280
    13.7200       266
    13.7400       262
    13.7600       242
    13.7800       288
    13.8000       250
    13.8200       248
    13.8400       270
    13.8600       254
    13.8800       252
    13.9000       272
    13.9200       246
    13.9400       274
    13.9600       260
    13.9800       246
    14.0000       228
    14.0200       274
    14.0400       248
    14.0600       228
    14.0800       266
    14.1000       236
    14.1200       232
    14.1400       268
    14.1600       244
    14.1800       288
    14.2000       226
    14.2200       282
    14.2400       232
    14.2600       266
    14.2800       278
    14.3000       260
    14.3200       276
    14.3400       254
    14.3600       234
    14.3800       298
    14.4000       262
    14.4200       244
    14.4400       280
    14.4600       242
    14.4800       276
    14.5000       276
    14.5200       266
    14.5400       296
    14.5600       282
    14.5800       272
    14.6000       280
    14.6200       280
    14.6400       338
    14.6600       266
    14.6800       290
    14.7000       298
    14.7200       294
    14.7400       290
    14.7600       294
    14.7800       334
    14.8000       304
    14.8200       350
    14.8400       370
    14.8600       388
    14.8800       396
    14.9000       448
    14.9200       498
    14.9400       510
    14.9600       534
    14.9800       560
    15.0000       596
    15.0200       652
    15.0400       728
    15.0600       724
    15.0800       800
    15.1000       862
    15.1200       858
    15.1400       970
    15.1600      1068
    15.1800       998
    15.2000      1074
    15.2200       932
    15.2400       758
    15.2600       698
    15.2800       534
    15.3000       418
    15.3200       396
    15.3400       340
    15.3600       336
    15.3800       310
    15.4000       320
    15.4200       288
    15.4400       306
    15.4600       286
    15.4800       292
    15.5000       270
    15.5200       282
    15.5400       252
    15.5600       282
    15.5800       248
    15.6000       266
    15.6200       280
    15.6400       242
    15.6600       260
    15.6800       256
    15.7000       248
    15.7200       266
    15.7400       232
    15.7600       234
    15.7800       292
    15.8000       244
    15.8200       262
    15.8400       238
    15.8600       220
    15.8800       246
    15.9000       264
    15.9200       248
    15.9400       224
    15.9600       276
    15.9800       254
    16.0000       280
    16.0200       228
    16.0400       246
    16.0600       274
    16.0800       268
    16.1000       262
    16.1200       234
    16.1400       256
    16.1600       246
    16.1800       254
    16.2000       278
    16.2200       276
    16.2400       282
    16.2600       252
    16.2800       300
    16.3000       274
    16.3200       294
    16.3400       280
    16.3600       300
    16.3800       278
    16.4000       282
    16.4200       268
    16.4400       248
    16.4600       276
    16.4800       258
    16.5000       240
    16.5200       288
    16.5400       288
    16.5600       294
    16.5800       262
    16.6000       264
    16.6200       282
    16.6400       306
    16.6600       334
    16.6800       314
    16.7000       362
    16.7200       352
    16.7400       388
    16.7600       396
    16.7800       462
    16.8000       454
    16.8200       496
    16.8400       552
    16.8600       600
    16.8800       638
    16.9000       746
    16.9200       816
    16.9400       860
    16.9600      1004
    16.9800      1234
    17.0000      1382
    17.0200      1514
    17.0400      1826
    17.0600      1888
    17.0800      1964
    17.1000      1822
    17.1200      1522
    17.1400      1414
    17.1600      1236
    17.1800      1024
    17.2000       994
    17.2200      1028
    17.2400       870
    17.2600       854
    17.2800       848
    17.3000       724
    17.3200       764
    17.3400       732
    17.3600       620
    17.3800       590
    17.4000       506
    17.4200       508
    17.4400       526
    17.4600       458
    17.4800       510
    17.5000       456
    17.5200       416
    17.5400       456
    17.5600       442
    17.5800       440
    17.6000       394
    17.6200       416
    17.6400       428
    17.6600       462
    17.6800       488
    17.7000       520
    17.7200       550
    17.7400       590
    17.7600       626
    17.7800       600
    17.8000       642
    17.8200       576
    17.8400       504
    17.8600       484
    17.8800       386
    17.9000       344
    17.9200       380
    17.9400       254
    17.9600       276
    17.9800       264
    18.0000       240
    18.0200       280
    18.0400       248
    18.0600       230
    18.0800       230
    18.1000       212
    18.1200       236
    18.1400       226
    18.1600       214
    18.1800       206
    18.2000       222
    18.2200       230
    18.2400       224
    18.2600       216
    18.2800       224
    18.3000       220
    18.3200       198
    18.3400       200
    18.3600       248
    18.3800       250
    18.4000       252
    18.4200       198
    18.4400       234
    18.4600       246
    18.4800       222
    18.5000       248
    18.5200       240
    18.5400       246
    18.5600       230
    18.5800       234
    18.6000       234
    18.6200       230
    18.6400       254
    18.6600       232
    18.6800       258
    18.7000       268
    18.7200       264
    18.7400       308
    18.7600       312
    18.7800       330
    18.8000       336
    18.8200       318
    18.8400       366
    18.8600       416
    18.8800       428
    18.9000       440
    18.9200       440
    18.9400       432
    18.9600       468
    18.9800       508
    19.0000       476
    19.0200       390
    19.0400       396
    19.0600       356
    19.0800       390
    19.1000       346
    19.1200       366
    19.1400       380
    19.1600       402
    19.1800       382
    19.2000       438
    19.2200       386
    19.2400       454
    19.2600       506
    19.2800       484
    19.3000       580
    19.3200       630
    19.3400       694
    19.3600       774
    19.3800       880
    19.4000       990
    19.4200      1092
    19.4400      1296
    19.4600      1486
    19.4800      1744
    19.5000      2026
    19.5200      2224
    19.5400      2438
    19.5600      2488
    19.5800      2322
    19.6000      2140
    19.6200      1858
    19.6400      1534
    19.6600      1182
    19.6800      1030
    19.7000       806
    19.7200       820
    19.7400       746
    19.7600       782
    19.7800       778
    19.8000       838
    19.8200       846
    19.8400      1038
    19.8600      1086
    19.8800      1230
    19.9000      1360
    19.9200      1512
    19.9400      1742
    19.9600      1790
    19.9800      1930
    20.0000      1900
    20.0200      1820
    20.0400      1596
    20.0600      1360
    20.0800      1118
    20.1000       894
    20.1200       700
    20.1400       568
    20.1600       514
    20.1800       426
    20.2000       396
    20.2200       342
    20.2400       384
    20.2600       304
    20.2800       322
    20.3000       296
    20.3200       272
    20.3400       264
    20.3600       268
    20.3800       296
    20.4000       248
    20.4200       288
    20.4400       248
    20.4600       260
    20.4800       264
    20.5000       270
    20.5200       248
    20.5400       252
    20.5600       240
    20.5800       246
    20.6000       238
    20.6200       280
    20.6400       252
    20.6600       246
    20.6800       232
    20.7000       254
    20.7200       278
    20.7400       274
    20.7600       268
    20.7800       274
    20.8000       284
    20.8200       302
    20.8400       314
    20.8600       352
    20.8800       394
    20.9000       408
    20.9200       480
    20.9400       476
    20.9600       546
    20.9800       570
    21.0000       654
    21.0200       778
    21.0400       844
    21.0600       948
    21.0800      1130
    21.1000      1304
    21.1200      1424
    21.1400      1702
    21.1600      1882
    21.1800      2156
    21.2000      2318
    21.2200      2256
    21.2400      2286
    21.2600      2078
    21.2800      1864
    21.3000      1484
    21.3200      1268
    21.3400      1028
    21.3600       800
    21.3800       692
    21.4000       522
    21.4200       466
    21.4400       406
    21.4600       392
    21.4800       330
    21.5000       288
    21.5200       310
    21.5400       284
    21.5600       272
    21.5800       278
    21.6000       240
    21.6200       242
    21.6400       262
    21.6600       256
    21.6800       238
    21.7000       210
    21.7200       234
    21.7400       240
    21.7600       232
    21.7800       236
    21.8000       254
    21.8200       240
    21.8400       248
    21.8600       236
    21.8800       240
    21.9000       254
    21.9200       248
    21.9400       224
    21.9600       230
    21.9800       238
    22.0000       250
    22.0200       268
    22.0400       200
    22.0600       268
    22.0800       232
    22.1000       230
    22.1200       226
    22.1400       192
    22.1600       224
    22.1800       210
    22.2000       236
    22.2200       224
    22.2400       200
    22.2600       230
    22.2800       212
    22.3000       252
    22.3200       250
    22.3400       272
    22.3600       250
    22.3800       296
    22.4000       258
    22.4200       290
    22.4400       336
    22.4600       344
    22.4800       340
    22.5000       380
    22.5200       414
    22.5400       390
    22.5600       476
    22.5800       556
    22.6000       622
    22.6200       640
    22.6400       764
    22.6600       814
    22.6800       920
    22.7000      1120
    22.7200      1272
    22.7400      1510
    22.7600      1820
    22.7800      2070
    22.8000      2396
    22.8200      2696
    22.8400      3038
    22.8600      3164
    22.8800      3154
    22.9000      3102
    22.9200      2714
    22.9400      2372
    22.9600      1892
    22.9800      1446
    23.0000      1184
    23.0200       940
    23.0400       784
    23.0600       688
    23.0800       632
    23.1000       582
    23.1200       492
    23.1400       478
    23.1600       432
    23.1800       392
    23.2000       410
    23.2200       420
    23.2400       364
    23.2600       316
    23.2800       336
    23.3000       304
    23.3200       308
    23.3400       294
    23.3600       314
    23.3800       302
    23.4000       296
    23.4200       256
    23.4400       276
    23.4600       246
    23.4800       244
    23.5000       238
    23.5200       266
    23.5400       270
    23.5600       208
    23.5800       254
    23.6000       224
    23.6200       220
    23.6400       228
    23.6600       258
    23.6800       248
    23.7000       234
    23.7200       236
    23.7400       218
    23.7600       254
    23.7800       220
    23.8000       222
    23.8200       222
    23.8400       220
    23.8600       230
    23.8800       224
    23.9000       244
    23.9200       202
    23.9400       258
    23.9600       250
    23.9800       238
    24.0000       236
    24.0200       224
    24.0400       262
    24.0600       270
    24.0800       248
    24.1000       242
    24.1200       244
    24.1400       272
    24.1600       308
    24.1800       280
    24.2000       282
    24.2200       292
    24.2400       334
    24.2600       346
    24.2800       412
    24.3000       416
    24.3200       440
    24.3400       498
    24.3600       588
    24.3800       578
    24.4000       730
    24.4200       774
    24.4400       898
    24.4600       994
    24.4800      1176
    24.5000      1300
    24.5200      1314
    24.5400      1406
    24.5600      1408
    24.5800      1392
    24.6000      1350
    24.6200      1234
    24.6400      1020
    24.6600       920
    24.6800       802
    24.7000       730
    24.7200       672
    24.7400       680
    24.7600       610
    24.7800       546
    24.8000       504
    24.8200       538
    24.8400       526
    24.8600       508
    24.8800       458
    24.9000       414
    24.9200       454
    24.9400       466
    24.9600       448
    24.9800       442
    25.0000       490
    25.0200       490
    25.0400       536
    25.0600       502
    25.0800       586
    25.1000       578
    25.1200       624
    25.1400       694
    25.1600       742
    25.1800       756
    25.2000       748
    25.2200       894
    25.2400       978
    25.2600       920
    25.2800       962
    25.3000       944
    25.3200       804
    25.3400       792
    25.3600       712
    25.3800       628
    25.4000       606
    25.4200       564
    25.4400       568
    25.4600       582
    25.4800       590
    25.5000       670
    25.5200       694
    25.5400       736
    25.5600       824
    25.5800       850
    25.6000       888
    25.6200       900
    25.6400       836
    25.6600       740
    25.6800       700
    25.7000       578
    25.7200       550
    25.7400       470
    25.7600       406
    25.7800       382
    25.8000       346
    25.8200       340
    25.8400       326
    25.8600       324
    25.8800       298
    25.9000       282
    25.9200       298
    25.9400       282
    25.9600       278
    25.9800       240
    26.0000       238
    26.0200       276
    26.0400       254
    26.0600       250
    26.0800       256
    26.1000       226
    26.1200       238
    26.1400       222
    26.1600       244
    26.1800       210
    26.2000       248
    26.2200       246
    26.2400       256
    26.2600       250
    26.2800       242
    26.3000       242
    26.3200       272
    26.3400       246
    26.3600       280
    26.3800       228
    26.4000       254
    26.4200       312
    26.4400       270
    26.4600       266
    26.4800       272
    26.5000       288
    26.5200       244
    26.5400       280
    26.5600       292
    26.5800       276
    26.6000       272
    26.6200       302
    26.6400       284
    26.6600       260
    26.6800       284
    26.7000       296
    26.7200       262
    26.7400       302
    26.7600       250
    26.7800       228
    26.8000       270
    26.8200       252
    26.8400       258
    26.8600       226
    26.8800       236
    26.9000       238
    26.9200       260
    26.9400       232
    26.9600       260
    26.9800       266
    27.0000       266
    27.0200       286
    27.0400       226
    27.0600       252
    27.0800       260
    27.1000       292
    27.1200       258
    27.1400       326
    27.1600       304
    27.1800       348
    27.2000       340
    27.2200       388
    27.2400       444
    27.2600       504
    27.2800       500
    27.3000       536
    27.3200       666
    27.3400       732
    27.3600       794
    27.3800       960
    27.4000      1076
    27.4200      1138
    27.4400      1264
    27.4600      1432
    27.4800      1408
    27.5000      1456
    27.5200      1382
    27.5400      1350
    27.5600      1314
    27.5800      1162
    27.6000      1008
    27.6200       884
    27.6400       754
    27.6600       672
    27.6800       618
    27.7000       544
    27.7200       464
    27.7400       448
    27.7600       370
    27.7800       372
    27.8000       346
    27.8200       338
    27.8400       276
    27.8600       314
    27.8800       286
    27.9000       314
    27.9200       264
    27.9400       304
    27.9600       288
    27.9800       274
    28.0000       260
    28.0200       290
    28.0400       256
    28.0600       288
    28.0800       288
    28.1000       226
    28.1200       254
    28.1400       258
    28.1600       250
    28.1800       230
    28.2000       260
    28.2200       254
    28.2400       280
    28.2600       296
    28.2800       274
    28.3000       262
    28.3200       268
    28.3400       276
    28.3600       272
    28.3800       278
    28.4000       280
    28.4200       258
    28.4400       258
    28.4600       246
    28.4800       240
    28.5000       204
    28.5200       252
    28.5400       254
    28.5600       280
    28.5800       268
    28.6000       286
    28.6200       278
    28.6400       298
    28.6600       308
    28.6800       328
    28.7000       336
    28.7200       364
    28.7400       386
    28.7600       332
    28.7800       318
    28.8000       348
    28.8200       306
    28.8400       284
    28.8600       308
    28.8800       268
    28.9000       300
    28.9200       274
    28.9400       296
    28.9600       278
    28.9800       258
    29.0000       266
    29.0200       256
    29.0400       278
    29.0600       270
    29.0800       282
    29.1000       236
    29.1200       282
    29.1400       284
    29.1600       276
    29.1800       268
    29.2000       318
    29.2200       302
    29.2400       340
    29.2600       342
    29.2800       326
    29.3000       334
    29.3200       392
    29.3400       400
    29.3600       448
    29.3800       454
    29.4000       482
    29.4200       522
    29.4400       550
    29.4600       572
    29.4800       616
    29.5000       634
    29.5200       730
    29.5400       770
    29.5600       818
    29.5800       862
    29.6000       860
    29.6200       876
    29.6400       908
    29.6600       842
    29.6800       708
    29.7000       688
    29.7200       652
    29.7400       620
    29.7600       518
    29.7800       520
    29.8000       490
    29.8200       512
    29.8400       476
    29.8600       510
    29.8800       552
    29.9000       542
    29.9200       614
    29.9400       642
    29.9600       718
    29.9800       812
    30.0000       808
    30.0200       978
    30.0400      1132
    30.0600      1290
    30.0800      1462
    30.1000      1664
    30.1200      1874
    30.1400      2142
    30.1600      2386
    30.1800      2414
    30.2000      2546
    30.2200      2516
    30.2400      2440
    30.2600      2420
    30.2800      2302
    30.3000      2100
    30.3200      1988
    30.3400      1908
    30.3600      1802
    30.3800      1744
    30.4000      1796
    30.4200      1834
    30.4400      1842
    30.4600      2170
    30.4800      2278
    30.5000      2486
    30.5200      2752
    30.5400      3134
    30.5600      3506
    30.5800      3902
    30.6000      4244
    30.6200      4640
    30.6400      4956
    30.6600      5104
    30.6800      4906
    30.7000      4580
    30.7200      4190
    30.7400      3640
    30.7600      3106
    30.7800      2732
    30.8000      2310
    30.8200      1980
    30.8400      1720
    30.8600      1498
    30.8800      1282
    30.9000      1260
    30.9200      1198
    30.9400      1130
    30.9600      1100
    30.9800      1116
    31.0000      1168
    31.0200      1202
    31.0400      1176
    31.0600      1268
    31.0800      1284
    31.1000      1360
    31.1200      1406
    31.1400      1530
    31.1600      1482
    31.1800      1516
    31.2000      1542
    31.2200      1400
    31.2400      1278
    31.2600      1294
    31.2800      1146
    31.3000      1048
    31.3200       978
    31.3400       882
    31.3600       772
    31.3800       688
    31.4000       708
    31.4200       598
    31.4400       514
    31.4600       502
    31.4800       496
    31.5000       484
    31.5200       444
    31.5400       456
    31.5600       442
    31.5800       444
    31.6000       432
    31.6200       414
    31.6400       438
    31.6600       472
    31.6800       438
    31.7000       492
    31.7200       492
    31.7400       522
    31.7600       524
    31.7800       570
    31.8000       588
    31.8200       716
    31.8400       750
    31.8600       772
    31.8800       914
    31.9000       944
    31.9200      1164
    31.9400      1356
    31.9600      1500
    31.9800      1584
    32.0000      1774
    32.0200      1818
    32.0400      1838
    32.0600      1742
    32.0800      1672
    32.1000      1482
    32.1200      1362
    32.1400      1274
    32.1600      1128
    32.1800      1014
    32.2000       978
    32.2200       952
    32.2400      1012
    32.2600      1052
    32.2800      1086
    32.3000      1138
    32.3200      1304
    32.3400      1462
    32.3600      1712
    32.3800      1866
    32.4000      2238
    32.4200      2594
    32.4400      2990
    32.4600      3490
    32.4800      4020
    32.5000      4668
    32.5200      5118
    32.5400      5606
    32.5600      5658
    32.5800      5874
    32.6000      5694
    32.6200      5226
    32.6400      4876
    32.6600      4314
    32.6800      3838
    32.7000      3184
    32.7200      2734
    32.7400      2452
    32.7600      2018
    32.7800      1744
    32.8000      1482
    32.8200      1348
    32.8400      1142
    32.8600      1132
    32.8800      1064
    32.9000       962
    32.9200       942
    32.9400       968
    32.9600       980
    32.9800       988
    33.0000       998
    33.0200      1134
    33.0400      1196
    33.0600      1224
    33.0800      1226
    33.1000      1250
    33.1200      1174
    33.1400      1176
    33.1600      1042
    33.1800       936
    33.2000       894
    33.2200       724
    33.2400       692
    33.2600       616
    33.2800       554
    33.3000       444
    33.3200       420
    33.3400       402
    33.3600       344
    33.3800       350
    33.4000       364
    33.4200       316
    33.4400       290
    33.4600       300
    33.4800       282
    33.5000       274
    33.5200       288
    33.5400       254
    33.5600       280
    33.5800       278
    33.6000       252
    33.6200       246
    33.6400       242
    33.6600       284
    33.6800       276
    33.7000       244
    33.7200       258
    33.7400       236
    33.7600       218
    33.7800       232
    33.8000       244
    33.8200       238
    33.8400       240
    33.8600       218
    33.8800       236
    33.9000       232
    33.9200       244
    33.9400       252
    33.9600       240
    33.9800       232
    34.0000       240
    34.0200       256
    34.0400       246
    34.0600       232
    34.0800       246
    34.1000       220
    34.1200       266
    34.1400       252
    34.1600       252
    34.1800       266
    34.2000       226
    34.2200       248
    34.2400       258
    34.2600       252
    34.2800       288
    34.3000       268
    34.3200       278
    34.3400       282
    34.3600       282
    34.3800       366
    34.4000       364
    34.4200       362
    34.4400       388
    34.4600       424
    34.4800       444
    34.5000       518
    34.5200       546
    34.5400       584
    34.5600       548
    34.5800       544
    34.6000       502
    34.6200       502
    34.6400       428
    34.6600       422
    34.6800       404
    34.7000       372
    34.7200       366
    34.7400       352
    34.7600       378
    34.7800       310
    34.8000       344
    34.8200       332
    34.8400       320
    34.8600       312
    34.8800       296
    34.9000       294
    34.9200       290
    34.9400       316
    34.9600       322
    34.9800       342
    35.0000       348
    35.0200       338
    35.0400       324
    35.0600       274
    35.0800       318
    35.1000       318
    35.1200       324
    35.1400       306
    35.1600       300
    35.1800       298
    35.2000       280
    35.2200       264
    35.2400       246
    35.2600       276
    35.2800       266
    35.3000       254
    35.3200       268
    35.3400       234
    35.3600       232
    35.3800       238
    35.4000       242
    35.4200       262
    35.4400       250
    35.4600       272
    35.4800       266
    35.5000       272
    35.5200       280
    35.5400       262
    35.5600       262
    35.5800       282
    35.6000       294
    35.6200       300
    35.6400       272
    35.6600       284
    35.6800       296
    35.7000       320
    35.7200       300
    35.7400       330
    35.7600       338
    35.7800       388
    35.8000       356
    35.8200       384
    35.8400       406
    35.8600       412
    35.8800       432
    35.9000       444
    35.9200       480
    35.9400       526
    35.9600       536
    35.9800       612
    36.0000       626
    36.0200       666
    36.0400       686
    36.0600       748
    36.0800       788
    36.1000       684
    36.1200       748
    36.1400       758
    36.1600       736
    36.1800       742
    36.2000       686
    36.2200       668
    36.2400       600
    36.2600       544
    36.2800       504
    36.3000       454
    36.3200       428
    36.3400       386
    36.3600       408
    36.3800       362
    36.4000       308
    36.4200       350
    36.4400       362
    36.4600       368
    36.4800       318
    36.5000       380
    36.5200       390
    36.5400       386
    36.5600       404
    36.5800       392
    36.6000       442
    36.6200       464
    36.6400       474
    36.6600       468
    36.6800       498
    36.7000       652
    36.7200       686
    36.7400       744
    36.7600       826
    36.7800       888
    36.8000      1014
    36.8200      1200
    36.8400      1298
    36.8600      1394
    36.8800      1544
    36.9000      1510
    36.9200      1582
    36.9400      1508
    36.9600      1398
    36.9800      1322
    37.0000      1254
    37.0200      1170
    37.0400      1178
    37.0600      1092
    37.0800      1032
    37.1000       974
    37.1200       974
    37.1400       998
    37.1600      1010
    37.1800       944
    37.2000       958
    37.2200       978
    37.2400       862
    37.2600       884
    37.2800       850
    37.3000       776
    37.3200       750
    37.3400       704
    37.3600       676
    37.3800       660
    37.4000       594
    37.4200       598
    37.4400       580
    37.4600       550
    37.4800       532
    37.5000       558
    37.5200       546
    37.5400       552
    37.5600       538
    37.5800       572
    37.6000       602
    37.6200       578
    37.6400       590
    37.6600       640
    37.6800       592
    37.7000       628
    37.7200       614
    37.7400       684
    37.7600       678
    37.7800       684
    37.8000       732
    37.8200       708
    37.8400       800
    37.8600       796
    37.8800       852
    37.9000       970
    37.9200      1010
    37.9400      1232
    37.9600      1258
    37.9800      1402
    38.0000      1506
    38.0200      1690
    38.0400      1690
    38.0600      1812
    38.0800      1640
    38.1000      1652
    38.1200      1634
    38.1400      1592
    38.1600      1504
    38.1800      1550
    38.2000      1416
    38.2200      1452
    38.2400      1478
    38.2600      1640
    38.2800      1756
    38.3000      1750
    38.3200      2000
    38.3400      2222
    38.3600      2560
    38.3800      2844
    38.4000      3098
    38.4200      3490
    38.4400      3632
    38.4600      4194
    38.4800      4314
    38.5000      4402
    38.5200      4782
    38.5400      4810
    38.5600      4810
    38.5800      4996
    38.6000      5050
    38.6200      5134
    38.6400      4990
    38.6600      4710
    38.6800      4744
    38.7000      4592
    38.7200      4324
    38.7400      4110
    38.7600      3888
    38.7800      3432
    38.8000      3178
    38.8200      2914
    38.8400      2480
    38.8600      2226
    38.8800      2024
    38.9000      1866
    38.9200      1598
    38.9400      1548
    38.9600      1416
    38.9800      1316
    39.0000      1206
    39.0200      1146
    39.0400      1144
    39.0600      1160
    39.0800      1118
    39.1000      1174
    39.1200      1232
    39.1400      1196
    39.1600      1162
    39.1800      1268
    39.2000      1272
    39.2200      1222
    39.2400      1274
    39.2600      1340
    39.2800      1282
    39.3000      1282
    39.3200      1264
    39.3400      1276
    39.3600      1252
    39.3800      1270
    39.4000      1110
    39.4200      1098
    39.4400      1094
    39.4600      1052
    39.4800      1004
    39.5000       962
    39.5200      1022
    39.5400      1002
    39.5600      1010
    39.5800      1154
    39.6000      1204
    39.6200      1310
    39.6400      1418
    39.6600      1638
    39.6800      1648
    39.7000      1760
    39.7200      1800
    39.7400      1772
    39.7600      1768
    39.7800      1614
    39.8000      1546
    39.8200      1424
    39.8400      1262
    39.8600      1206
    39.8800      1070
    39.9000       904
    39.9200       864
    39.9400       794
    39.9600       788
    39.9800       740
    40.0000       714
    40.0200       736
    40.0400       714
    40.0600       720
    40.0800       740
    40.1000       762
    40.1200       770
    40.1400       778
    40.1600       756
    40.1800       770
    40.2000       854
    40.2200       772
    40.2400       848
    40.2600       794
    40.2800       796
    40.3000       788
    40.3200       870
    40.3400       816
    40.3600       926
    40.3800       914
    40.4000      1002
    40.4200      1036
    40.4400      1064
    40.4600      1142
    40.4800      1226
    40.5000      1286
    40.5200      1316
    40.5400      1288
    40.5600      1388
    40.5800      1328
    40.6000      1312
    40.6200      1356
    40.6400      1240
    40.6600      1162
    40.6800      1144
    40.7000      1102
    40.7200       970
    40.7400       920
    40.7600       834
    40.7800       748
    40.8000       764
    40.8200       724
    40.8400       642
    40.8600       646
    40.8800       622
    40.9000       628
    40.9200       642
    40.9400       612
    40.9600       618
    40.9800       624
    41.0000       688
    41.0200       668
    41.0400       732
    41.0600       776
    41.0800       788
    41.1000       870
    41.1200       982
    41.1400      1074
    41.1600      1228
    41.1800      1394
    41.2000      1402
    41.2200      1648
    41.2400      1718
    41.2600      1894
    41.2800      1942
    41.3000      2076
    41.3200      2044
    41.3400      2078
    41.3600      2036
    41.3800      2066
    41.4000      1988
    41.4200      1924
    41.4400      1876
    41.4600      1786
    41.4800      1716
    41.5000      1516
    41.5200      1386
    41.5400      1276
    41.5600      1230
    41.5800      1082
    41.6000       926
    41.6200       910
    41.6400       900
    41.6600       812
    41.6800       810
    41.7000       774
    41.7200       862
    41.7400       904
    41.7600       878
    41.7800       960
    41.8000      1036
    41.8200      1166
    41.8400      1154
    41.8600      1340
    41.8800      1366
    41.9000      1364
    41.9200      1382
    41.9400      1394
    41.9600      1252
    41.9800      1250
    42.0000      1130
    42.0200      1116
    42.0400       996
    42.0600       926
    42.0800       858
    42.1000       758
    42.1200       668
    42.1400       630
    42.1600       582
    42.1800       570
    42.2000       514
    42.2200       462
    42.2400       438
    42.2600       418
    42.2800       422
    42.3000       424
    42.3200       404
    42.3400       380
    42.3600       388
    42.3800       410
    42.4000       380
    42.4200       400
    42.4400       390
    42.4600       378
    42.4800       340
    42.5000       342
    42.5200       322
    42.5400       334
    42.5600       354
    42.5800       324
    42.6000       304
    42.6200       348
    42.6400       338
    42.6600       336
    42.6800       324
    42.7000       348
    42.7200       354
    42.7400       380
    42.7600       378
    42.7800       370
    42.8000       364
    42.8200       340
    42.8400       352
    42.8600       400
    42.8800       446
    42.9000       444
    42.9200       440
    42.9400       462
    42.9600       476
    42.9800       536
    43.0000       552
    43.0200       638
    43.0400       686
    43.0600       738
    43.0800       796
    43.1000       924
    43.1200       994
    43.1400      1040
    43.1600      1194
    43.1800      1306
    43.2000      1414
    43.2200      1418
    43.2400      1466
    43.2600      1450
    43.2800      1428
    43.3000      1388
    43.3200      1316
    43.3400      1178
    43.3600      1076
    43.3800      1008
    43.4000       880
    43.4200       820
    43.4400       734
    43.4600       632
    43.4800       630
    43.5000       566
    43.5200       526
    43.5400       482
    43.5600       448
    43.5800       450
    43.6000       494
    43.6200       442
    43.6400       492
    43.6600       446
    43.6800       516
    43.7000       508
    43.7200       546
    43.7400       532
    43.7600       510
    43.7800       582
    43.8000       556
    43.8200       572
    43.8400       562
    43.8600       636
    43.8800       640
    43.9000       592
    43.9200       596
    43.9400       602
    43.9600       544
    43.9800       498
    44.0000       530
    44.0200       500
    44.0400       486
    44.0600       466
    44.0800       468
    44.1000       422
    44.1200       464
    44.1400       456
    44.1600       458
    44.1800       456
    44.2000       466
    44.2200       488
    44.2400       532
    44.2600       472
    44.2800       524
    44.3000       522
    44.3200       504
    44.3400       526
    44.3600       508
    44.3800       576
    44.4000       582
    44.4200       590
    44.4400       600
    44.4600       698
    44.4800       718
    44.5000       768
    44.5200       846
    44.5400       868
    44.5600       968
    44.5800       998
    44.6000      1066
    44.6200      1166
    44.6400      1234
    44.6600      1314
    44.6800      1398
    44.7000      1304
    44.7200      1350
    44.7400      1422
    44.7600      1422
    44.7800      1382
    44.8000      1384
    44.8200      1358
    44.8400      1386
    44.8600      1382
    44.8800      1486
    44.9000      1452
    44.9200      1538
    44.9400      1598
    44.9600      1678
    44.9800      1774
    45.0000      1826
    45.0200      2024
    45.0400      2062
    45.0600      2156
    45.0800      2276
    45.1000      2292
    45.1200      2312
    45.1400      2246
    45.1600      2290
    45.1800      2220
    45.2000      2224
    45.2200      2020
    45.2400      2130
    45.2600      2072
    45.2800      1894
    45.3000      1848
    45.3200      1808
    45.3400      1648
    45.3600      1526
    45.3800      1486
    45.4000      1330
    45.4200      1254
    45.4400      1220
    45.4600      1144
    45.4800      1138
    45.5000      1146
    45.5200      1044
    45.5400      1034
    45.5600      1048
    45.5800       946
    45.6000       906
    45.6200       956
    45.6400       864
    45.6600       852
    45.6800       934
    45.7000       784
    45.7200       850
    45.7400       816
    45.7600       868
    45.7800       738
    45.8000       794
    45.8200       838
    45.8400       834
    45.8600       836
    45.8800       740
    45.9000       746
    45.9200       804
    45.9400       730
    45.9600       718
    45.9800       718
    46.0000       674
    46.0200       656
    46.0400       680
    46.0600       692
    46.0800       708
    46.1000       704
    46.1200       666
    46.1400       680
    46.1600       702
    46.1800       696
    46.2000       712
    46.2200       766
    46.2400       760
    46.2600       774
    46.2800       824
    46.3000       864
    46.3200       960
    46.3400      1018
    46.3600      1044
    46.3800      1150
    46.4000      1180
    46.4200      1350
    46.4400      1472
    46.4600      1536
    46.4800      1724
    46.5000      1918
    46.5200      2142
    46.5400      2290
    46.5600      2636
    46.5800      2982
    46.6000      3260
    46.6200      3696
    46.6400      4230
    46.6600      4536
    46.6800      4954
    46.7000      5386
    46.7200      5612
    46.7400      5660
    46.7600      5482
    46.7800      5286
    46.8000      4924
    46.8200      4638
    46.8400      4292
    46.8600      3908
    46.8800      3448
    46.9000      3122
    46.9200      2716
    46.9400      2334
    46.9600      1984
    46.9800      1798
    47.0000      1582
    47.0200      1352
    47.0400      1210
    47.0600      1078
    47.0800      1066
    47.1000       870
    47.1200       876
    47.1400       764
    47.1600       812
    47.1800       702
    47.2000       664
    47.2200       616
    47.2400       616
    47.2600       574
    47.2800       536
    47.3000       534
    47.3200       538
    47.3400       504
    47.3600       526
    47.3800       454
    47.4000       500
    47.4200       464
    47.4400       488
    47.4600       430
    47.4800       456
    47.5000       460
    47.5200       424
    47.5400       438
    47.5600       462
    47.5800       430
    47.6000       450
    47.6200       426
    47.6400       426
    47.6600       464
    47.6800       504
    47.7000       490
    47.7200       414
    47.7400       486
    47.7600       564
    47.7800       590
    47.8000       556
    47.8200       636
    47.8400       602
    47.8600       636
    47.8800       670
    47.9000       612
    47.9200       642
    47.9400       588
    47.9600       598
    47.9800       664
    48.0000       612
    48.0200       582
    48.0400       572
    48.0600       598
    48.0800       622
    48.1000       572
    48.1200       638
    48.1400       616
    48.1600       622
    48.1800       744
    48.2000       696
    48.2200       748
    48.2400       736
    48.2600       764
    48.2800       742
    48.3000       798
    48.3200       782
    48.3400       784
    48.3600       770
    48.3800       794
    48.4000       816
    48.4200       856
    48.4400       926
    48.4600       932
    48.4800      1030
    48.5000      1044
    48.5200      1144
    48.5400      1144
    48.5600      1208
    48.5800      1222
    48.6000      1200
    48.6200      1302
    48.6400      1294
    48.6600      1268
    48.6800      1296
    48.7000      1178
    48.7200      1146
    48.7400      1112
    48.7600       984
    48.7800       976
    48.8000       990
    48.8200       896
    48.8400       814
    48.8600       796
    48.8800       686
    48.9000       692
    48.9200       594
    48.9400       622
    48.9600       534
    48.9800       534
    49.0000       484
    49.0200       492
    49.0400       436
    49.0600       420
    49.0800       420
    49.1000       400
    49.1200       352
    49.1400       390
    49.1600       368
    49.1800       362
    49.2000       362
    49.2200       336
    49.2400       360
    49.2600       306
    49.2800       362
    49.3000       330
    49.3200       336
    49.3400       292
    49.3600       348
    49.3800       300
    49.4000       284
    49.4200       296
    49.4400       342
    49.4600       306
    49.4800       336
    49.5000       312
    49.5200       284
    49.5400       312
    49.5600       336
    49.5800       306
    49.6000       292
    49.6200       310
    49.6400       314
    49.6600       318
    49.6800       316
    49.7000       352
    49.7200       344
    49.7400       356
    49.7600       366
    49.7800       346
    49.8000       346
    49.8200       382
    49.8400       392
    49.8600       386
    49.8800       412
    49.9000       408
    49.9200       450
    49.9400       422
    49.9600       442
    49.9800       512
    50.0000       518
    50.0200       536
    50.0400       578
    50.0600       534
    50.0800       624
    50.1000       640
    50.1200       672
    50.1400       782
    50.1600       824
    50.1800       930
    50.2000      1000
    50.2200      1056
    50.2400      1186
    50.2600      1284
    50.2800      1330
    50.3000      1432
    50.3200      1432
    50.3400      1482
    50.3600      1488
    50.3800      1456
    50.4000      1386
    50.4200      1534
    50.4400      1370
    50.4600      1362
    50.4800      1324
    50.5000      1258
    50.5200      1202
    50.5400      1234
    50.5600      1154
    50.5800      1184
    50.6000      1202
    50.6200      1250
    50.6400      1264
    50.6600      1236
    50.6800      1248
    50.7000      1390
    50.7200      1404
    50.7400      1484
    50.7600      1518
    50.7800      1596
    50.8000      1624
    50.8200      1654
    50.8400      1610
    50.8600      1578
    50.8800      1540
    50.9000      1502
    50.9200      1484
    50.9400      1408
    50.9600      1280
    50.9800      1260
    51.0000      1178
    51.0200      1098
    51.0400      1030
    51.0600       970
    51.0800       944
    51.1000       908
    51.1200       862
    51.1400       764
    51.1600       830
    51.1800       724
    51.2000       790
    51.2200       774
    51.2400       824
    51.2600       792
    51.2800       756
    51.3000       794
    51.3200       772
    51.3400       840
    51.3600       838
    51.3800       804
    51.4000       824
    51.4200       820
    51.4400       798
    51.4600       818
    51.4800       858
    51.5000       844
    51.5200       886
    51.5400       844
    51.5600       892
    51.5800       802
    51.6000       896
    51.6200       868
    51.6400       888
    51.6600       900
    51.6800       962
    51.7000      1012
    51.7200       942
    51.7400      1066
    51.7600      1152
    51.7800      1228
    51.8000      1342
    51.8200      1414
    51.8400      1500
    51.8600      1570
    51.8800      1740
    51.9000      1708
    51.9200      1682
    51.9400      1712
    51.9600      1708
    51.9800      1546
    52.0000      1494
    52.0200      1372
    52.0400      1398
    52.0600      1322
    52.0800      1180
    52.1000      1104
    52.1200      1016
    52.1400       922
    52.1600       934
    52.1800       792
    52.2000       726
    52.2200       752
    52.2400       682
    52.2600       634
    52.2800       658
    52.3000       642
    52.3200       574
    52.3400       628
    52.3600       610
    52.3800       630
    52.4000       720
    52.4200       716
    52.4400       756
    52.4600       802
    52.4800       784
    52.5000       904
    52.5200       898
    52.5400       888
    52.5600      1070
    52.5800      1148
    52.6000      1086
    52.6200      1108
    52.6400      1194
    52.6600      1168
    52.6800      1156
    52.7000      1126
    52.7200      1154
    52.7400      1090
    52.7600      1006
    52.7800      1044
    52.8000      1014
    52.8200       970
    52.8400       924
    52.8600       842
    52.8800       830
    52.9000       776
    52.9200       788
    52.9400       728
    52.9600       718
    52.9800       642
    53.0000       706
    53.0200       652
    53.0400       662
    53.0600       720
    53.0800       740
    53.1000       724
    53.1200       730
    53.1400       786
    53.1600       814
    53.1800       888
    53.2000       916
    53.2200      1086
    53.2400      1100
    53.2600      1234
    53.2800      1266
    53.3000      1288
    53.3200      1306
    53.3400      1240
    53.3600      1302
    53.3800      1228
    53.4000      1236
    53.4200      1142
    53.4400      1092
    53.4600       998
    53.4800       994
    53.5000       904
    53.5200       906
    53.5400       822
    53.5600       782
    53.5800       702
    53.6000       726
    53.6200       644
    53.6400       674
    53.6600       610
    53.6800       662
    53.7000       612
    53.7200       578
    53.7400       526
    53.7600       512
    53.7800       504
    53.8000       492
    53.8200       502
    53.8400       484
    53.8600       468
    53.8800       436
    53.9000       470
    53.9200       464
    53.9400       470
    53.9600       454
    53.9800       444
    54.0000       408
    54.0200       450
    54.0400       404
    54.0600       522
    54.0800       416
    54.1000       472
    54.1200       486
    54.1400       466
    54.1600       518
    54.1800       512
    54.2000       504
    54.2200       558
    54.2400       546
    54.2600       600
    54.2800       588
    54.3000       576
    54.3200       584
    54.3400       636
    54.3600       584
    54.3800       620
    54.4000       666
    54.4200       636
    54.4400       648
    54.4600       676
    54.4800       580
    54.5000       604
    54.5200       634
    54.5400       670
    54.5600       604
    54.5800       592
    54.6000       660
    54.6200       650
    54.6400       684
    54.6600       656
    54.6800       684
    54.7000       722
    54.7200       748
    54.7400       752
    54.7600       792
    54.7800       758
    54.8000       762
    54.8200       766
    54.8400       750
    54.8600       772
    54.8800       736
    54.9000       742
    54.9200       792
    54.9400       758
    54.9600       806
    54.9800       794
    55.0000       824
    55.0200       818
    55.0400       872
    55.0600       912
    55.0800       906
    55.1000       924
    55.1200      1006
    55.1400      1080
    55.1600      1058
    55.1800      1064
    55.2000      1102
    55.2200      1114
    55.2400      1048
    55.2600      1088
    55.2800      1100
    55.3000      1090
    55.3200      1122
    55.3400       994
    55.3600      1034
    55.3800      1026
    55.4000       926
    55.4200       910
    55.4400       832
    55.4600       840
    55.4800       846
    55.5000       756
    55.5200       752
    55.5400       732
    55.5600       668
    55.5800       648
    55.6000       582
    55.6200       542
    55.6400       562
    55.6600       528
    55.6800       528
    55.7000       546
    55.7200       482
    55.7400       494
    55.7600       450
    55.7800       398
    55.8000       400
    55.8200       390
    55.8400       370
    55.8600       374
    55.8800       352
    55.9000       360
    55.9200       344
    55.9400       340
    55.9600       354
    55.9800       326
    56.0000       298
    56.0200       318
    56.0400       340
    56.0600       328
    56.0800       340
    56.1000       292
    56.1200       316
    56.1400       326
    56.1600       344
    56.1800       326
    56.2000       322
    56.2200       322
    56.2400       310
    56.2600       308
    56.2800       322
    56.3000       344
    56.3200       326
    56.3400       330
    56.3600       360
    56.3800       358
    56.4000       374
    56.4200       352
    56.4400       334
    56.4600       378
    56.4800       394
    56.5000       384
    56.5200       418
    56.5400       448
    56.5600       436
    56.5800       488
    56.6000       434
    56.6200       482
    56.6400       492
    56.6600       488
    56.6800       526
    56.7000       540
    56.7200       514
    56.7400       570
    56.7600       508
    56.7800       506
    56.8000       488
    56.8200       494
    56.8400       488
    56.8600       496
    56.8800       492
    56.9000       474
    56.9200       468
    56.9400       462
    56.9600       504
    56.9800       452
    57.0000       444
    57.0200       444
    57.0400       460
    57.0600       464
    57.0800       452
    57.1000       484
    57.1200       446
    57.1400       490
    57.1600       552
    57.1800       552
    57.2000       654
    57.2200       666
    57.2400       716
    57.2600       774
    57.2800       788
    57.3000       860
    57.3200       914
    57.3400      1076
    57.3600      1132
    57.3800      1102
    57.4000      1154
    57.4200      1246
    57.4400      1272
    57.4600      1214
    57.4800      1258
    57.5000      1142
    57.5200      1172
    57.5400      1154
    57.5600      1114
    57.5800      1118
    57.6000      1150
    57.6200      1122
    57.6400      1104
    57.6600      1102
    57.6800      1104
    57.7000      1200
    57.7200      1196
    57.7400      1218
    57.7600      1224
    57.7800      1288
    57.8000      1214
    57.8200      1144
    57.8400      1154
    57.8600      1096
    57.8800      1034
    57.9000      1026
    57.9200      1018
    57.9400       904
    57.9600       856
    57.9800       854
    58.0000       814
    58.0200       822
    58.0400       688
    58.0600       716
    58.0800       696
    58.1000       674
    58.1200       688
    58.1400       702
    58.1600       674
    58.1800       676
    58.2000       724
    58.2200       752
    58.2400       782
    58.2600       810
    58.2800       794
    58.3000       940
    58.3200       922
    58.3400       962
    58.3600      1046
    58.3800      1090
    58.4000      1150
    58.4200      1212
    58.4400      1238
    58.4600      1316
    58.4800      1416
    58.5000      1460
    58.5200      1524
    58.5400      1560
    58.5600      1652
    58.5800      1700
    58.6000      1774
    58.6200      1850
    58.6400      1924
    58.6600      2026
    58.6800      2136
    58.7000      2174
    58.7200      2252
    58.7400      2200
    58.7600      2188
    58.7800      2142
    58.8000      2178
    58.8200      2082
    58.8400      2022
    58.8600      1958
    58.8800      1872
    58.9000      1806
    58.9200      1658
    58.9400      1600
    58.9600      1434
    58.9800      1390
    59.0000      1260
    59.0200      1242
    59.0400      1178
    59.0600      1142
    59.0800      1018
    59.1000       984
    59.1200       932
    59.1400       948
    59.1600       908
    59.1800       886
    59.2000       810
    59.2200       824
    59.2400       884
    59.2600       838
    59.2800       932
    59.3000       982
    59.3200      1022
    59.3400      1044
    59.3600      1118
    59.3800      1062
    59.4000      1146
    59.4200      1224
    59.4400      1204
    59.4600      1290
    59.4800      1290
    59.5000      1272
    59.5200      1192
    59.5400      1236
    59.5600      1194
    59.5800      1212
    59.6000      1162
    59.6200      1122
    59.6400      1164
    59.6600      1092
    59.6800      1078
    59.7000      1114
    59.7200      1104
    59.7400      1078
    59.7600      1054
    59.7800      1038
    59.8000      1026
    59.8200       986
    59.8400       988
    59.8600       978
    59.8800       908
    59.9000       846
    59.9200       862
    59.9400       822
    59.9600       764
    59.9800       764
    60.0000       718
    60.0200       714
    60.0400       666
    60.0600       652
    60.0800       652
    60.1000       618
    60.1200       628
    60.1400       510
    60.1600       550
    60.1800       534
    60.2000       476
    60.2200       426
    60.2400       450
    60.2600       424
    60.2800       402
    60.3000       446
    60.3200       428
    60.3400       432
    60.3600       372
    60.3800       396
    60.4000       420
    60.4200       370
    60.4400       362
    60.4600       362
    60.4800       404
    60.5000       398
    60.5200       372
    60.5400       410
    60.5600       416
    60.5800       376
    60.6000       350
    60.6200       408
    60.6400       390
    60.6600       424
    60.6800       408
    60.7000       430
    60.7200       446
    60.7400       436
    60.7600       438
    60.7800       444
    60.8000       446
    60.8200       476
    60.8400       472
    60.8600       466
    60.8800       476
    60.9000       516
    60.9200       524
    60.9400       510
    60.9600       508
    60.9800       558
    61.0000       592
    61.0200       572
    61.0400       676
    61.0600       682
    61.0800       638
    61.1000       708
    61.1200       698
    61.1400       726
    61.1600       820
    61.1800       780
    61.2000       824
    61.2200       794
    61.2400       820
    61.2600       894
    61.2800       870
    61.3000       950
    61.3200       950
    61.3400       956
    61.3600      1018
    61.3800       968
    61.4000      1024
    61.4200      1072
    61.4400      1090
    61.4600      1098
    61.4800      1092
    61.5000      1152
    61.5200      1104
    61.5400      1076
    61.5600      1052
    61.5800      1054
    61.6000      1078
    61.6200       970
    61.6400       898
    61.6600       900
    61.6800       852
    61.7000       836
    61.7200       738
    61.7400       722
    61.7600       750
    61.7800       648
    61.8000       600
    61.8200       622
    61.8400       546
    61.8600       558
    61.8800       518
    61.9000       546
    61.9200       526
    61.9400       530
    61.9600       576
    61.9800       516
    62.0000       552
    62.0200       486
    62.0400       516
    62.0600       482
    62.0800       510
    62.1000       490
    62.1200       528
    62.1400       468
    62.1600       490
    62.1800       496
    62.2000       478
    62.2200       466
    62.2400       424
    62.2600       482
    62.2800       434
    62.3000       434
    62.3200       414
    62.3400       430
    62.3600       450
    62.3800       412
    62.4000       380
    62.4200       416
    62.4400       380
    62.4600       400
    62.4800       378
    62.5000       354
    62.5200       378
    62.5400       416
    62.5600       382
    62.5800       400
    62.6000       384
    62.6200       388
    62.6400       376
    62.6600       370
    62.6800       370
    62.7000       356
    62.7200       408
    62.7400       398
    62.7600       394
    62.7800       356
    62.8000       402
    62.8200       386
    62.8400       378
    62.8600       376
    62.8800       418
    62.9000       350
    62.9200       350
    62.9400       344
    62.9600       356
    62.9800       332
    63.0000       334
    63.0200       306
    63.0400       298
    63.0600       288
    63.0800       328
    63.1000       308
    63.1200       284
    63.1400       286
    63.1600       278
    63.1800       264
    63.2000       262
    63.2200       292
    63.2400       266
    63.2600       284
    63.2800       266
    63.3000       276
    63.3200       266
    63.3400       290
    63.3600       258
    63.3800       264
    63.4000       312
    63.4200       288
    63.4400       296
    63.4600       266
    63.4800       284
    63.5000       280
    63.5200       300
    63.5400       314
    63.5600       346
    63.5800       314
    63.6000       374
    63.6200       362
    63.6400       402
    63.6600       452
    63.6800       442
    63.7000       400
    63.7200       518
    63.7400       502
    63.7600       562
    63.7800       600
    63.8000       570
    63.8200       600
    63.8400       646
    63.8600       656
    63.8800       634
    63.9000       702
    63.9200       670
    63.9400       618
    63.9600       586
    63.9800       584
    64.0000       616
    64.0200       578
    64.0400       526
    64.0600       508
    64.0800       522
    64.1000       490
    64.1200       474
    64.1400       440
    64.1600       464
    64.1800       424
    64.2000       376
    64.2200       418
    64.2400       362
    64.2600       380
    64.2800       336
    64.3000       344
    64.3200       352
    64.3400       330
    64.3600       330
    64.3800       314
    64.4000       302
    64.4200       346
    64.4400       304
    64.4600       272
    64.4800       290
    64.5000       306
    64.5200       324
    64.5400       294
    64.5600       296
    64.5800       320
    64.6000       306
    64.6200       306
    64.6400       286
    64.6600       350
    64.6800       310
    64.7000       326
    64.7200       332
    64.7400       344
    64.7600       346
    64.7800       328
    64.8000       370
    64.8200       370
    64.8400       396
    64.8600       408
    64.8800       408
    64.9000       460
    64.9200       482
    64.9400       464
    64.9600       508
    64.9800       462
    65.0000       514
    65.0200       524
    65.0400       538
    65.0600       498
    65.0800       542
    65.1000       556
    65.1200       522
    65.1400       532
    65.1600       594
    65.1800       538
    65.2000       552
    65.2200       554
    65.2400       590
    65.2600       536
    65.2800       574
    65.3000       576
    65.3200       498
    65.3400       532
    65.3600       512
    65.3800       476
    65.4000       506
    65.4200       476
    65.4400       482
    65.4600       448
    65.4800       460
    65.5000       456
    65.5200       432
    65.5400       468
    65.5600       422
    65.5800       418
    65.6000       392
    65.6200       398
    65.6400       430
    65.6600       352
    65.6800       362
    65.7000       378
    65.7200       362
    65.7400       362
    65.7600       368
    65.7800       362
    65.8000       338
    65.8200       332
    65.8400       338
    65.8600       286
    65.8800       308
    65.9000       306
    65.9200       278
    65.9400       290
    65.9600       302
    65.9800       326
    66.0000       260
    66.0200       284
    66.0400       290
    66.0600       284
    66.0800       282
    66.1000       256
    66.1200       252
    66.1400       294
    66.1600       274
    66.1800       276
    66.2000       308
    66.2200       286
    66.2400       290
    66.2600       288
    66.2800       298
    66.3000       342
    66.3200       336
    66.3400       308
    66.3600       334
    66.3800       314
    66.4000       350
    66.4200       334
    66.4400       318
    66.4600       346
    66.4800       330
    66.5000       372
    66.5200       350
    66.5400       376
    66.5600       394
    66.5800       424
    66.6000       428
    66.6200       410
    66.6400       462
    66.6600       492
    66.6800       472
    66.7000       532
    66.7200       574
    66.7400       586
    66.7600       598
    66.7800       652
    66.8000       670
    66.8200       708
    66.8400       750
    66.8600       806
    66.8800       810
    66.9000       798
    66.9200       828
    66.9400       866
    66.9600       786
    66.9800       802
    67.0000       754
    67.0200       722
    67.0400       758
    67.0600       742
    67.0800       744
    67.1000       672
    67.1200       694
    67.1400       632
    67.1600       620
    67.1800       588
    67.2000       552
    67.2200       536
    67.2400       490
    67.2600       492
    67.2800       488
    67.3000       434
    67.3200       428
    67.3400       364
    67.3600       388
    67.3800       390
    67.4000       336
    67.4200       358
    67.4400       368
    67.4600       330
    67.4800       328
    67.5000       308
    67.5200       366
    67.5400       272
    67.5600       298
    67.5800       318
    67.6000       328
    67.6200       288
    67.6400       328
    67.6600       318
    67.6800       306
    67.7000       332
    67.7200       310
    67.7400       326
    67.7600       306
    67.7800       344
    67.8000       336
    67.8200       318
    67.8400       340
    67.8600       364
    67.8800       366
    67.9000       404
    67.9200       414
    67.9400       406
    67.9600       480
    67.9800       512
    68.0000       550
    68.0200       600
    68.0400       616
    68.0600       652
    68.0800       730
    68.1000       730
    68.1200       798
    68.1400       778
    68.1600       882
    68.1800       860
    68.2000       868
    68.2200       892
    68.2400       920
    68.2600       968
    68.2800       916
    68.3000       866
    68.3200       890
    68.3400       876
    68.3600       806
    68.3800       810
    68.4000       830
    68.4200       780
    68.4400       744
    68.4600       682
    68.4800       734
    68.5000       644
    68.5200       612
    68.5400       610
    68.5600       612
    68.5800       520
    68.6000       532
    68.6200       450
    68.6400       488
    68.6600       456
    68.6800       450
    68.7000       422
    68.7200       400
    68.7400       398
    68.7600       380
    68.7800       390
    68.8000       380
    68.8200       338
    68.8400       350
    68.8600       340
    68.8800       342
    68.9000       356
    68.9200       332
    68.9400       346
    68.9600       358
    68.9800       316
    69.0000       280
    69.0200       368
    69.0400       310
    69.0600       390
    69.0800       314
    69.1000       330
    69.1200       328
    69.1400       374
    69.1600       324
    69.1800       340
    69.2000       312
    69.2200       338
    69.2400       356
    69.2600       382
    69.2800       358
    69.3000       406
    69.3200       406
    69.3400       374
    69.3600       422
    69.3800       428
    69.4000       422
    69.4200       446
    69.4400       462
    69.4600       454
    69.4800       448
    69.5000       472
    69.5200       412
    69.5400       384
    69.5600       422
    69.5800       448
    69.6000       420
    69.6200       450
    69.6400       430
    69.6600       406
    69.6800       410
    69.7000       362
    69.7200       388
    69.7400       396
    69.7600       370
    69.7800       408
    69.8000       424
    69.8200       376
    69.8400       400
    69.8600       352
    69.8800       350
    69.9000       372
    69.9200       326
    69.9400       356
    69.9600       324
    69.9800       342
    70.0000       298
    70.0200       346
    70.0400       306
    70.0600       290
    70.0800       282
    70.1000       288
    70.1200       274
    70.1400       266
    70.1600       248
    70.1800       286
    70.2000       256
    70.2200       260
    70.2400       240
    70.2600       242
    70.2800       246
    70.3000       246
    70.3200       238
    70.3400       242
    70.3600       218
    70.3800       222
    70.4000       236
    70.4200       250
    70.4400       222
    70.4600       220
    70.4800       232
    70.5000       224
    70.5200       232
    70.5400       246
    70.5600       242
    70.5800       236
    70.6000       248
    70.6200       238
    70.6400       250
    70.6600       216
    70.6800       226
    70.7000       212
    70.7200       232
    70.7400       192
    70.7600       222
    70.7800       242
    70.8000       226
    70.8200       212
    70.8400       232
    70.8600       222
    70.8800       206
    70.9000       242
    70.9200       218
    70.9400       252
    70.9600       194
    70.9800       234
    71.0000       196
    71.0200       234
    71.0400       208
    71.0600       220
    71.0800       234
    71.1000       230
    71.1200       216
    71.1400       224
    71.1600       218
    71.1800       234
    71.2000       280
    71.2200       274
    71.2400       294
    71.2600       288
    71.2800       250
    71.3000       350
    71.3200       268
    71.3400       338
    71.3600       324
    71.3800       332
    71.4000       330
    71.4200       356
    71.4400       360
    71.4600       410
    71.4800       434
    71.5000       430
    71.5200       486
    71.5400       486
    71.5600       464
    71.5800       468
    71.6000       522
    71.6200       452
    71.6400       474
    71.6600       466
    71.6800       486
    71.7000       470
    71.7200       488
    71.7400       486
    71.7600       460
    71.7800       454
    71.8000       432
    71.8200       434
    71.8400       382
    71.8600       422
    71.8800       386
    71.9000       418
    71.9200       378
    71.9400       412
    71.9600       374
    71.9800       358
    72.0000       408
    72.0200       412
    72.0400       376
    72.0600       360
    72.0800       376
    72.1000       348
    72.1200       362
    72.1400       380
    72.1600       402
    72.1800       378
    72.2000       386
    72.2200       416
    72.2400       406
    72.2600       418
    72.2800       442
    72.3000       424
    72.3200       456
    72.3400       436
    72.3600       494
    72.3800       476
    72.4000       452
    72.4200       470
    72.4400       496
    72.4600       476
    72.4800       492
    72.5000       470
    72.5200       456
    72.5400       460
    72.5600       488
    72.5800       496
    72.6000       522
    72.6200       476
    72.6400       484
    72.6600       500
    72.6800       500
    72.7000       498
    72.7200       494
    72.7400       508
    72.7600       480
    72.7800       518
    72.8000       526
    72.8200       522
    72.8400       476
    72.8600       500
    72.8800       514
    72.9000       468
    72.9200       524
    72.9400       462
    72.9600       438
    72.9800       406
    73.0000       422
    73.0200       450
    73.0400       418
    73.0600       414
    73.0800       400
    73.1000       382
    73.1200       372
    73.1400       348
    73.1600       338
    73.1800       300
    73.2000       310
    73.2200       316
    73.2400       324
    73.2600       298
    73.2800       280
    73.3000       274
    73.3200       256
    73.3400       276
    73.3600       222
    73.3800       272
    73.4000       258
    73.4200       264
    73.4400       250
    73.4600       234
    73.4800       278
    73.5000       262
    73.5200       252
    73.5400       254
    73.5600       270
    73.5800       238
    73.6000       264
    73.6200       280
    73.6400       280
    73.6600       282
    73.6800       282
    73.7000       284
    73.7200       294
    73.7400       296
    73.7600       300
    73.7800       328
    73.8000       348
    73.8200       300
    73.8400       340
    73.8600       314
    73.8800       294
    73.9000       316
    73.9200       348
    73.9400       322
    73.9600       348
    73.9800       342
    74.0000       326
    74.0200       288
    74.0400       376
    74.0600       344
    74.0800       334
    74.1000       342
    74.1200       310
    74.1400       322
    74.1600       360
    74.1800       324
    74.2000       318
    74.2200       288
    74.2400       304
    74.2600       340
    74.2800       324
    74.3000       272
    74.3200       282
    74.3400       296
    74.3600       272
    74.3800       284
    74.4000       254
    74.4200       220
    74.4400       256
    74.4600       256
    74.4800       222
    74.5000       222
    74.5200       222
    74.5400       242
    74.5600       242
    74.5800       218
    74.6000       202
    74.6200       222
    74.6400       200
    74.6600       208
    74.6800       216
    74.7000       208
    74.7200       230
    74.7400       206
    74.7600       198
    74.7800       198
    74.8000       234
    74.8200       196
    74.8400       196
    74.8600       192
    74.8800       176
    74.9000       194
    74.9200       204
    74.9400       212
    74.9600       220
    74.9800       210
    75.0000       180
    75.0200       206
    75.0400       236
    75.0600       200
    75.0800       232
    75.1000       218
    75.1200       206
    75.1400       256
    75.1600       222
    75.1800       216
    75.2000       234
    75.2200       230
    75.2400       236
    75.2600       232
    75.2800       238
    75.3000       244
    75.3200       234
    75.3400       274
    75.3600       248
    75.3800       262
    75.4000       230
    75.4200       252
    75.4400       240
    75.4600       248
    75.4800       230
    75.5000       234
    75.5200       212
    75.5400       224
    75.5600       276
    75.5800       238
    75.6000       258
    75.6200       278
    75.6400       244
    75.6600       250
    75.6800       238
    75.7000       234
    75.7200       266
    75.7400       234
    75.7600       266
    75.7800       256
    75.8000       236
    75.8200       264
    75.8400       230
    75.8600       244
    75.8800       220
    75.9000       232
    75.9200       242
    75.9400       264
    75.9600       250
    75.9800       262
    76.0000       234
    76.0200       234
    76.0400       236
    76.0600       258
    76.0800       258
    76.1000       256
    76.1200       276
    76.1400       256
    76.1600       250
    76.1800       262
    76.2000       258
    76.2200       290
    76.2400       290
    76.2600       280
    76.2800       294
    76.3000       298
    76.3200       282
    76.3400       308
    76.3600       344
    76.3800       364
    76.4000       300
    76.4200       344
    76.4400       314
    76.4600       368
    76.4800       332
    76.5000       328
    76.5200       362
    76.5400       334
    76.5600       346
    76.5800       380
    76.6000       382
    76.6200       380
    76.6400       390
    76.6600       382
    76.6800       372
    76.7000       390
    76.7200       378
    76.7400       366
    76.7600       394
    76.7800       356
    76.8000       388
    76.8200       368
    76.8400       334
    76.8600       356
    76.8800       360
    76.9000       316
    76.9200       282
    76.9400       340
    76.9600       326
    76.9800       310
    77.0000       324
    77.0200       306
    77.0400       304
    77.0600       300
    77.0800       326
    77.1000       300
    77.1200       310
    77.1400       280
    77.1600       338
    77.1800       338
    77.2000       362
    77.2200       324
    77.2400       360
    77.2600       318
    77.2800       324
    77.3000       348
    77.3200       338
    77.3400       398
    77.3600       354
    77.3800       394
    77.4000       404
    77.4200       406
    77.4400       434
    77.4600       456
    77.4800       484
    77.5000       498
    77.5200       452
    77.5400       546
    77.5600       564
    77.5800       554
    77.6000       594
    77.6200       560
    77.6400       576
    77.6600       618
    77.6800       618
    77.7000       662
    77.7200       674
    77.7400       602
    77.7600       602
    77.7800       604
    77.8000       610
    77.8200       606
    77.8400       616
    77.8600       572
    77.8800       550
    77.9000       612
    77.9200       506
    77.9400       578
    77.9600       546
    77.9800       556
    78.0000       532
    78.0200       540
    78.0400       490
    78.0600       414
    78.0800       440
    78.1000       442
    78.1200       424
    78.1400       416
    78.1600       394
    78.1800       378
    78.2000       354
    78.2200       382
    78.2400       382
    78.2600       398
    78.2800       378
    78.3000       392
    78.3200       366
    78.3400       382
    78.3600       360
    78.3800       324
    78.4000       370
    78.4200       370
    78.4400       344
    78.4600       370
    78.4800       404
    78.5000       342
    78.5200       386
    78.5400       358
    78.5600       384
    78.5800       398
    78.6000       386
    78.6200       428
    78.6400       366
    78.6600       394
    78.6800       378
    78.7000       368
    78.7200       384
    78.7400       344
    78.7600       378
    78.7800       388
    78.8000       364
    78.8200       368
    78.8400       372
    78.8600       364
    78.8800       352
    78.9000       324
    78.9200       362
    78.9400       320
    78.9600       344
    78.9800       290
    79.0000       280
    79.0200       318
    79.0400       302
    79.0600       300
    79.0800       328
    79.1000       292
    79.1200       300
    79.1400       278
    79.1600       278
    79.1800       242
    79.2000       268
    79.2200       246
    79.2400       288
    79.2600       264
    79.2800       228
    79.3000       286
    79.3200       264
    79.3400       252
    79.3600       276
    79.3800       266
    79.4000       244
    79.4200       214
    79.4400       244
    79.4600       250
    79.4800       282
    79.5000       240
    79.5200       258
    79.5400       250
    79.5600       254
    79.5800       262
    79.6000       248
    79.6200       256
    79.6400       230
    79.6600       260
    79.6800       270
    79.7000       222
    79.7200       222
    79.7400       252
    79.7600       214
    79.7800       244
    79.8000       214
    79.8200       238
    79.8400       242
    79.8600       228
    79.8800       240
    79.9000       240
    79.9200       238
    79.9400       224
    79.9600       240
    79.9800       254
    80.0000       224
    80.0200       204
    80.0400       274
    80.0600       250
    80.0800       234
    80.1000       206
    80.1200       236
    80.1400       232
    80.1600       242
    80.1800       222
    80.2000       230
    80.2200       260
    80.2400       236
    80.2600       222
    80.2800       266
    80.3000       238
    80.3200       264
    80.3400       266
    80.3600       252
    80.3800       244
    80.4000       258
    80.4200       274
    80.4400       254
    80.4600       286
    80.4800       288
    80.5000       264
    80.5200       252
    80.5400       258
    80.5600       282
    80.5800       246
    80.6000       270
    80.6200       248
    80.6400       274
    80.6600       292
    80.6800       244
    80.7000       252
    80.7200       250
    80.7400       250
    80.7600       264
    80.7800       252
    80.8000       298
    80.8200       248
    80.8400       230
    80.8600       254
    80.8800       236
    80.9000       246
    80.9200       274
    80.9400       238
    80.9600       224
    80.9800       236
    81.0000       214
    81.0200       224
    81.0400       222
    81.0600       232
    81.0800       210
    81.1000       238
    81.1200       234
    81.1400       194
    81.1600       230
    81.1800       212
    81.2000       222
    81.2200       220
    81.2400       216
    81.2600       208
    81.2800       228
    81.3000       218
    81.3200       208
    81.3400       230
    81.3600       256
    81.3800       262
    81.4000       252
    81.4200       272
    81.4400       240
    81.4600       234
    81.4800       232
    81.5000       268
    81.5200       234
    81.5400       260
    81.5600       274
    81.5800       250
    81.6000       264
    81.6200       266
    81.6400       266
    81.6600       248
    81.6800       284
    81.7000       276
    81.7200       298
    81.7400       294
    81.7600       264
    81.7800       334
    81.8000       274
    81.8200       294
    81.8400       354
    81.8600       300
    81.8800       314
    81.9000       342
    81.9200       304
    81.9400       316
    81.9600       308
    81.9800       332
    82.0000       346
    82.0200       348
    82.0400       300
    82.0600       328
    82.0800       318
    82.1000       336
    82.1200       348
    82.1400       346
    82.1600       334
    82.1800       344
    82.2000       342
    82.2200       362
    82.2400       376
    82.2600       388
    82.2800       352
    82.3000       366
    82.3200       372
    82.3400       380
    82.3600       420
    82.3800       388
    82.4000       404
    82.4200       434
    82.4400       384
    82.4600       436
    82.4800       368
    82.5000       400
    82.5200       440
    82.5400       402
    82.5600       436
    82.5800       460
    82.6000       476
    82.6200       460
    82.6400       436
    82.6600       476
    82.6800       492
    82.7000       508
    82.7200       540
    82.7400       526
    82.7600       584
    82.7800       550
    82.8000       568
    82.8200       606
    82.8400       580
    82.8600       608
    82.8800       612
    82.9000       612
    82.9200       586
    82.9400       588
    82.9600       576
    82.9800       566
    83.0000       546
    83.0200       514
    83.0400       506
    83.0600       568
    83.0800       504
    83.1000       502
    83.1200       514
    83.1400       496
    83.1600       484
    83.1800       510
    83.2000       480
    83.2200       428
    83.2400       458
    83.2600       442
    83.2800       430
    83.3000       410
    83.3200       380
    83.3400       374
    83.3600       362
    83.3800       414
    83.4000       378
    83.4200       370
    83.4400       390
    83.4600       400
    83.4800       364
    83.5000       346
    83.5200       314
    83.5400       332
    83.5600       312
    83.5800       320
    83.6000       330
    83.6200       300
    83.6400       312
    83.6600       310
    83.6800       330
    83.7000       316
    83.7200       284
    83.7400       308
    83.7600       288
    83.7800       306
    83.8000       286
    83.8200       274
    83.8400       294
    83.8600       294
    83.8800       306
    83.9000       286
    83.9200       284
    83.9400       310
    83.9600       290
    83.9800       284
    84.0000       300
    84.0200       304
    84.0400       304
    84.0600       324
    84.0800       322
    84.1000       314
    84.1200       332
    84.1400       318
    84.1600       294
    84.1800       294
    84.2000       334
    84.2200       310
    84.2400       334
    84.2600       290
    84.2800       270
    84.3000       296
    84.3200       304
    84.3400       328
    84.3600       282
    84.3800       334
    84.4000       312
    84.4200       330
    84.4400       314
    84.4600       284
    84.4800       308
    84.5000       338
    84.5200       298
    84.5400       272
    84.5600       308
    84.5800       306
    84.6000       320
    84.6200       270
    84.6400       304
    84.6600       284
    84.6800       278
    84.7000       300
    84.7200       312
    84.7400       300
    84.7600       282
    84.7800       306
    84.8000       296
    84.8200       298
    84.8400       276
    84.8600       272
    84.8800       284
    84.9000       304
    84.9200       284
    84.9400       280
    84.9600       300
    84.9800       244
    85.0000       282
    85.0200       258
    85.0400       232
    85.0600       238
    85.0800       262
    85.1000       224
    85.1200       248
    85.1400       238
    85.1600       220
    85.1800       232
    85.2000       232
    85.2200       232
    85.2400       230
    85.2600       254
    85.2800       256
    85.3000       228
    85.3200       222
    85.3400       244
    85.3600       258
    85.3800       230
    85.4000       232
    85.4200       242
    85.4400       244
    85.4600       254
    85.4800       260
    85.5000       266
    85.5200       282
    85.5400       258
    85.5600       258
    85.5800       286
    85.6000       284
    85.6200       256
    85.6400       274
    85.6600       316
    85.6800       308
    85.7000       280
    85.7200       288
    85.7400       294
    85.7600       266
    85.7800       240
    85.8000       298
    85.8200       248
    85.8400       250
    85.8600       314
    85.8800       282
    85.9000       288
    85.9200       280
    85.9400       266
    85.9600       266
    85.9800       270
    86.0000       310
    86.0200       278
    86.0400       254
    86.0600       248
    86.0800       248
    86.1000       242
    86.1200       224
    86.1400       248
    86.1600       238
    86.1800       232
    86.2000       236
    86.2200       220
    86.2400       222
    86.2600       244
    86.2800       218
    86.3000       242
    86.3200       230
    86.3400       238
    86.3600       222
    86.3800       272
    86.4000       244
    86.4200       232
    86.4400       232
    86.4600       264
    86.4800       236
    86.5000       252
    86.5200       240
    86.5400       234
    86.5600       224
    86.5800       286
    86.6000       250
    86.6200       236
    86.6400       246
    86.6600       236
    86.6800       266
    86.7000       278
    86.7200       290
    86.7400       312
    86.7600       266
    86.7800       284
    86.8000       290
    86.8200       308
    86.8400       288
    86.8600       308
    86.8800       306
    86.9000       296
    86.9200       358
    86.9400       346
    86.9600       310
    86.9800       346
    87.0000       326
    87.0200       306
    87.0400       352
    87.0600       324
    87.0800       330
    87.1000       302
    87.1200       318
    87.1400       320
    87.1600       324
    87.1800       302
    87.2000       296
    87.2200       304
    87.2400       326
    87.2600       290
    87.2800       290
    87.3000       320
    87.3200       332
    87.3400       276
    87.3600       316
    87.3800       308
    87.4000       290
    87.4200       294
    87.4400       322
    87.4600       326
    87.4800       326
    87.5000       320
    87.5200       292
    87.5400       308
    87.5600       298
    87.5800       282
    87.6000       328
    87.6200       314
    87.6400       354
    87.6600       310
    87.6800       346
    87.7000       354
    87.7200       312
    87.7400       316
    87.7600       346
    87.7800       310
    87.8000       354
    87.8200       340
    87.8400       322
    87.8600       330
    87.8800       360
    87.9000       344
    87.9200       316
    87.9400       368
    87.9600       342
    87.9800       364
    88.0000       318
    88.0200       350
    88.0400       318
    88.0600       370
    88.0800       344
    88.1000       390
    88.1200       362
    88.1400       366
    88.1600       350
    88.1800       368
    88.2000       348
    88.2200       380
    88.2400       380
    88.2600       358
    88.2800       412
    88.3000       394
    88.3200       392
    88.3400       394
    88.3600       360
    88.3800       380
    88.4000       404
    88.4200       356
    88.4400       370
    88.4600       400
    88.4800       408
    88.5000       382
    88.5200       374
    88.5400       384
    88.5600       366
    88.5800       346
    88.6000       382
    88.6200       368
    88.6400       370
    88.6600       346
    88.6800       356
    88.7000       344
    88.7200       318
    88.7400       358
    88.7600       324
    88.7800       334
    88.8000       306
    88.8200       310
    88.8400       308
    88.8600       270
    88.8800       272
    88.9000       284
    88.9200       286
    88.9400       258
    88.9600       244
    88.9800       302
    89.0000       272
    89.0200       262
    89.0400       270
    89.0600       206
    89.0800       252
    89.1000       226
    89.1200       206
    89.1400       244
    89.1600       246
    89.1800       258
    89.2000       228
    89.2200       248
    89.2400       230
    89.2600       272
    89.2800       224
    89.3000       242
    89.3200       210
    89.3400       242
    89.3600       226
    89.3800       262
    89.4000       222
    89.4200       246
    89.4400       234
    89.4600       248
    89.4800       246
    89.5000       224
    89.5200       220
    89.5400       236
    89.5600       254
    89.5800       276
    89.6000       248
    89.6200       228
    89.6400       222
    89.6600       246
    89.6800       260
    89.7000       232
    89.7200       274
    89.7400       260
    89.7600       242
    89.7800       276
    89.8000       268
    89.8200       240
    89.8400       270
    89.8600       278
    89.8800       250
    89.9000       246
    89.9200       318
    89.9400       284
    89.9600       294
    89.9800       270
    90.0000       286
