    10.0000       396
    10.0200       374
    10.0400       384
    10.0600       342
    10.0800       348
    10.1000       374
    10.1200       360
    10.1400       358
    10.1600       422
    10.1800       366
    10.2000       364
    10.2200       352
    10.2400       390
    10.2600       378
    10.2800       336
    10.3000       370
    10.3200       348
    10.3400       348
    10.3600       398
    10.3800       368
    10.4000       364
    10.4200       330
    10.4400       374
    10.4600       380
    10.4800       364
    10.5000       350
    10.5200       382
    10.5400       354
    10.5600       316
    10.5800       330
    10.6000       334
    10.6200       344
    10.6400       344
    10.6600       364
    10.6800       358
    10.7000       376
    10.7200       382
    10.7400       338
    10.7600       326
    10.7800       334
    10.8000       372
    10.8200       354
    10.8400       336
    10.8600       346
    10.8800       348
    10.9000       354
    10.9200       342
    10.9400       346
    10.9600       390
    10.9800       348
    11.0000       320
    11.0200       348
    11.0400       370
    11.0600       354
    11.0800       318
    11.1000       376
    11.1200       342
    11.1400       364
    11.1600       348
    11.1800       358
    11.2000       348
    11.2200       352
    11.2400       350
    11.2600       318
    11.2800       358
    11.3000       312
    11.3200       342
    11.3400       388
    11.3600       348
    11.3800       346
    11.4000       334
    11.4200       322
    11.4400       314
    11.4600       356
    11.4800       342
    11.5000       330
    11.5200       306
    11.5400       312
    11.5600       304
    11.5800       346
    11.6000       306
    11.6200       318
    11.6400       360
    11.6600       358
    11.6800       366
    11.7000       328
    11.7200       324
    11.7400       372
    11.7600       358
    11.7800       382
    11.8000       332
    11.8200       384
    11.8400       346
    11.8600       336
    11.8800       362
    11.9000       368
    11.9200       384
    11.9400       376
    11.9600       392
    11.9800       418
    12.0000       442
    12.0200       456
    12.0400       468
    12.0600       490
    12.0800       520
    12.1000       514
    12.1200       546
    12.1400       564
    12.1600       650
    12.1800       666
    12.2000       688
    12.2200       640
    12.2400       620
    12.2600       536
    12.2800       488
    12.3000       424
    12.3200       394
    12.3400       346
    12.3600       366
    12.3800       300
    12.4000       316
    12.4200       326
    12.4400       298
    12.4600       288
    12.4800       346
    12.5000       312
    12.5200       310
    12.5400       292
    12.5600       326
    12.5800       344
    12.6000       314
    12.6200       322
    12.6400       312
    12.6600       310
    12.6800       294
    12.7000       300
    12.7200       298
    12.7400       280
    12.7600       314
    12.7800       306
    12.8000       298
    12.8200       304
    12.8400       302
    12.8600       258
    12.8800       292
    12.9000       308
    12.9200       272
    12.9400       320
    12.9600       330
    12.9800       302
    13.0000       300
    13.0200       280
    13.0400       306
    13.0600       284
    13.0800       280
    13.1000       298
    13.1200       280
    13.1400       304
    13.1600       316
    13.1800       288
    13.2000       296
    13.2200       286
    13.2400       260
    13.2600       280
    13.2800       306
    13.3000       264
    13.3200       284
    13.3400       278
    13.3600       292
    13.3800       260
    13.4000       302
    13.4200       268
    13.4400       320
    13.4600       266
    13.4800       290
    13.5000       290
    13.5200       300
    13.5400       278
    13.5600       278
    13.5800       292
    13.6000       280
    13.6200       260
    13.6400       298
    13.6600       244
    13.6800       278
    13.7000       270
    13.7200       266
    13.7400       248
    13.7600       288
    13.7800       284
    13.8000       286
    13.8200       272
    13.8400       276
    13.8600       286
    13.8800       326
    13.9000       270
    13.9200       242
    13.9400       284
    13.9600       300
    13.9800       274
    14.0000       276
    14.0200       272
    14.0400       300
    14.0600       298
    14.0800       258
    14.1000       270
    14.1200       248
    14.1400       292
    14.1600       260
    14.1800       264
    14.2000       306
    14.2200       270
    14.2400       272
    14.2600       256
    14.2800       294
    14.3000       260
    14.3200       300
    14.3400       254
    14.3600       262
    14.3800       298
    14.4000       272
    14.4200       286
    14.4400       286
    14.4600       266
    14.4800       294
    14.5000       274
    14.5200       298
    14.5400       284
    14.5600       302
    14.5800       340
    14.6000       326
    14.6200       318
    14.6400       314
    14.6600       316
    14.6800       368
    14.7000       342
    14.7200       368
    14.7400       344
    14.7600       338
    14.7800       430
    14.8000       466
    14.8200       432
    14.8400       432
    14.8600       538
    14.8800       504
    14.9000       594
    14.9200       624
    14.9400       658
    14.9600       734
    14.9800       788
    15.0000       758
    15.0200       890
    15.0400      1040
    15.0600      1146
    15.0800      1208
    15.1000      1436
    15.1200      1672
    15.1400      1752
    15.1600      1886
    15.1800      2160
    15.2000      2168
    15.2200      2126
    15.2400      1858
    15.2600      1586
    15.2800      1242
    15.3000       992
    15.3200       742
    15.3400       618
    15.3600       518
    15.3800       456
    15.4000       450
    15.4200       430
    15.4400       410
    15.4600       354
    15.4800       332
    15.5000       316
    15.5200       334
    15.5400       320
    15.5600       284
    15.5800       286
    15.6000       314
    15.6200       288
    15.6400       286
    15.6600       304
    15.6800       296
    15.7000       322
    15.7200       250
    15.7400       294
    15.7600       282
    15.7800       268
    15.8000       286
    15.8200       262
    15.8400       280
    15.8600       300
    15.8800       284
    15.9000       258
    15.9200       298
    15.9400       292
    15.9600       296
    15.9800       272
    16.0000       280
    16.0200       298
    16.0400       282
    16.0600       308
    16.0800       306
    16.1000       306
    16.1200       302
    16.1400       334
    16.1600       320
    16.1800       342
    16.2000       332
    16.2200       384
    16.2400       386
    16.2600       390
    16.2800       394
    16.3000       386
    16.3200       380
    16.3400       380
    16.3600       356
    16.3800       372
    16.4000       362
    16.4200       392
    16.4400       326
    16.4600       360
    16.4800       336
    16.5000       358
    16.5200       372
    16.5400       344
    16.5600       374
    16.5800       390
    16.6000       404
    16.6200       398
    16.6400       442
    16.6600       480
    16.6800       488
    16.7000       566
    16.7200       600
    16.7400       654
    16.7600       664
    16.7800       738
    16.8000       896
    16.8200       888
    16.8400      1038
    16.8600      1098
    16.8800      1270
    16.9000      1424
    16.9200      1588
    16.9400      1888
    16.9600      2250
    16.9800      2554
    17.0000      2866
    17.0200      3272
    17.0400      3578
    17.0600      3644
    17.0800      3570
    17.1000      3038
    17.1200      2580
    17.1400      2012
    17.1600      1648
    17.1800      1242
    17.2000      1058
    17.2200       968
    17.2400       828
    17.2600       836
    17.2800       796
    17.3000       774
    17.3200       778
    17.3400       662
    17.3600       602
    17.3800       540
    17.4000       546
    17.4200       470
    17.4400       502
    17.4600       494
    17.4800       484
    17.5000       484
    17.5200       492
    17.5400       440
    17.5600       458
    17.5800       496
    17.6000       544
    17.6200       570
    17.6400       568
    17.6600       636
    17.6800       718
    17.7000       770
    17.7200       804
    17.7400       840
    17.7600       908
    17.7800      1040
    17.8000      1070
    17.8200      1136
    17.8400      1048
    17.8600      1042
    17.8800       938
    17.9000       806
    17.9200       630
    17.9400       534
    17.9600       458
    17.9800       408
    18.0000       396
    18.0200       374
    18.0400       320
    18.0600       300
    18.0800       318
    18.1000       300
    18.1200       296
    18.1400       274
    18.1600       286
    18.1800       266
    18.2000       270
    18.2200       256
    18.2400       248
    18.2600       262
    18.2800       226
    18.3000       250
    18.3200       262
    18.3400       244
    18.3600       272
    18.3800       252
    18.4000       226
    18.4200       232
    18.4400       256
    18.4600       244
    18.4800       246
    18.5000       222
    18.5200       236
    18.5400       232
    18.5600       278
    18.5800       250
    18.6000       248
    18.6200       252
    18.6400       266
    18.6600       220
    18.6800       246
    18.7000       212
    18.7200       260
    18.7400       208
    18.7600       230
    18.7800       240
    18.8000       274
    18.8200       246
    18.8400       268
    18.8600       274
    18.8800       256
    18.9000       258
    18.9200       288
    18.9400       312
    18.9600       278
    18.9800       302
    19.0000       358
    19.0200       268
    19.0400       306
    19.0600       306
    19.0800       300
    19.1000       308
    19.1200       308
    19.1400       314
    19.1600       350
    19.1800       326
    19.2000       406
    19.2200       370
    19.2400       418
    19.2600       426
    19.2800       420
    19.3000       452
    19.3200       540
    19.3400       544
    19.3600       608
    19.3800       688
    19.4000       786
    19.4200       818
    19.4400       916
    19.4600      1012
    19.4800      1218
    19.5000      1334
    19.5200      1524
    19.5400      1712
    19.5600      1820
    19.5800      1720
    19.6000      1778
    19.6200      1552
    19.6400      1358
    19.6600      1132
    19.6800       922
    19.7000       782
    19.7200       716
    19.7400       680
    19.7600       640
    19.7800       638
    19.8000       688
    19.8200       634
    19.8400       752
    19.8600       780
    19.8800       844
    19.9000       980
    19.9200      1130
    19.9400      1166
    19.9600      1296
    19.9800      1360
    20.0000      1442
    20.0200      1400
    20.0400      1342
    20.0600      1222
    20.0800      1074
    20.1000       896
    20.1200       770
    20.1400       640
    20.1600       504
    20.1800       436
    20.2000       404
    20.2200       384
    20.2400       344
    20.2600       332
    20.2800       316
    20.3000       350
    20.3200       286
    20.3400       282
    20.3600       288
    20.3800       274
    20.4000       276
    20.4200       268
    20.4400       290
    20.4600       292
    20.4800       288
    20.5000       248
    20.5200       264
    20.5400       270
    20.5600       254
    20.5800       268
    20.6000       262
    20.6200       278
    20.6400       276
    20.6600       280
    20.6800       254
    20.7000       260
    20.7200       276
    20.7400       300
    20.7600       266
    20.7800       270
    20.8000       292
    20.8200       312
    20.8400       334
    20.8600       346
    20.8800       352
    20.9000       372
    20.9200       430
    20.9400       440
    20.9600       520
    20.9800       526
    21.0000       574
    21.0200       600
    21.0400       706
    21.0600       794
    21.0800       884
    21.1000      1000
    21.1200      1170
    21.1400      1330
    21.1600      1534
    21.1800      1736
    21.2000      1756
    21.2200      1834
    21.2400      1810
    21.2600      1642
    21.2800      1380
    21.3000      1186
    21.3200       908
    21.3400       796
    21.3600       634
    21.3800       504
    21.4000       456
    21.4200       378
    21.4400       360
    21.4600       364
    21.4800       314
    21.5000       304
    21.5200       272
    21.5400       286
    21.5600       244
    21.5800       274
    21.6000       302
    21.6200       264
    21.6400       232
    21.6600       238
    21.6800       266
    21.7000       244
    21.7200       244
    21.7400       232
    21.7600       224
    21.7800       214
    21.8000       252
    21.8200       224
    21.8400       246
    21.8600       230
    21.8800       228
    21.9000       234
    21.9200       218
    21.9400       222
    21.9600       230
    21.9800       212
    22.0000       208
    22.0200       194
    22.0400       230
    22.0600       256
    22.0800       236
    22.1000       212
    22.1200       242
    22.1400       226
    22.1600       250
    22.1800       260
    22.2000       250
    22.2200       210
    22.2400       236
    22.2600       228
    22.2800       266
    22.3000       236
    22.3200       214
    22.3400       240
    22.3600       272
    22.3800       258
    22.4000       266
    22.4200       296
    22.4400       288
    22.4600       298
    22.4800       302
    22.5000       322
    22.5200       380
    22.5400       410
    22.5600       400
    22.5800       488
    22.6000       490
    22.6200       486
    22.6400       616
    22.6600       634
    22.6800       696
    22.7000       828
    22.7200       940
    22.7400       994
    22.7600      1136
    22.7800      1308
    22.8000      1596
    22.8200      1814
    22.8400      1856
    22.8600      2214
    22.8800      2302
    22.9000      2268
    22.9200      2184
    22.9400      1852
    22.9600      1614
    22.9800      1462
    23.0000      1064
    23.0200       852
    23.0400       734
    23.0600       630
    23.0800       514
    23.1000       512
    23.1200       422
    23.1400       432
    23.1600       402
    23.1800       392
    23.2000       358
    23.2200       306
    23.2400       298
    23.2600       332
    23.2800       292
    23.3000       292
    23.3200       286
    23.3400       264
    23.3600       262
    23.3800       250
    23.4000       276
    23.4200       232
    23.4400       246
    23.4600       236
    23.4800       244
    23.5000       250
    23.5200       250
    23.5400       230
    23.5600       226
    23.5800       240
    23.6000       250
    23.6200       244
    23.6400       222
    23.6600       244
    23.6800       240
    23.7000       200
    23.7200       248
    23.7400       218
    23.7600       232
    23.7800       216
    23.8000       214
    23.8200       246
    23.8400       232
    23.8600       222
    23.8800       242
    23.9000       234
    23.9200       250
    23.9400       220
    23.9600       244
    23.9800       230
    24.0000       270
    24.0200       230
    24.0400       248
    24.0600       268
    24.0800       262
    24.1000       226
    24.1200       264
    24.1400       300
    24.1600       278
    24.1800       294
    24.2000       306
    24.2200       312
    24.2400       306
    24.2600       358
    24.2800       342
    24.3000       382
    24.3200       414
    24.3400       446
    24.3600       470
    24.3800       534
    24.4000       572
    24.4200       666
    24.4400       726
    24.4600       816
    24.4800      1004
    24.5000      1018
    24.5200      1172
    24.5400      1184
    24.5600      1182
    24.5800      1104
    24.6000      1056
    24.6200      1016
    24.6400       926
    24.6600       840
    24.6800       828
    24.7000       762
    24.7200       818
    24.7400       786
    24.7600       800
    24.7800       852
    24.8000       786
    24.8200       738
    24.8400       686
    24.8600       610
    24.8800       624
    24.9000       570
    24.9200       492
    24.9400       494
    24.9600       466
    24.9800       486
    25.0000       568
    25.0200       496
    25.0400       506
    25.0600       604
    25.0800       602
    25.1000       678
    25.1200       712
    25.1400       800
    25.1600       928
    25.1800       984
    25.2000      1086
    25.2200      1210
    25.2400      1458
    25.2600      1518
    25.2800      1644
    25.3000      1802
    25.3200      1762
    25.3400      1704
    25.3600      1536
    25.3800      1468
    25.4000      1210
    25.4200      1058
    25.4400       930
    25.4600       860
    25.4800       724
    25.5000       680
    25.5200       650
    25.5400       636
    25.5600       712
    25.5800       744
    25.6000       696
    25.6200       756
    25.6400       672
    25.6600       740
    25.6800       638
    25.7000       648
    25.7200       582
    25.7400       496
    25.7600       466
    25.7800       458
    25.8000       424
    25.8200       426
    25.8400       418
    25.8600       366
    25.8800       368
    25.9000       378
    25.9200       360
    25.9400       364
    25.9600       324
    25.9800       312
    26.0000       330
    26.0200       304
    26.0400       300
    26.0600       278
    26.0800       286
    26.1000       268
    26.1200       270
    26.1400       258
    26.1600       278
    26.1800       256
    26.2000       256
    26.2200       258
    26.2400       246
    26.2600       254
    26.2800       212
    26.3000       246
    26.3200       238
    26.3400       246
    26.3600       244
    26.3800       278
    26.4000       230
    26.4200       262
    26.4400       274
    26.4600       248
    26.4800       258
    26.5000       244
    26.5200       242
    26.5400       246
    26.5600       272
    26.5800       254
    26.6000       274
    26.6200       254
    26.6400       252
    26.6600       292
    26.6800       274
    26.7000       278
    26.7200       244
    26.7400       232
    26.7600       258
    26.7800       264
    26.8000       264
    26.8200       236
    26.8400       268
    26.8600       248
    26.8800       234
    26.9000       242
    26.9200       254
    26.9400       282
    26.9600       250
    26.9800       256
    27.0000       272
    27.0200       246
    27.0400       252
    27.0600       288
    27.0800       278
    27.1000       302
    27.1200       296
    27.1400       294
    27.1600       324
    27.1800       374
    27.2000       364
    27.2200       372
    27.2400       408
    27.2600       408
    27.2800       462
    27.3000       492
    27.3200       548
    27.3400       640
    27.3600       660
    27.3800       762
    27.4000       860
    27.4200       992
    27.4400      1112
    27.4600      1184
    27.4800      1210
    27.5000      1102
    27.5200      1222
    27.5400      1140
    27.5600      1082
    27.5800       886
    27.6000       760
    27.6200       670
    27.6400       628
    27.6600       534
    27.6800       470
    27.7000       444
    27.7200       378
    27.7400       376
    27.7600       368
    27.7800       340
    27.8000       336
    27.8200       330
    27.8400       324
    27.8600       302
    27.8800       294
    27.9000       268
    27.9200       300
    27.9400       280
    27.9600       296
    27.9800       276
    28.0000       334
    28.0200       302
    28.0400       330
    28.0600       308
    28.0800       310
    28.1000       308
    28.1200       352
    28.1400       334
    28.1600       390
    28.1800       332
    28.2000       376
    28.2200       394
    28.2400       406
    28.2600       450
    28.2800       396
    28.3000       414
    28.3200       428
    28.3400       470
    28.3600       434
    28.3800       442
    28.4000       390
    28.4200       388
    28.4400       346
    28.4600       384
    28.4800       368
    28.5000       382
    28.5200       344
    28.5400       372
    28.5600       392
    28.5800       364
    28.6000       418
    28.6200       402
    28.6400       490
    28.6600       496
    28.6800       502
    28.7000       548
    28.7200       546
    28.7400       552
    28.7600       558
    28.7800       452
    28.8000       524
    28.8200       460
    28.8400       426
    28.8600       376
    28.8800       394
    28.9000       356
    28.9200       324
    28.9400       348
    28.9600       320
    28.9800       296
    29.0000       316
    29.0200       308
    29.0400       350
    29.0600       296
    29.0800       332
    29.1000       300
    29.1200       308
    29.1400       306
    29.1600       304
    29.1800       336
    29.2000       354
    29.2200       390
    29.2400       354
    29.2600       358
    29.2800       404
    29.3000       392
    29.3200       430
    29.3400       466
    29.3600       526
    29.3800       564
    29.4000       526
    29.4200       600
    29.4400       664
    29.4600       738
    29.4800       860
    29.5000       930
    29.5200      1016
    29.5400      1126
    29.5600      1170
    29.5800      1316
    29.6000      1366
    29.6200      1542
    29.6400      1722
    29.6600      1692
    29.6800      1730
    29.7000      1694
    29.7200      1564
    29.7400      1366
    29.7600      1312
    29.7800      1116
    29.8000      1026
    29.8200       926
    29.8400       828
    29.8600       738
    29.8800       748
    29.9000       740
    29.9200       790
    29.9400       754
    29.9600       850
    29.9800       850
    30.0000       902
    30.0200      1002
    30.0400      1100
    30.0600      1280
    30.0800      1410
    30.1000      1598
    30.1200      1672
    30.1400      1890
    30.1600      1946
    30.1800      2096
    30.2000      2128
    30.2200      2102
    30.2400      1998
    30.2600      2006
    30.2800      1892
    30.3000      1834
    30.3200      1748
    30.3400      1738
    30.3600      1786
    30.3800      1870
    30.4000      2026
    30.4200      2196
    30.4400      2398
    30.4600      2714
    30.4800      3062
    30.5000      3336
    30.5200      3908
    30.5400      4684
    30.5600      5204
    30.5800      6110
    30.6000      7048
    30.6200      7942
    30.6400      8948
    30.6600      9772
    30.6800     10230
    30.7000     10196
    30.7200      9664
    30.7400      9016
    30.7600      7894
    30.7800      6830
    30.8000      5710
    30.8200      4848
    30.8400      3964
    30.8600      3190
    30.8800      2522
    30.9000      2276
    30.9200      1878
    30.9400      1696
    30.9600      1506
    30.9800      1390
    31.0000      1312
    31.0200      1126
    31.0400      1076
    31.0600       948
    31.0800       924
    31.1000       878
    31.1200       870
    31.1400       852
    31.1600       762
    31.1800       730
    31.2000       710
    31.2200       658
    31.2400       618
    31.2600       628
    31.2800       592
    31.3000       570
    31.3200       508
    31.3400       506
    31.3600       504
    31.3800       452
    31.4000       446
    31.4200       426
    31.4400       398
    31.4600       440
    31.4800       380
    31.5000       402
    31.5200       384
    31.5400       384
    31.5600       384
    31.5800       412
    31.6000       374
    31.6200       400
    31.6400       460
    31.6600       424
    31.6800       402
    31.7000       438
    31.7200       442
    31.7400       468
    31.7600       458
    31.7800       508
    31.8000       518
    31.8200       568
    31.8400       608
    31.8600       636
    31.8800       728
    31.9000       740
    31.9200       854
    31.9400       908
    31.9600      1002
    31.9800      1102
    32.0000      1202
    32.0200      1294
    32.0400      1212
    32.0600      1268
    32.0800      1228
    32.1000      1158
    32.1200      1172
    32.1400      1052
    32.1600       996
    32.1800       878
    32.2000       886
    32.2200       844
    32.2400       826
    32.2600       850
    32.2800       902
    32.3000       946
    32.3200      1040
    32.3400      1028
    32.3600      1196
    32.3800      1360
    32.4000      1468
    32.4200      1630
    32.4400      1914
    32.4600      2146
    32.4800      2520
    32.5000      2764
    32.5200      3110
    32.5400      3362
    32.5600      3756
    32.5800      3908
    32.6000      3956
    32.6200      4034
    32.6400      3862
    32.6600      3568
    32.6800      3406
    32.7000      2940
    32.7200      2544
    32.7400      2252
    32.7600      1918
    32.7800      1642
    32.8000      1408
    32.8200      1250
    32.8400      1148
    32.8600      1076
    32.8800       966
    32.9000       844
    32.9200       894
    32.9400       850
    32.9600       840
    32.9800       802
    33.0000       790
    33.0200       858
    33.0400       954
    33.0600       980
    33.0800       956
    33.1000      1028
    33.1200      1004
    33.1400       954
    33.1600       920
    33.1800       910
    33.2000       780
    33.2200       772
    33.2400       612
    33.2600       634
    33.2800       564
    33.3000       496
    33.3200       452
    33.3400       464
    33.3600       404
    33.3800       392
    33.4000       400
    33.4200       366
    33.4400       326
    33.4600       332
    33.4800       306
    33.5000       314
    33.5200       310
    33.5400       258
    33.5600       274
    33.5800       348
    33.6000       278
    33.6200       286
    33.6400       276
    33.6600       278
    33.6800       270
    33.7000       270
    33.7200       298
    33.7400       266
    33.7600       258
    33.7800       232
    33.8000       278
    33.8200       262
    33.8400       248
    33.8600       272
    33.8800       274
    33.9000       244
    33.9200       258
    33.9400       284
    33.9600       252
    33.9800       222
    34.0000       258
    34.0200       292
    34.0400       290
    34.0600       272
    34.0800       256
    34.1000       294
    34.1200       272
    34.1400       266
    34.1600       294
    34.1800       296
    34.2000       312
    34.2200       284
    34.2400       358
    34.2600       352
    34.2800       382
    34.3000       374
    34.3200       416
    34.3400       454
    34.3600       528
    34.3800       508
    34.4000       590
    34.4200       638
    34.4400       708
    34.4600       820
    34.4800       912
    34.5000       930
    34.5200       870
    34.5400       878
    34.5600       868
    34.5800       792
    34.6000       746
    34.6200       668
    34.6400       660
    34.6600       608
    34.6800       534
    34.7000       466
    34.7200       430
    34.7400       406
    34.7600       368
    34.7800       388
    34.8000       360
    34.8200       346
    34.8400       374
    34.8600       356
    34.8800       346
    34.9000       340
    34.9200       330
    34.9400       338
    34.9600       338
    34.9800       312
    35.0000       338
    35.0200       326
    35.0400       328
    35.0600       290
    35.0800       308
    35.1000       298
    35.1200       324
    35.1400       280
    35.1600       288
    35.1800       298
    35.2000       286
    35.2200       296
    35.2400       236
    35.2600       278
    35.2800       258
    35.3000       272
    35.3200       282
    35.3400       274
    35.3600       264
    35.3800       318
    35.4000       276
    35.4200       252
    35.4400       258
    35.4600       254
    35.4800       280
    35.5000       262
    35.5200       318
    35.5400       280
    35.5600       290
    35.5800       308
    35.6000       346
    35.6200       294
    35.6400       336
    35.6600       318
    35.6800       336
    35.7000       318
    35.7200       310
    35.7400       350
    35.7600       352
    35.7800       384
    35.8000       380
    35.8200       430
    35.8400       426
    35.8600       466
    35.8800       458
    35.9000       514
    35.9200       592
    35.9400       550
    35.9600       664
    35.9800       652
    36.0000       772
    36.0200       786
    36.0400       920
    36.0600      1006
    36.0800      1040
    36.1000      1110
    36.1200      1060
    36.1400      1078
    36.1600      1084
    36.1800       982
    36.2000      1028
    36.2200       974
    36.2400       832
    36.2600       800
    36.2800       716
    36.3000       682
    36.3200       572
    36.3400       568
    36.3600       480
    36.3800       418
    36.4000       454
    36.4200       432
    36.4400       452
    36.4600       420
    36.4800       382
    36.5000       416
    36.5200       390
    36.5400       438
    36.5600       394
    36.5800       422
    36.6000       434
    36.6200       410
    36.6400       472
    36.6600       478
    36.6800       504
    36.7000       542
    36.7200       538
    36.7400       602
    36.7600       644
    36.7800       686
    36.8000       802
    36.8200       832
    36.8400       906
    36.8600       982
    36.8800      1034
    36.9000      1108
    36.9200      1188
    36.9400      1302
    36.9600      1154
    36.9800      1102
    37.0000      1090
    37.0200      1086
    37.0400      1038
    37.0600      1006
    37.0800       992
    37.1000       958
    37.1200       876
    37.1400       814
    37.1600       912
    37.1800       844
    37.2000       852
    37.2200       856
    37.2400       810
    37.2600       794
    37.2800       710
    37.3000       690
    37.3200       644
    37.3400       660
    37.3600       612
    37.3800       512
    37.4000       496
    37.4200       496
    37.4400       480
    37.4600       452
    37.4800       458
    37.5000       478
    37.5200       478
    37.5400       486
    37.5600       470
    37.5800       470
    37.6000       438
    37.6200       436
    37.6400       494
    37.6600       496
    37.6800       494
    37.7000       490
    37.7200       494
    37.7400       532
    37.7600       528
    37.7800       540
    37.8000       530
    37.8200       606
    37.8400       636
    37.8600       636
    37.8800       678
    37.9000       782
    37.9200       806
    37.9400       882
    37.9600       942
    37.9800      1018
    38.0000      1138
    38.0200      1162
    38.0400      1290
    38.0600      1298
    38.0800      1326
    38.1000      1312
    38.1200      1386
    38.1400      1298
    38.1600      1330
    38.1800      1210
    38.2000      1286
    38.2200      1284
    38.2400      1272
    38.2600      1306
    38.2800      1348
    38.3000      1416
    38.3200      1520
    38.3400      1700
    38.3600      1778
    38.3800      2002
    38.4000      2260
    38.4200      2580
    38.4400      2870
    38.4600      3150
    38.4800      3538
    38.5000      3886
    38.5200      4336
    38.5400      4686
    38.5600      5204
    38.5800      5562
    38.6000      5776
    38.6200      6106
    38.6400      6542
    38.6600      6472
    38.6800      6560
    38.7000      6160
    38.7200      5998
    38.7400      5392
    38.7600      5098
    38.7800      4606
    38.8000      4172
    38.8200      3830
    38.8400      3484
    38.8600      2904
    38.8800      2596
    38.9000      2360
    38.9200      2114
    38.9400      1946
    38.9600      1716
    38.9800      1652
    39.0000      1600
    39.0200      1480
    39.0400      1424
    39.0600      1398
    39.0800      1388
    39.1000      1420
    39.1200      1376
    39.1400      1298
    39.1600      1332
    39.1800      1282
    39.2000      1404
    39.2200      1362
    39.2400      1396
    39.2600      1426
    39.2800      1448
    39.3000      1440
    39.3200      1472
    39.3400      1460
    39.3600      1480
    39.3800      1532
    39.4000      1448
    39.4200      1404
    39.4400      1400
    39.4600      1326
    39.4800      1276
    39.5000      1174
    39.5200      1170
    39.5400      1086
    39.5600      1130
    39.5800      1140
    39.6000      1138
    39.6200      1136
    39.6400      1190
    39.6600      1318
    39.6800      1260
    39.7000      1306
    39.7200      1398
    39.7400      1462
    39.7600      1410
    39.7800      1450
    39.8000      1364
    39.8200      1300
    39.8400      1232
    39.8600      1166
    39.8800      1068
    39.9000       980
    39.9200       970
    39.9400       912
    39.9600       878
    39.9800       818
    40.0000       866
    40.0200       792
    40.0400       836
    40.0600       864
    40.0800       860
    40.1000       980
    40.1200       954
    40.1400       990
    40.1600      1074
    40.1800      1046
    40.2000      1096
    40.2200      1092
    40.2400      1112
    40.2600      1098
    40.2800      1124
    40.3000      1070
    40.3200      1072
    40.3400      1058
    40.3600      1120
    40.3800      1106
    40.4000      1178
    40.4200      1258
    40.4400      1268
    40.4600      1366
    40.4800      1424
    40.5000      1676
    40.5200      1652
    40.5400      1828
    40.5600      1786
    40.5800      1748
    40.6000      1742
    40.6200      1694
    40.6400      1692
    40.6600      1546
    40.6800      1492
    40.7000      1408
    40.7200      1320
    40.7400      1212
    40.7600      1048
    40.7800       994
    40.8000       918
    40.8200       884
    40.8400       796
    40.8600       746
    40.8800       780
    40.9000       696
    40.9200       670
    40.9400       712
    40.9600       678
    40.9800       696
    41.0000       684
    41.0200       702
    41.0400       742
    41.0600       722
    41.0800       828
    41.1000       842
    41.1200       972
    41.1400      1014
    41.1600      1114
    41.1800      1260
    41.2000      1396
    41.2200      1490
    41.2400      1544
    41.2600      1716
    41.2800      1762
    41.3000      1880
    41.3200      1950
    41.3400      1948
    41.3600      2048
    41.3800      2022
    41.4000      2124
    41.4200      2160
    41.4400      2282
    41.4600      2314
    41.4800      2256
    41.5000      2362
    41.5200      2408
    41.5400      2262
    41.5600      2114
    41.5800      2026
    41.6000      1942
    41.6200      1820
    41.6400      1572
    41.6600      1548
    41.6800      1352
    41.7000      1214
    41.7200      1200
    41.7400      1076
    41.7600      1032
    41.7800       988
    41.8000      1078
    41.8200      1012
    41.8400      1024
    41.8600      1036
    41.8800      1078
    41.9000      1130
    41.9200      1124
    41.9400      1140
    41.9600      1188
    41.9800      1224
    42.0000      1096
    42.0200      1068
    42.0400       966
    42.0600       918
    42.0800       912
    42.1000       822
    42.1200       772
    42.1400       680
    42.1600       642
    42.1800       600
    42.2000       526
    42.2200       538
    42.2400       520
    42.2600       508
    42.2800       472
    42.3000       492
    42.3200       484
    42.3400       458
    42.3600       466
    42.3800       460
    42.4000       428
    42.4200       428
    42.4400       456
    42.4600       462
    42.4800       402
    42.5000       392
    42.5200       424
    42.5400       390
    42.5600       396
    42.5800       414
    42.6000       384
    42.6200       402
    42.6400       434
    42.6600       440
    42.6800       410
    42.7000       390
    42.7200       392
    42.7400       372
    42.7600       392
    42.7800       390
    42.8000       360
    42.8200       402
    42.8400       428
    42.8600       452
    42.8800       454
    42.9000       448
    42.9200       450
    42.9400       474
    42.9600       490
    42.9800       482
    43.0000       468
    43.0200       590
    43.0400       620
    43.0600       650
    43.0800       730
    43.1000       716
    43.1200       740
    43.1400       838
    43.1600       912
    43.1800       906
    43.2000      1012
    43.2200      1084
    43.2400      1074
    43.2600      1092
    43.2800      1118
    43.3000      1082
    43.3200      1036
    43.3400       984
    43.3600       998
    43.3800       882
    43.4000       820
    43.4200       814
    43.4400       668
    43.4600       676
    43.4800       564
    43.5000       586
    43.5200       564
    43.5400       554
    43.5600       468
    43.5800       460
    43.6000       454
    43.6200       474
    43.6400       442
    43.6600       470
    43.6800       462
    43.7000       390
    43.7200       478
    43.7400       474
    43.7600       468
    43.7800       482
    43.8000       536
    43.8200       540
    43.8400       538
    43.8600       528
    43.8800       510
    43.9000       534
    43.9200       534
    43.9400       516
    43.9600       524
    43.9800       486
    44.0000       498
    44.0200       498
    44.0400       506
    44.0600       490
    44.0800       470
    44.1000       470
    44.1200       470
    44.1400       452
    44.1600       466
    44.1800       446
    44.2000       502
    44.2200       496
    44.2400       488
    44.2600       488
    44.2800       500
    44.3000       522
    44.3200       494
    44.3400       542
    44.3600       546
    44.3800       528
    44.4000       544
    44.4200       534
    44.4400       542
    44.4600       500
    44.4800       518
    44.5000       478
    44.5200       510
    44.5400       504
    44.5600       552
    44.5800       550
    44.6000       604
    44.6200       580
    44.6400       562
    44.6600       608
    44.6800       670
    44.7000       676
    44.7200       682
    44.7400       734
    44.7600       742
    44.7800       730
    44.8000       792
    44.8200       808
    44.8400       908
    44.8600       916
    44.8800       996
    44.9000      1114
    44.9200      1162
    44.9400      1258
    44.9600      1396
    44.9800      1558
    45.0000      1670
    45.0200      1740
    45.0400      1832
    45.0600      2118
    45.0800      2186
    45.1000      2198
    45.1200      2166
    45.1400      2376
    45.1600      2456
    45.1800      2522
    45.2000      2594
    45.2200      2640
    45.2400      2774
    45.2600      2700
    45.2800      2680
    45.3000      2606
    45.3200      2538
    45.3400      2376
    45.3600      2384
    45.3800      2198
    45.4000      2212
    45.4200      2056
    45.4400      2066
    45.4600      1980
    45.4800      1964
    45.5000      1906
    45.5200      1740
    45.5400      1570
    45.5600      1548
    45.5800      1476
    45.6000      1338
    45.6200      1298
    45.6400      1286
    45.6600      1150
    45.6800      1074
    45.7000       990
    45.7200       924
    45.7400       866
    45.7600       808
    45.7800       810
    45.8000       758
    45.8200       756
    45.8400       720
    45.8600       744
    45.8800       704
    45.9000       708
    45.9200       640
    45.9400       684
    45.9600       688
    45.9800       680
    46.0000       666
    46.0200       742
    46.0400       620
    46.0600       674
    46.0800       680
    46.1000       644
    46.1200       652
    46.1400       694
    46.1600       690
    46.1800       714
    46.2000       734
    46.2200       760
    46.2400       738
    46.2600       802
    46.2800       826
    46.3000       874
    46.3200       936
    46.3400       910
    46.3600      1024
    46.3800      1118
    46.4000      1146
    46.4200      1214
    46.4400      1454
    46.4600      1476
    46.4800      1658
    46.5000      1832
    46.5200      1976
    46.5400      2076
    46.5600      2284
    46.5800      2412
    46.6000      2688
    46.6200      2834
    46.6400      3108
    46.6600      3392
    46.6800      3678
    46.7000      3848
    46.7200      4126
    46.7400      4270
    46.7600      4394
    46.7800      4316
    46.8000      4250
    46.8200      4024
    46.8400      3974
    46.8600      3612
    46.8800      3338
    46.9000      3100
    46.9200      2954
    46.9400      2646
    46.9600      2240
    46.9800      1962
    47.0000      1728
    47.0200      1590
    47.0400      1452
    47.0600      1260
    47.0800      1140
    47.1000      1036
    47.1200       970
    47.1400       822
    47.1600       808
    47.1800       818
    47.2000       776
    47.2200       684
    47.2400       668
    47.2600       648
    47.2800       610
    47.3000       580
    47.3200       590
    47.3400       568
    47.3600       528
    47.3800       550
    47.4000       506
    47.4200       520
    47.4400       532
    47.4600       478
    47.4800       472
    47.5000       460
    47.5200       438
    47.5400       428
    47.5600       468
    47.5800       470
    47.6000       434
    47.6200       458
    47.6400       452
    47.6600       428
    47.6800       442
    47.7000       440
    47.7200       470
    47.7400       490
    47.7600       496
    47.7800       488
    47.8000       510
    47.8200       556
    47.8400       532
    47.8600       512
    47.8800       548
    47.9000       542
    47.9200       568
    47.9400       596
    47.9600       544
    47.9800       586
    48.0000       566
    48.0200       538
    48.0400       562
    48.0600       536
    48.0800       588
    48.1000       524
    48.1200       568
    48.1400       556
    48.1600       576
    48.1800       568
    48.2000       590
    48.2200       604
    48.2400       662
    48.2600       666
    48.2800       666
    48.3000       672
    48.3200       658
    48.3400       724
    48.3600       704
    48.3800       710
    48.4000       722
    48.4200       768
    48.4400       756
    48.4600       814
    48.4800       932
    48.5000       932
    48.5200       966
    48.5400      1016
    48.5600      1098
    48.5800      1090
    48.6000      1172
    48.6200      1154
    48.6400      1188
    48.6600      1092
    48.6800      1142
    48.7000       962
    48.7200       934
    48.7400       928
    48.7600       820
    48.7800       824
    48.8000       788
    48.8200       746
    48.8400       666
    48.8600       642
    48.8800       614
    48.9000       538
    48.9200       468
    48.9400       476
    48.9600       476
    48.9800       464
    49.0000       448
    49.0200       428
    49.0400       370
    49.0600       386
    49.0800       342
    49.1000       376
    49.1200       358
    49.1400       362
    49.1600       342
    49.1800       350
    49.2000       384
    49.2200       366
    49.2400       322
    49.2600       316
    49.2800       350
    49.3000       318
    49.3200       378
    49.3400       338
    49.3600       334
    49.3800       342
    49.4000       348
    49.4200       300
    49.4400       322
    49.4600       320
    49.4800       322
    49.5000       344
    49.5200       304
    49.5400       338
    49.5600       342
    49.5800       332
    49.6000       364
    49.6200       342
    49.6400       326
    49.6600       300
    49.6800       330
    49.7000       350
    49.7200       372
    49.7400       348
    49.7600       356
    49.7800       374
    49.8000       362
    49.8200       368
    49.8400       382
    49.8600       398
    49.8800       402
    49.9000       434
    49.9200       400
    49.9400       436
    49.9600       478
    49.9800       428
    50.0000       518
    50.0200       510
    50.0400       492
    50.0600       576
    50.0800       618
    50.1000       596
    50.1200       704
    50.1400       724
    50.1600       768
    50.1800       786
    50.2000       864
    50.2200       988
    50.2400      1058
    50.2600      1170
    50.2800      1228
    50.3000      1226
    50.3200      1276
    50.3400      1300
    50.3600      1340
    50.3800      1318
    50.4000      1282
    50.4200      1262
    50.4400      1292
    50.4600      1168
    50.4800      1238
    50.5000      1194
    50.5200      1268
    50.5400      1228
    50.5600      1252
    50.5800      1242
    50.6000      1380
    50.6200      1444
    50.6400      1590
    50.6600      1726
    50.6800      1834
    50.7000      1900
    50.7200      2118
    50.7400      2264
    50.7600      2534
    50.7800      2744
    50.8000      2904
    50.8200      2850
    50.8400      2890
    50.8600      2824
    50.8800      2726
    50.9000      2558
    50.9200      2446
    50.9400      2276
    50.9600      2238
    50.9800      2066
    51.0000      1910
    51.0200      1760
    51.0400      1636
    51.0600      1490
    51.0800      1274
    51.1000      1244
    51.1200      1142
    51.1400      1004
    51.1600       962
    51.1800       906
    51.2000       906
    51.2200       828
    51.2400       848
    51.2600       832
    51.2800       794
    51.3000       784
    51.3200       772
    51.3400       770
    51.3600       736
    51.3800       772
    51.4000       798
    51.4200       764
    51.4400       788
    51.4600       774
    51.4800       786
    51.5000       794
    51.5200       790
    51.5400       870
    51.5600       830
    51.5800       820
    51.6000       870
    51.6200       806
    51.6400       840
    51.6600       958
    51.6800      1000
    51.7000      1026
    51.7200      1048
    51.7400      1160
    51.7600      1156
    51.7800      1260
    51.8000      1348
    51.8200      1578
    51.8400      1664
    51.8600      1708
    51.8800      1938
    51.9000      2054
    51.9200      2228
    51.9400      2436
    51.9600      2422
    51.9800      2626
    52.0000      2588
    52.0200      2586
    52.0400      2424
    52.0600      2410
    52.0800      2182
    52.1000      2046
    52.1200      1964
    52.1400      1816
    52.1600      1692
    52.1800      1538
    52.2000      1470
    52.2200      1276
    52.2400      1144
    52.2600      1098
    52.2800       946
    52.3000       912
    52.3200       798
    52.3400       804
    52.3600       782
    52.3800       776
    52.4000       746
    52.4200       690
    52.4400       800
    52.4600       732
    52.4800       766
    52.5000       828
    52.5200       822
    52.5400       832
    52.5600       840
    52.5800       914
    52.6000      1014
    52.6200       936
    52.6400      1044
    52.6600      1092
    52.6800      1086
    52.7000      1146
    52.7200      1124
    52.7400      1198
    52.7600      1220
    52.7800      1212
    52.8000      1146
    52.8200      1156
    52.8400      1126
    52.8600      1058
    52.8800       988
    52.9000       982
    52.9200       956
    52.9400       850
    52.9600       900
    52.9800       810
    53.0000       806
    53.0200       738
    53.0400       740
    53.0600       742
    53.0800       672
    53.1000       712
    53.1200       746
    53.1400       698
    53.1600       734
    53.1800       838
    53.2000       798
    53.2200       850
    53.2400       868
    53.2600       850
    53.2800       908
    53.3000      1004
    53.3200       882
    53.3400      1004
    53.3600       970
    53.3800       944
    53.4000       962
    53.4200       944
    53.4400       914
    53.4600       882
    53.4800       842
    53.5000       800
    53.5200       796
    53.5400       792
    53.5600       782
    53.5800       706
    53.6000       718
    53.6200       706
    53.6400       644
    53.6600       672
    53.6800       632
    53.7000       638
    53.7200       604
    53.7400       618
    53.7600       636
    53.7800       564
    53.8000       602
    53.8200       592
    53.8400       584
    53.8600       524
    53.8800       566
    53.9000       480
    53.9200       524
    53.9400       504
    53.9600       564
    53.9800       578
    54.0000       510
    54.0200       520
    54.0400       508
    54.0600       548
    54.0800       528
    54.1000       596
    54.1200       582
    54.1400       592
    54.1600       630
    54.1800       646
    54.2000       628
    54.2200       694
    54.2400       754
    54.2600       758
    54.2800       768
    54.3000       806
    54.3200       788
    54.3400       854
    54.3600       800
    54.3800       822
    54.4000       898
    54.4200       898
    54.4400       934
    54.4600       988
    54.4800       972
    54.5000       990
    54.5200       984
    54.5400       936
    54.5600       922
    54.5800       906
    54.6000       802
    54.6200       822
    54.6400       866
    54.6600       816
    54.6800       860
    54.7000       826
    54.7200       770
    54.7400       758
    54.7600       760
    54.7800       700
    54.8000       726
    54.8200       768
    54.8400       792
    54.8600       734
    54.8800       764
    54.9000       772
    54.9200       772
    54.9400       772
    54.9600       778
    54.9800       756
    55.0000       842
    55.0200       788
    55.0400       868
    55.0600       906
    55.0800       882
    55.1000       990
    55.1200       986
    55.1400       980
    55.1600      1048
    55.1800      1064
    55.2000      1054
    55.2200      1034
    55.2400      1016
    55.2600      1106
    55.2800       962
    55.3000      1004
    55.3200      1014
    55.3400       962
    55.3600       922
    55.3800       860
    55.4000       922
    55.4200       734
    55.4400       768
    55.4600       748
    55.4800       704
    55.5000       666
    55.5200       666
    55.5400       658
    55.5600       578
    55.5800       548
    55.6000       512
    55.6200       552
    55.6400       470
    55.6600       492
    55.6800       436
    55.7000       432
    55.7200       442
    55.7400       412
    55.7600       392
    55.7800       390
    55.8000       362
    55.8200       368
    55.8400       394
    55.8600       378
    55.8800       406
    55.9000       352
    55.9200       346
    55.9400       352
    55.9600       342
    55.9800       326
    56.0000       358
    56.0200       340
    56.0400       336
    56.0600       348
    56.0800       338
    56.1000       320
    56.1200       366
    56.1400       342
    56.1600       380
    56.1800       336
    56.2000       388
    56.2200       350
    56.2400       326
    56.2600       374
    56.2800       374
    56.3000       384
    56.3200       390
    56.3400       384
    56.3600       408
    56.3800       378
    56.4000       416
    56.4200       390
    56.4400       410
    56.4600       390
    56.4800       398
    56.5000       420
    56.5200       494
    56.5400       476
    56.5600       446
    56.5800       450
    56.6000       514
    56.6200       522
    56.6400       588
    56.6600       586
    56.6800       664
    56.7000       700
    56.7200       730
    56.7400       750
    56.7600       786
    56.7800       794
    56.8000       846
    56.8200       838
    56.8400       786
    56.8600       710
    56.8800       800
    56.9000       738
    56.9200       740
    56.9400       740
    56.9600       700
    56.9800       654
    57.0000       660
    57.0200       586
    57.0400       578
    57.0600       544
    57.0800       540
    57.1000       534
    57.1200       586
    57.1400       492
    57.1600       508
    57.1800       564
    57.2000       508
    57.2200       566
    57.2400       646
    57.2600       604
    57.2800       644
    57.3000       670
    57.3200       644
    57.3400       726
    57.3600       808
    57.3800       812
    57.4000       780
    57.4200       844
    57.4400       932
    57.4600       858
    57.4800       924
    57.5000       922
    57.5200       876
    57.5400       878
    57.5600       898
    57.5800       860
    57.6000       822
    57.6200       896
    57.6400       854
    57.6600       800
    57.6800       836
    57.7000       860
    57.7200       902
    57.7400       858
    57.7600       904
    57.7800       906
    57.8000       904
    57.8200       912
    57.8400       938
    57.8600       994
    57.8800       924
    57.9000       896
    57.9200       802
    57.9400       834
    57.9600       782
    57.9800       780
    58.0000       748
    58.0200       708
    58.0400       710
    58.0600       678
    58.0800       652
    58.1000       716
    58.1200       660
    58.1400       598
    58.1600       622
    58.1800       646
    58.2000       668
    58.2200       626
    58.2400       632
    58.2600       684
    58.2800       674
    58.3000       724
    58.3200       768
    58.3400       742
    58.3600       770
    58.3800       788
    58.4000       826
    58.4200       912
    58.4400       926
    58.4600       922
    58.4800      1014
    58.5000      1086
    58.5200      1094
    58.5400      1186
    58.5600      1266
    58.5800      1282
    58.6000      1238
    58.6200      1426
    58.6400      1444
    58.6600      1472
    58.6800      1554
    58.7000      1534
    58.7200      1736
    58.7400      1706
    58.7600      1692
    58.7800      1694
    58.8000      1784
    58.8200      1754
    58.8400      1688
    58.8600      1618
    58.8800      1654
    58.9000      1606
    58.9200      1520
    58.9400      1470
    58.9600      1414
    58.9800      1424
    59.0000      1322
    59.0200      1298
    59.0400      1250
    59.0600      1240
    59.0800      1146
    59.1000      1120
    59.1200      1148
    59.1400      1076
    59.1600      1138
    59.1800      1194
    59.2000      1178
    59.2200      1160
    59.2400      1280
    59.2600      1314
    59.2800      1366
    59.3000      1438
    59.3200      1584
    59.3400      1720
    59.3600      1778
    59.3800      2050
    59.4000      2128
    59.4200      2190
    59.4400      2192
    59.4600      2270
    59.4800      2314
    59.5000      2214
    59.5200      2180
    59.5400      2186
    59.5600      2108
    59.5800      1918
    59.6000      1944
    59.6200      1888
    59.6400      1708
    59.6600      1640
    59.6800      1536
    59.7000      1502
    59.7200      1358
    59.7400      1348
    59.7600      1302
    59.7800      1206
    59.8000      1116
    59.8200      1098
    59.8400      1056
    59.8600       972
    59.8800       992
    59.9000       890
    59.9200       838
    59.9400       766
    59.9600       766
    59.9800       792
    60.0000       746
    60.0200       762
    60.0400       656
    60.0600       624
    60.0800       602
    60.1000       612
    60.1200       558
    60.1400       566
    60.1600       588
    60.1800       546
    60.2000       468
    60.2200       474
    60.2400       478
    60.2600       466
    60.2800       462
    60.3000       454
    60.3200       426
    60.3400       426
    60.3600       426
    60.3800       432
    60.4000       384
    60.4200       352
    60.4400       420
    60.4600       402
    60.4800       400
    60.5000       438
    60.5200       400
    60.5400       392
    60.5600       418
    60.5800       426
    60.6000       382
    60.6200       384
    60.6400       380
    60.6600       396
    60.6800       374
    60.7000       402
    60.7200       374
    60.7400       380
    60.7600       374
    60.7800       372
    60.8000       410
    60.8200       414
    60.8400       424
    60.8600       444
    60.8800       402
    60.9000       420
    60.9200       508
    60.9400       484
    60.9600       522
    60.9800       520
    61.0000       522
    61.0200       508
    61.0400       574
    61.0600       602
    61.0800       604
    61.1000       592
    61.1200       638
    61.1400       694
    61.1600       678
    61.1800       728
    61.2000       810
    61.2200       796
    61.2400       864
    61.2600       914
    61.2800       892
    61.3000       912
    61.3200       996
    61.3400      1038
    61.3600      1034
    61.3800      1164
    61.4000      1140
    61.4200      1188
    61.4400      1318
    61.4600      1468
    61.4800      1438
    61.5000      1522
    61.5200      1636
    61.5400      1736
    61.5600      1876
    61.5800      1874
    61.6000      1730
    61.6200      1840
    61.6400      1716
    61.6600      1668
    61.6800      1708
    61.7000      1538
    61.7200      1512
    61.7400      1482
    61.7600      1394
    61.7800      1298
    61.8000      1286
    61.8200      1236
    61.8400      1078
    61.8600      1022
    61.8800       940
    61.9000       874
    61.9200       748
    61.9400       800
    61.9600       712
    61.9800       662
    62.0000       702
    62.0200       612
    62.0400       666
    62.0600       588
    62.0800       618
    62.1000       608
    62.1200       562
    62.1400       544
    62.1600       550
    62.1800       530
    62.2000       552
    62.2200       548
    62.2400       482
    62.2600       474
    62.2800       504
    62.3000       488
    62.3200       452
    62.3400       482
    62.3600       468
    62.3800       432
    62.4000       430
    62.4200       484
    62.4400       448
    62.4600       464
    62.4800       404
    62.5000       450
    62.5200       454
    62.5400       386
    62.5600       368
    62.5800       382
    62.6000       398
    62.6200       420
    62.6400       384
    62.6600       372
    62.6800       400
    62.7000       418
    62.7200       402
    62.7400       422
    62.7600       406
    62.7800       376
    62.8000       368
    62.8200       370
    62.8400       364
    62.8600       368
    62.8800       352
    62.9000       354
    62.9200       338
    62.9400       348
    62.9600       332
    62.9800       354
    63.0000       286
    63.0200       334
    63.0400       310
    63.0600       312
    63.0800       298
    63.1000       332
    63.1200       308
    63.1400       290
    63.1600       308
    63.1800       292
    63.2000       308
    63.2200       302
    63.2400       270
    63.2600       304
    63.2800       294
    63.3000       298
    63.3200       270
    63.3400       316
    63.3600       318
    63.3800       326
    63.4000       332
    63.4200       316
    63.4400       342
    63.4600       322
    63.4800       320
    63.5000       340
    63.5200       360
    63.5400       380
    63.5600       388
    63.5800       374
    63.6000       392
    63.6200       408
    63.6400       436
    63.6600       450
    63.6800       482
    63.7000       546
    63.7200       566
    63.7400       576
    63.7600       684
    63.7800       684
    63.8000       722
    63.8200       814
    63.8400       850
    63.8600       886
    63.8800       882
    63.9000       924
    63.9200       974
    63.9400       956
    63.9600       968
    63.9800       928
    64.0000       890
    64.0200       842
    64.0400       862
    64.0600       768
    64.0800       780
    64.1000       792
    64.1200       734
    64.1400       678
    64.1600       626
    64.1800       628
    64.2000       588
    64.2200       532
    64.2400       528
    64.2600       468
    64.2800       448
    64.3000       450
    64.3200       398
    64.3400       392
    64.3600       382
    64.3800       366
    64.4000       378
    64.4200       366
    64.4400       320
    64.4600       350
    64.4800       318
    64.5000       314
    64.5200       330
    64.5400       310
    64.5600       318
    64.5800       288
    64.6000       316
    64.6200       296
    64.6400       294
    64.6600       294
    64.6800       322
    64.7000       296
    64.7200       298
    64.7400       292
    64.7600       284
    64.7800       288
    64.8000       320
    64.8200       296
    64.8400       300
    64.8600       276
    64.8800       290
    64.9000       278
    64.9200       296
    64.9400       312
    64.9600       336
    64.9800       336
    65.0000       356
    65.0200       336
    65.0400       378
    65.0600       356
    65.0800       386
    65.1000       400
    65.1200       384
    65.1400       384
    65.1600       374
    65.1800       406
    65.2000       378
    65.2200       408
    65.2400       436
    65.2600       444
    65.2800       422
    65.3000       378
    65.3200       462
    65.3400       412
    65.3600       412
    65.3800       478
    65.4000       412
    65.4200       426
    65.4400       434
    65.4600       378
    65.4800       442
    65.5000       430
    65.5200       420
    65.5400       434
    65.5600       450
    65.5800       426
    65.6000       444
    65.6200       444
    65.6400       420
    65.6600       442
    65.6800       402
    65.7000       446
    65.7200       380
    65.7400       360
    65.7600       406
    65.7800       380
    65.8000       368
    65.8200       382
    65.8400       346
    65.8600       338
    65.8800       314
    65.9000       332
    65.9200       334
    65.9400       298
    65.9600       312
    65.9800       328
    66.0000       282
    66.0200       288
    66.0400       326
    66.0600       282
    66.0800       296
    66.1000       266
    66.1200       294
    66.1400       288
    66.1600       346
    66.1800       320
    66.2000       324
    66.2200       302
    66.2400       306
    66.2600       324
    66.2800       308
    66.3000       298
    66.3200       302
    66.3400       312
    66.3600       322
    66.3800       346
    66.4000       352
    66.4200       340
    66.4400       354
    66.4600       366
    66.4800       370
    66.5000       376
    66.5200       354
    66.5400       368
    66.5600       378
    66.5800       462
    66.6000       418
    66.6200       422
    66.6400       458
    66.6600       460
    66.6800       432
    66.7000       466
    66.7200       468
    66.7400       548
    66.7600       486
    66.7800       528
    66.8000       582
    66.8200       626
    66.8400       644
    66.8600       734
    66.8800       738
    66.9000       728
    66.9200       794
    66.9400       754
    66.9600       796
    66.9800       780
    67.0000       734
    67.0200       756
    67.0400       784
    67.0600       740
    67.0800       772
    67.1000       690
    67.1200       748
    67.1400       704
    67.1600       668
    67.1800       694
    67.2000       624
    67.2200       622
    67.2400       594
    67.2600       574
    67.2800       540
    67.3000       516
    67.3200       526
    67.3400       458
    67.3600       432
    67.3800       406
    67.4000       428
    67.4200       402
    67.4400       430
    67.4600       376
    67.4800       338
    67.5000       386
    67.5200       370
    67.5400       392
    67.5600       350
    67.5800       354
    67.6000       322
    67.6200       348
    67.6400       364
    67.6600       344
    67.6800       314
    67.7000       378
    67.7200       336
    67.7400       334
    67.7600       330
    67.7800       328
    67.8000       378
    67.8200       344
    67.8400       374
    67.8600       368
    67.8800       366
    67.9000       372
    67.9200       400
    67.9400       422
    67.9600       404
    67.9800       444
    68.0000       466
    68.0200       456
    68.0400       476
    68.0600       476
    68.0800       476
    68.1000       520
    68.1200       578
    68.1400       588
    68.1600       650
    68.1800       670
    68.2000       648
    68.2200       634
    68.2400       716
    68.2600       676
    68.2800       698
    68.3000       740
    68.3200       742
    68.3400       716
    68.3600       706
    68.3800       740
    68.4000       686
    68.4200       680
    68.4400       692
    68.4600       654
    68.4800       662
    68.5000       662
    68.5200       662
    68.5400       588
    68.5600       586
    68.5800       568
    68.6000       616
    68.6200       552
    68.6400       514
    68.6600       488
    68.6800       518
    68.7000       514
    68.7200       510
    68.7400       474
    68.7600       428
    68.7800       420
    68.8000       432
    68.8200       448
    68.8400       412
    68.8600       398
    68.8800       396
    68.9000       368
    68.9200       388
    68.9400       386
    68.9600       368
    68.9800       384
    69.0000       392
    69.0200       368
    69.0400       394
    69.0600       346
    69.0800       376
    69.1000       406
    69.1200       400
    69.1400       452
    69.1600       398
    69.1800       412
    69.2000       466
    69.2200       432
    69.2400       418
    69.2600       476
    69.2800       472
    69.3000       408
    69.3200       424
    69.3400       418
    69.3600       466
    69.3800       410
    69.4000       466
    69.4200       436
    69.4400       418
    69.4600       470
    69.4800       434
    69.5000       414
    69.5200       472
    69.5400       440
    69.5600       444
    69.5800       468
    69.6000       416
    69.6200       440
    69.6400       422
    69.6600       406
    69.6800       502
    69.7000       444
    69.7200       444
    69.7400       486
    69.7600       478
    69.7800       442
    69.8000       476
    69.8200       492
    69.8400       506
    69.8600       506
    69.8800       538
    69.9000       502
    69.9200       508
    69.9400       484
    69.9600       492
    69.9800       494
    70.0000       484
    70.0200       442
    70.0400       480
    70.0600       404
    70.0800       396
    70.1000       446
    70.1200       406
    70.1400       380
    70.1600       394
    70.1800       356
    70.2000       366
    70.2200       330
    70.2400       348
    70.2600       320
    70.2800       312
    70.3000       316
    70.3200       286
    70.3400       284
    70.3600       298
    70.3800       264
    70.4000       266
    70.4200       278
    70.4400       262
    70.4600       254
    70.4800       266
    70.5000       268
    70.5200       228
    70.5400       306
    70.5600       254
    70.5800       236
    70.6000       276
    70.6200       268
    70.6400       242
    70.6600       274
    70.6800       234
    70.7000       256
    70.7200       266
    70.7400       234
    70.7600       256
    70.7800       260
    70.8000       238
    70.8200       266
    70.8400       238
    70.8600       240
    70.8800       244
    70.9000       260
    70.9200       246
    70.9400       222
    70.9600       230
    70.9800       218
    71.0000       226
    71.0200       246
    71.0400       240
    71.0600       218
    71.0800       226
    71.1000       240
    71.1200       258
    71.1400       234
    71.1600       206
    71.1800       226
    71.2000       246
    71.2200       224
    71.2400       262
    71.2600       244
    71.2800       276
    71.3000       276
    71.3200       288
    71.3400       300
    71.3600       288
    71.3800       314
    71.4000       314
    71.4200       304
    71.4400       346
    71.4600       354
    71.4800       342
    71.5000       382
    71.5200       376
    71.5400       384
    71.5600       392
    71.5800       442
    71.6000       398
    71.6200       432
    71.6400       380
    71.6600       442
    71.6800       380
    71.7000       406
    71.7200       442
    71.7400       440
    71.7600       408
    71.7800       418
    71.8000       404
    71.8200       386
    71.8400       418
    71.8600       362
    71.8800       400
    71.9000       392
    71.9200       368
    71.9400       362
    71.9600       396
    71.9800       344
    72.0000       338
    72.0200       396
    72.0400       346
    72.0600       356
    72.0800       358
    72.1000       360
    72.1200       376
    72.1400       344
    72.1600       372
    72.1800       370
    72.2000       356
    72.2200       368
    72.2400       382
    72.2600       408
    72.2800       398
    72.3000       388
    72.3200       372
    72.3400       442
    72.3600       474
    72.3800       472
    72.4000       494
    72.4200       456
    72.4400       464
    72.4600       504
    72.4800       510
    72.5000       548
    72.5200       486
    72.5400       518
    72.5600       574
    72.5800       566
    72.6000       600
    72.6200       602
    72.6400       612
    72.6600       598
    72.6800       596
    72.7000       644
    72.7200       636
    72.7400       748
    72.7600       746
    72.7800       708
    72.8000       732
    72.8200       700
    72.8400       692
    72.8600       684
    72.8800       658
    72.9000       702
    72.9200       656
    72.9400       630
    72.9600       618
    72.9800       608
    73.0000       590
    73.0200       592
    73.0400       590
    73.0600       544
    73.0800       510
    73.1000       474
    73.1200       480
    73.1400       484
    73.1600       402
    73.1800       404
    73.2000       428
    73.2200       344
    73.2400       388
    73.2600       348
    73.2800       362
    73.3000       316
    73.3200       344
    73.3400       284
    73.3600       302
    73.3800       298
    73.4000       274
    73.4200       284
    73.4400       256
    73.4600       284
    73.4800       280
    73.5000       280
    73.5200       262
    73.5400       260
    73.5600       264
    73.5800       266
    73.6000       274
    73.6200       290
    73.6400       250
    73.6600       248
    73.6800       262
    73.7000       236
    73.7200       260
    73.7400       252
    73.7600       274
    73.7800       252
    73.8000       262
    73.8200       282
    73.8400       252
    73.8600       262
    73.8800       246
    73.9000       276
    73.9200       248
    73.9400       256
    73.9600       278
    73.9800       240
    74.0000       254
    74.0200       236
    74.0400       284
    74.0600       250
    74.0800       268
    74.1000       266
    74.1200       248
    74.1400       248
    74.1600       274
    74.1800       250
    74.2000       306
    74.2200       264
    74.2400       232
    74.2600       254
    74.2800       234
    74.3000       270
    74.3200       238
    74.3400       212
    74.3600       254
    74.3800       226
    74.4000       236
    74.4200       220
    74.4400       214
    74.4600       228
    74.4800       242
    74.5000       214
    74.5200       228
    74.5400       208
    74.5600       192
    74.5800       196
    74.6000       230
    74.6200       196
    74.6400       228
    74.6600       200
    74.6800       214
    74.7000       184
    74.7200       212
    74.7400       190
    74.7600       214
    74.7800       186
    74.8000       180
    74.8200       196
    74.8400       216
    74.8600       180
    74.8800       202
    74.9000       194
    74.9200       202
    74.9400       194
    74.9600       206
    74.9800       222
    75.0000       198
    75.0200       230
    75.0400       228
    75.0600       204
    75.0800       242
    75.1000       226
    75.1200       232
    75.1400       250
    75.1600       228
    75.1800       224
    75.2000       262
    75.2200       238
    75.2400       236
    75.2600       264
    75.2800       216
    75.3000       256
    75.3200       226
    75.3400       256
    75.3600       270
    75.3800       242
    75.4000       270
    75.4200       278
    75.4400       250
    75.4600       228
    75.4800       238
    75.5000       286
    75.5200       260
    75.5400       286
    75.5600       276
    75.5800       298
    75.6000       314
    75.6200       310
    75.6400       264
    75.6600       296
    75.6800       308
    75.7000       288
    75.7200       292
    75.7400       312
    75.7600       312
    75.7800       322
    75.8000       282
    75.8200       346
    75.8400       288
    75.8600       298
    75.8800       322
    75.9000       342
    75.9200       324
    75.9400       322
    75.9600       294
    75.9800       274
    76.0000       286
    76.0200       284
    76.0400       288
    76.0600       322
    76.0800       272
    76.1000       262
    76.1200       296
    76.1400       266
    76.1600       268
    76.1800       280
    76.2000       246
    76.2200       310
    76.2400       294
    76.2600       294
    76.2800       294
    76.3000       258
    76.3200       292
    76.3400       302
    76.3600       320
    76.3800       308
    76.4000       298
    76.4200       358
    76.4400       352
    76.4600       372
    76.4800       338
    76.5000       350
    76.5200       352
    76.5400       344
    76.5600       374
    76.5800       396
    76.6000       414
    76.6200       392
    76.6400       426
    76.6600       402
    76.6800       420
    76.7000       424
    76.7200       420
    76.7400       394
    76.7600       376
    76.7800       388
    76.8000       370
    76.8200       398
    76.8400       392
    76.8600       374
    76.8800       356
    76.9000       356
    76.9200       362
    76.9400       362
    76.9600       322
    76.9800       366
    77.0000       344
    77.0200       396
    77.0400       338
    77.0600       330
    77.0800       332
    77.1000       336
    77.1200       364
    77.1400       356
    77.1600       334
    77.1800       334
    77.2000       356
    77.2200       354
    77.2400       344
    77.2600       334
    77.2800       394
    77.3000       366
    77.3200       388
    77.3400       362
    77.3600       358
    77.3800       354
    77.4000       402
    77.4200       366
    77.4400       416
    77.4600       428
    77.4800       398
    77.5000       434
    77.5200       416
    77.5400       426
    77.5600       418
    77.5800       476
    77.6000       478
    77.6200       478
    77.6400       420
    77.6600       492
    77.6800       528
    77.7000       492
    77.7200       520
    77.7400       524
    77.7600       536
    77.7800       492
    77.8000       542
    77.8200       524
    77.8400       498
    77.8600       528
    77.8800       504
    77.9000       508
    77.9200       540
    77.9400       488
    77.9600       484
    77.9800       476
    78.0000       460
    78.0200       472
    78.0400       470
    78.0600       394
    78.0800       422
    78.1000       408
    78.1200       380
    78.1400       396
    78.1600       336
    78.1800       380
    78.2000       330
    78.2200       376
    78.2400       320
    78.2600       346
    78.2800       320
    78.3000       332
    78.3200       312
    78.3400       286
    78.3600       328
    78.3800       316
    78.4000       344
    78.4200       350
    78.4400       310
    78.4600       332
    78.4800       326
    78.5000       332
    78.5200       332
    78.5400       372
    78.5600       360
    78.5800       404
    78.6000       340
    78.6200       366
    78.6400       374
    78.6600       404
    78.6800       386
    78.7000       374
    78.7200       382
    78.7400       394
    78.7600       396
    78.7800       392
    78.8000       382
    78.8200       388
    78.8400       384
    78.8600       358
    78.8800       386
    78.9000       414
    78.9200       368
    78.9400       404
    78.9600       372
    78.9800       380
    79.0000       390
    79.0200       312
    79.0400       308
    79.0600       310
    79.0800       304
    79.1000       276
    79.1200       290
    79.1400       284
    79.1600       328
    79.1800       314
    79.2000       284
    79.2200       270
    79.2400       270
    79.2600       290
    79.2800       270
    79.3000       240
    79.3200       310
    79.3400       282
    79.3600       260
    79.3800       268
    79.4000       278
    79.4200       264
    79.4400       256
    79.4600       248
    79.4800       258
    79.5000       242
    79.5200       256
    79.5400       248
    79.5600       252
    79.5800       250
    79.6000       278
    79.6200       242
    79.6400       232
    79.6600       238
    79.6800       232
    79.7000       256
    79.7200       246
    79.7400       234
    79.7600       264
    79.7800       260
    79.8000       254
    79.8200       242
    79.8400       276
    79.8600       226
    79.8800       256
    79.9000       236
    79.9200       282
    79.9400       276
    79.9600       254
    79.9800       248
    80.0000       246
    80.0200       256
    80.0400       268
    80.0600       262
    80.0800       270
    80.1000       270
    80.1200       292
    80.1400       242
    80.1600       252
    80.1800       246
    80.2000       250
    80.2200       234
    80.2400       250
    80.2600       294
    80.2800       250
    80.3000       252
    80.3200       258
    80.3400       278
    80.3600       268
    80.3800       250
    80.4000       278
    80.4200       286
    80.4400       268
    80.4600       270
    80.4800       272
    80.5000       260
    80.5200       266
    80.5400       248
    80.5600       276
    80.5800       284
    80.6000       266
    80.6200       250
    80.6400       264
    80.6600       280
    80.6800       270
    80.7000       246
    80.7200       234
    80.7400       232
    80.7600       248
    80.7800       258
    80.8000       252
    80.8200       240
    80.8400       240
    80.8600       234
    80.8800       238
    80.9000       238
    80.9200       218
    80.9400       238
    80.9600       220
    80.9800       202
    81.0000       224
    81.0200       224
    81.0400       244
    81.0600       212
    81.0800       228
    81.1000       218
    81.1200       214
    81.1400       192
    81.1600       208
    81.1800       190
    81.2000       218
    81.2200       208
    81.2400       196
    81.2600       238
    81.2800       226
    81.3000       226
    81.3200       242
    81.3400       222
    81.3600       246
    81.3800       250
    81.4000       230
    81.4200       242
    81.4400       236
    81.4600       226
    81.4800       240
    81.5000       218
    81.5200       260
    81.5400       240
    81.5600       264
    81.5800       240
    81.6000       246
    81.6200       280
    81.6400       254
    81.6600       272
    81.6800       294
    81.7000       262
    81.7200       272
    81.7400       290
    81.7600       312
    81.7800       314
    81.8000       298
    81.8200       296
    81.8400       280
    81.8600       342
    81.8800       326
    81.9000       330
    81.9200       324
    81.9400       338
    81.9600       342
    81.9800       332
    82.0000       312
    82.0200       318
    82.0400       354
    82.0600       332
    82.0800       364
    82.1000       368
    82.1200       326
    82.1400       340
    82.1600       338
    82.1800       384
    82.2000       390
    82.2200       356
    82.2400       390
    82.2600       368
    82.2800       374
    82.3000       410
    82.3200       382
    82.3400       366
    82.3600       410
    82.3800       414
    82.4000       410
    82.4200       410
    82.4400       464
    82.4600       438
    82.4800       472
    82.5000       480
    82.5200       460
    82.5400       496
    82.5600       512
    82.5800       504
    82.6000       500
    82.6200       520
    82.6400       542
    82.6600       624
    82.6800       586
    82.7000       642
    82.7200       646
    82.7400       690
    82.7600       694
    82.7800       718
    82.8000       826
    82.8200       826
    82.8400       812
    82.8600       826
    82.8800       906
    82.9000       894
    82.9200       892
    82.9400       862
    82.9600       876
    82.9800       906
    83.0000       850
    83.0200       844
    83.0400       822
    83.0600       778
    83.0800       742
    83.1000       772
    83.1200       772
    83.1400       692
    83.1600       716
    83.1800       706
    83.2000       680
    83.2200       648
    83.2400       642
    83.2600       620
    83.2800       550
    83.3000       548
    83.3200       532
    83.3400       504
    83.3600       510
    83.3800       482
    83.4000       448
    83.4200       466
    83.4400       420
    83.4600       416
    83.4800       414
    83.5000       396
    83.5200       414
    83.5400       362
    83.5600       374
    83.5800       358
    83.6000       344
    83.6200       356
    83.6400       342
    83.6600       346
    83.6800       346
    83.7000       334
    83.7200       336
    83.7400       306
    83.7600       340
    83.7800       346
    83.8000       332
    83.8200       308
    83.8400       288
    83.8600       316
    83.8800       288
    83.9000       282
    83.9200       284
    83.9400       308
    83.9600       324
    83.9800       296
    84.0000       306
    84.0200       308
    84.0400       302
    84.0600       330
    84.0800       300
    84.1000       344
    84.1200       298
    84.1400       298
    84.1600       334
    84.1800       310
    84.2000       346
    84.2200       348
    84.2400       322
    84.2600       318
    84.2800       324
    84.3000       326
    84.3200       364
    84.3400       324
    84.3600       320
    84.3800       370
    84.4000       324
    84.4200       322
    84.4400       312
    84.4600       342
    84.4800       338
    84.5000       336
    84.5200       314
    84.5400       356
    84.5600       312
    84.5800       286
    84.6000       358
    84.6200       316
    84.6400       336
    84.6600       324
    84.6800       342
    84.7000       288
    84.7200       288
    84.7400       318
    84.7600       334
    84.7800       328
    84.8000       296
    84.8200       332
    84.8400       330
    84.8600       296
    84.8800       288
    84.9000       304
    84.9200       296
    84.9400       296
    84.9600       298
    84.9800       296
    85.0000       304
    85.0200       280
    85.0400       250
    85.0600       314
    85.0800       276
    85.1000       302
    85.1200       250
    85.1400       296
    85.1600       292
    85.1800       288
    85.2000       272
    85.2200       296
    85.2400       262
    85.2600       260
    85.2800       250
    85.3000       288
    85.3200       274
    85.3400       254
    85.3600       276
    85.3800       254
    85.4000       280
    85.4200       256
    85.4400       262
    85.4600       274
    85.4800       270
    85.5000       288
    85.5200       306
    85.5400       248
    85.5600       270
    85.5800       270
    85.6000       262
    85.6200       262
    85.6400       250
    85.6600       308
    85.6800       268
    85.7000       264
    85.7200       280
    85.7400       306
    85.7600       282
    85.7800       282
    85.8000       248
    85.8200       274
    85.8400       298
    85.8600       284
    85.8800       262
    85.9000       286
    85.9200       266
    85.9400       268
    85.9600       270
    85.9800       298
    86.0000       272
    86.0200       278
    86.0400       282
    86.0600       268
    86.0800       294
    86.1000       268
    86.1200       292
    86.1400       258
    86.1600       282
    86.1800       246
    86.2000       250
    86.2200       246
    86.2400       232
    86.2600       284
    86.2800       238
    86.3000       236
    86.3200       248
    86.3400       220
    86.3600       296
    86.3800       274
    86.4000       290
    86.4200       274
    86.4400       254
    86.4600       258
    86.4800       252
    86.5000       308
    86.5200       270
    86.5400       258
    86.5600       280
    86.5800       298
    86.6000       292
    86.6200       274
    86.6400       284
    86.6600       302
    86.6800       334
    86.7000       332
    86.7200       344
    86.7400       368
    86.7600       324
    86.7800       374
    86.8000       378
    86.8200       318
    86.8400       392
    86.8600       376
    86.8800       410
    86.9000       402
    86.9200       370
    86.9400       396
    86.9600       408
    86.9800       366
    87.0000       412
    87.0200       388
    87.0400       398
    87.0600       440
    87.0800       416
    87.1000       362
    87.1200       368
    87.1400       322
    87.1600       380
    87.1800       380
    87.2000       396
    87.2200       332
    87.2400       352
    87.2600       336
    87.2800       380
    87.3000       354
    87.3200       352
    87.3400       352
    87.3600       376
    87.3800       364
    87.4000       354
    87.4200       374
    87.4400       326
    87.4600       390
    87.4800       348
    87.5000       374
    87.5200       342
    87.5400       362
    87.5600       360
    87.5800       418
    87.6000       368
    87.6200       356
    87.6400       404
    87.6600       386
    87.6800       426
    87.7000       408
    87.7200       472
    87.7400       430
    87.7600       452
    87.7800       462
    87.8000       444
    87.8200       412
    87.8400       448
    87.8600       436
    87.8800       418
    87.9000       386
    87.9200       426
    87.9400       424
    87.9600       422
    87.9800       414
    88.0000       424
    88.0200       440
    88.0400       378
    88.0600       404
    88.0800       378
    88.1000       402
    88.1200       398
    88.1400       362
    88.1600       376
    88.1800       412
    88.2000       400
    88.2200       386
    88.2400       404
    88.2600       410
    88.2800       410
    88.3000       402
    88.3200       436
    88.3400       398
    88.3600       374
    88.3800       358
    88.4000       398
    88.4200       392
    88.4400       408
    88.4600       350
    88.4800       350
    88.5000       388
    88.5200       394
    88.5400       382
    88.5600       334
    88.5800       356
    88.6000       316
    88.6200       316
    88.6400       328
    88.6600       350
    88.6800       342
    88.7000       316
    88.7200       324
    88.7400       308
    88.7600       306
    88.7800       282
    88.8000       294
    88.8200       304
    88.8400       296
    88.8600       262
    88.8800       306
    88.9000       286
    88.9200       256
    88.9400       262
    88.9600       238
    88.9800       278
    89.0000       260
    89.0200       246
    89.0400       238
    89.0600       226
    89.0800       254
    89.1000       242
    89.1200       288
    89.1400       250
    89.1600       258
    89.1800       258
    89.2000       246
    89.2200       222
    89.2400       244
    89.2600       244
    89.2800       230
    89.3000       234
    89.3200       244
    89.3400       252
    89.3600       228
    89.3800       244
    89.4000       222
    89.4200       232
    89.4400       252
    89.4600       236
    89.4800       266
    89.5000       290
    89.5200       252
    89.5400       238
    89.5600       260
    89.5800       242
    89.6000       274
    89.6200       272
    89.6400       276
    89.6600       272
    89.6800       288
    89.7000       258
    89.7200       282
    89.7400       264
    89.7600       286
    89.7800       302
    89.8000       288
    89.8200       270
    89.8400       296
    89.8600       300
    89.8800       260
    89.9000       298
    89.9200       280
    89.9400       272
    89.9600       292
    89.9800       276
    90.0000       282
