    10.0000       340
    10.0200       356
    10.0400       368
    10.0600       408
    10.0800       332
    10.1000       376
    10.1200       344
    10.1400       362
    10.1600       384
    10.1800       326
    10.2000       392
    10.2200       334
    10.2400       364
    10.2600       340
    10.2800       364
    10.3000       340
    10.3200       358
    10.3400       354
    10.3600       364
    10.3800       344
    10.4000       336
    10.4200       330
    10.4400       324
    10.4600       332
    10.4800       384
    10.5000       370
    10.5200       360
    10.5400       316
    10.5600       342
    10.5800       348
    10.6000       342
    10.6200       328
    10.6400       334
    10.6600       356
    10.6800       330
    10.7000       348
    10.7200       344
    10.7400       326
    10.7600       336
    10.7800       354
    10.8000       324
    10.8200       350
    10.8400       324
    10.8600       338
    10.8800       326
    10.9000       336
    10.9200       336
    10.9400       314
    10.9600       340
    10.9800       346
    11.0000       312
    11.0200       328
    11.0400       332
    11.0600       314
    11.0800       322
    11.1000       314
    11.1200       344
    11.1400       328
    11.1600       304
    11.1800       356
    11.2000       384
    11.2200       298
    11.2400       304
    11.2600       324
    11.2800       308
    11.3000       306
    11.3200       322
    11.3400       306
    11.3600       302
    11.3800       312
    11.4000       340
    11.4200       342
    11.4400       348
    11.4600       332
    11.4800       306
    11.5000       310
    11.5200       328
    11.5400       326
    11.5600       322
    11.5800       322
    11.6000       340
    11.6200       332
    11.6400       318
    11.6600       336
    11.6800       322
    11.7000       326
    11.7200       318
    11.7400       332
    11.7600       342
    11.7800       334
    11.8000       322
    11.8200       358
    11.8400       344
    11.8600       370
    11.8800       360
    11.9000       322
    11.9200       372
    11.9400       386
    11.9600       408
    11.9800       360
    12.0000       408
    12.0200       390
    12.0400       428
    12.0600       444
    12.0800       450
    12.1000       500
    12.1200       498
    12.1400       528
    12.1600       520
    12.1800       532
    12.2000       568
    12.2200       598
    12.2400       530
    12.2600       508
    12.2800       440
    12.3000       416
    12.3200       398
    12.3400       358
    12.3600       334
    12.3800       326
    12.4000       286
    12.4200       338
    12.4400       320
    12.4600       272
    12.4800       304
    12.5000       292
    12.5200       286
    12.5400       332
    12.5600       278
    12.5800       286
    12.6000       328
    12.6200       282
    12.6400       292
    12.6600       278
    12.6800       304
    12.7000       294
    12.7200       304
    12.7400       298
    12.7600       302
    12.7800       284
    12.8000       254
    12.8200       262
    12.8400       292
    12.8600       278
    12.8800       280
    12.9000       278
    12.9200       290
    12.9400       262
    12.9600       280
    12.9800       262
    13.0000       286
    13.0200       302
    13.0400       282
    13.0600       290
    13.0800       242
    13.1000       258
    13.1200       278
    13.1400       282
    13.1600       282
    13.1800       314
    13.2000       300
    13.2200       254
    13.2400       286
    13.2600       254
    13.2800       234
    13.3000       272
    13.3200       272
    13.3400       236
    13.3600       252
    13.3800       268
    13.4000       248
    13.4200       254
    13.4400       256
    13.4600       264
    13.4800       246
    13.5000       288
    13.5200       256
    13.5400       284
    13.5600       270
    13.5800       276
    13.6000       266
    13.6200       282
    13.6400       230
    13.6600       268
    13.6800       260
    13.7000       308
    13.7200       226
    13.7400       246
    13.7600       232
    13.7800       262
    13.8000       224
    13.8200       258
    13.8400       260
    13.8600       302
    13.8800       258
    13.9000       248
    13.9200       250
    13.9400       236
    13.9600       274
    13.9800       288
    14.0000       226
    14.0200       276
    14.0400       236
    14.0600       258
    14.0800       230
    14.1000       258
    14.1200       226
    14.1400       254
    14.1600       258
    14.1800       260
    14.2000       242
    14.2200       260
    14.2400       250
    14.2600       254
    14.2800       274
    14.3000       228
    14.3200       250
    14.3400       258
    14.3600       258
    14.3800       264
    14.4000       272
    14.4200       266
    14.4400       240
    14.4600       236
    14.4800       240
    14.5000       242
    14.5200       278
    14.5400       244
    14.5600       264
    14.5800       280
    14.6000       228
    14.6200       290
    14.6400       288
    14.6600       302
    14.6800       312
    14.7000       304
    14.7200       300
    14.7400       314
    14.7600       330
    14.7800       348
    14.8000       384
    14.8200       392
    14.8400       384
    14.8600       412
    14.8800       446
    14.9000       440
    14.9200       492
    14.9400       510
    14.9600       536
    14.9800       638
    15.0000       656
    15.0200       698
    15.0400       776
    15.0600       836
    15.0800       858
    15.1000      1018
    15.1200      1122
    15.1400      1256
    15.1600      1364
    15.1800      1490
    15.2000      1536
    15.2200      1506
    15.2400      1326
    15.2600      1140
    15.2800       868
    15.3000       716
    15.3200       530
    15.3400       474
    15.3600       420
    15.3800       378
    15.4000       348
    15.4200       352
    15.4400       316
    15.4600       304
    15.4800       314
    15.5000       272
    15.5200       312
    15.5400       306
    15.5600       258
    15.5800       252
    15.6000       272
    15.6200       260
    15.6400       250
    15.6600       240
    15.6800       244
    15.7000       232
    15.7200       248
    15.7400       258
    15.7600       252
    15.7800       242
    15.8000       230
    15.8200       266
    15.8400       228
    15.8600       262
    15.8800       222
    15.9000       262
    15.9200       260
    15.9400       244
    15.9600       278
    15.9800       242
    16.0000       248
    16.0200       262
    16.0400       276
    16.0600       258
    16.0800       272
    16.1000       272
    16.1200       268
    16.1400       302
    16.1600       258
    16.1800       260
    16.2000       272
    16.2200       254
    16.2400       304
    16.2600       278
    16.2800       304
    16.3000       290
    16.3200       272
    16.3400       298
    16.3600       290
    16.3800       264
    16.4000       240
    16.4200       286
    16.4400       282
    16.4600       282
    16.4800       304
    16.5000       298
    16.5200       302
    16.5400       336
    16.5600       276
    16.5800       336
    16.6000       332
    16.6200       332
    16.6400       364
    16.6600       422
    16.6800       400
    16.7000       416
    16.7200       466
    16.7400       532
    16.7600       506
    16.7800       564
    16.8000       604
    16.8200       664
    16.8400       784
    16.8600       856
    16.8800       910
    16.9000      1068
    16.9200      1206
    16.9400      1428
    16.9600      1676
    16.9800      1882
    17.0000      2212
    17.0200      2630
    17.0400      2778
    17.0600      2648
    17.0800      2538
    17.1000      2210
    17.1200      1764
    17.1400      1388
    17.1600      1108
    17.1800      1066
    17.2000       832
    17.2200       794
    17.2400       790
    17.2600       702
    17.2800       690
    17.3000       638
    17.3200       620
    17.3400       582
    17.3600       512
    17.3800       522
    17.4000       478
    17.4200       392
    17.4400       452
    17.4600       390
    17.4800       444
    17.5000       380
    17.5200       380
    17.5400       374
    17.5600       412
    17.5800       430
    17.6000       440
    17.6200       436
    17.6400       460
    17.6600       466
    17.6800       480
    17.7000       568
    17.7200       560
    17.7400       620
    17.7600       710
    17.7800       744
    17.8000       748
    17.8200       804
    17.8400       734
    17.8600       744
    17.8800       646
    17.9000       592
    17.9200       516
    17.9400       424
    17.9600       364
    17.9800       328
    18.0000       280
    18.0200       290
    18.0400       276
    18.0600       270
    18.0800       252
    18.1000       286
    18.1200       252
    18.1400       234
    18.1600       210
    18.1800       232
    18.2000       224
    18.2200       256
    18.2400       212
    18.2600       222
    18.2800       198
    18.3000       254
    18.3200       224
    18.3400       246
    18.3600       224
    18.3800       220
    18.4000       226
    18.4200       236
    18.4400       226
    18.4600       186
    18.4800       220
    18.5000       242
    18.5200       220
    18.5400       240
    18.5600       248
    18.5800       216
    18.6000       216
    18.6200       236
    18.6400       218
    18.6600       238
    18.6800       236
    18.7000       244
    18.7200       220
    18.7400       246
    18.7600       270
    18.7800       248
    18.8000       268
    18.8200       250
    18.8400       296
    18.8600       260
    18.8800       288
    18.9000       300
    18.9200       292
    18.9400       258
    18.9600       316
    18.9800       316
    19.0000       296
    19.0200       290
    19.0400       328
    19.0600       338
    19.0800       288
    19.1000       316
    19.1200       314
    19.1400       346
    19.1600       354
    19.1800       344
    19.2000       392
    19.2200       444
    19.2400       454
    19.2600       476
    19.2800       588
    19.3000       634
    19.3200       694
    19.3400       718
    19.3600       806
    19.3800       918
    19.4000      1096
    19.4200      1262
    19.4400      1378
    19.4600      1546
    19.4800      1852
    19.5000      2128
    19.5200      2460
    19.5400      2792
    19.5600      2778
    19.5800      2810
    19.6000      2574
    19.6200      2362
    19.6400      1934
    19.6600      1506
    19.6800      1194
    19.7000       974
    19.7200       918
    19.7400       852
    19.7600       878
    19.7800       804
    19.8000       930
    19.8200       966
    19.8400       986
    19.8600      1192
    19.8800      1342
    19.9000      1458
    19.9200      1664
    19.9400      1908
    19.9600      2092
    19.9800      2134
    20.0000      2260
    20.0200      2128
    20.0400      1904
    20.0600      1598
    20.0800      1336
    20.1000      1134
    20.1200       904
    20.1400       708
    20.1600       618
    20.1800       558
    20.2000       466
    20.2200       382
    20.2400       386
    20.2600       346
    20.2800       346
    20.3000       316
    20.3200       306
    20.3400       302
    20.3600       284
    20.3800       288
    20.4000       280
    20.4200       312
    20.4400       266
    20.4600       232
    20.4800       252
    20.5000       240
    20.5200       240
    20.5400       248
    20.5600       228
    20.5800       226
    20.6000       252
    20.6200       256
    20.6400       240
    20.6600       222
    20.6800       268
    20.7000       208
    20.7200       232
    20.7400       246
    20.7600       270
    20.7800       252
    20.8000       272
    20.8200       294
    20.8400       288
    20.8600       286
    20.8800       318
    20.9000       330
    20.9200       368
    20.9400       374
    20.9600       434
    20.9800       470
    21.0000       504
    21.0200       570
    21.0400       592
    21.0600       700
    21.0800       786
    21.1000       862
    21.1200       972
    21.1400      1154
    21.1600      1332
    21.1800      1350
    21.2000      1500
    21.2200      1506
    21.2400      1498
    21.2600      1374
    21.2800      1226
    21.3000      1058
    21.3200       846
    21.3400       692
    21.3600       600
    21.3800       502
    21.4000       418
    21.4200       418
    21.4400       358
    21.4600       302
    21.4800       268
    21.5000       284
    21.5200       290
    21.5400       254
    21.5600       268
    21.5800       248
    21.6000       238
    21.6200       262
    21.6400       218
    21.6600       214
    21.6800       234
    21.7000       222
    21.7200       210
    21.7400       194
    21.7600       220
    21.7800       210
    21.8000       222
    21.8200       196
    21.8400       234
    21.8600       228
    21.8800       222
    21.9000       240
    21.9200       206
    21.9400       214
    21.9600       214
    21.9800       218
    22.0000       220
    22.0200       186
    22.0400       208
    22.0600       234
    22.0800       240
    22.1000       236
    22.1200       198
    22.1400       228
    22.1600       214
    22.1800       210
    22.2000       218
    22.2200       200
    22.2400       242
    22.2600       248
    22.2800       236
    22.3000       262
    22.3200       274
    22.3400       262
    22.3600       294
    22.3800       246
    22.4000       304
    22.4200       336
    22.4400       316
    22.4600       364
    22.4800       364
    22.5000       422
    22.5200       480
    22.5400       464
    22.5600       552
    22.5800       542
    22.6000       624
    22.6200       694
    22.6400       750
    22.6600       856
    22.6800      1030
    22.7000      1184
    22.7200      1354
    22.7400      1532
    22.7600      1796
    22.7800      2036
    22.8000      2508
    22.8200      2800
    22.8400      3268
    22.8600      3550
    22.8800      3596
    22.9000      3634
    22.9200      3300
    22.9400      2806
    22.9600      2230
    22.9800      1838
    23.0000      1412
    23.0200      1106
    23.0400       958
    23.0600       724
    23.0800       638
    23.1000       530
    23.1200       478
    23.1400       514
    23.1600       432
    23.1800       438
    23.2000       374
    23.2200       348
    23.2400       368
    23.2600       306
    23.2800       296
    23.3000       280
    23.3200       286
    23.3400       264
    23.3600       274
    23.3800       236
    23.4000       240
    23.4200       252
    23.4400       230
    23.4600       236
    23.4800       244
    23.5000       234
    23.5200       232
    23.5400       244
    23.5600       210
    23.5800       202
    23.6000       240
    23.6200       214
    23.6400       242
    23.6600       250
    23.6800       230
    23.7000       218
    23.7200       204
    23.7400       226
    23.7600       222
    23.7800       204
    23.8000       196
    23.8200       180
    23.8400       226
    23.8600       214
    23.8800       212
    23.9000       206
    23.9200       206
    23.9400       230
    23.9600       238
    23.9800       214
    24.0000       228
    24.0200       232
    24.0400       236
    24.0600       258
    24.0800       230
    24.1000       226
    24.1200       254
    24.1400       234
    24.1600       270
    24.1800       258
    24.2000       292
    24.2200       280
    24.2400       310
    24.2600       306
    24.2800       336
    24.3000       356
    24.3200       382
    24.3400       400
    24.3600       456
    24.3800       480
    24.4000       580
    24.4200       596
    24.4400       658
    24.4600       722
    24.4800       842
    24.5000       858
    24.5200       928
    24.5400       944
    24.5600      1006
    24.5800       990
    24.6000       898
    24.6200       880
    24.6400       814
    24.6600       742
    24.6800       724
    24.7000       676
    24.7200       666
    24.7400       652
    24.7600       668
    24.7800       646
    24.8000       640
    24.8200       566
    24.8400       552
    24.8600       554
    24.8800       470
    24.9000       424
    24.9200       456
    24.9400       438
    24.9600       450
    24.9800       454
    25.0000       438
    25.0200       460
    25.0400       482
    25.0600       508
    25.0800       512
    25.1000       562
    25.1200       596
    25.1400       644
    25.1600       692
    25.1800       700
    25.2000       824
    25.2200       898
    25.2400       984
    25.2600      1160
    25.2800      1186
    25.3000      1206
    25.3200      1310
    25.3400      1324
    25.3600      1352
    25.3800      1182
    25.4000      1112
    25.4200      1056
    25.4400       966
    25.4600       868
    25.4800       888
    25.5000       950
    25.5200       974
    25.5400       978
    25.5600      1034
    25.5800      1086
    25.6000      1094
    25.6200      1130
    25.6400      1022
    25.6600       964
    25.6800       868
    25.7000       770
    25.7200       662
    25.7400       586
    25.7600       520
    25.7800       472
    25.8000       428
    25.8200       386
    25.8400       386
    25.8600       338
    25.8800       352
    25.9000       326
    25.9200       272
    25.9400       308
    25.9600       290
    25.9800       280
    26.0000       284
    26.0200       266
    26.0400       288
    26.0600       262
    26.0800       266
    26.1000       246
    26.1200       260
    26.1400       248
    26.1600       224
    26.1800       250
    26.2000       240
    26.2200       240
    26.2400       222
    26.2600       246
    26.2800       230
    26.3000       236
    26.3200       240
    26.3400       262
    26.3600       260
    26.3800       262
    26.4000       260
    26.4200       246
    26.4400       246
    26.4600       256
    26.4800       282
    26.5000       242
    26.5200       242
    26.5400       262
    26.5600       286
    26.5800       286
    26.6000       262
    26.6200       308
    26.6400       282
    26.6600       260
    26.6800       296
    26.7000       266
    26.7200       294
    26.7400       268
    26.7600       250
    26.7800       262
    26.8000       274
    26.8200       270
    26.8400       236
    26.8600       238
    26.8800       246
    26.9000       234
    26.9200       236
    26.9400       248
    26.9600       244
    26.9800       270
    27.0000       230
    27.0200       232
    27.0400       260
    27.0600       284
    27.0800       250
    27.1000       298
    27.1200       282
    27.1400       294
    27.1600       300
    27.1800       274
    27.2000       320
    27.2200       344
    27.2400       374
    27.2600       436
    27.2800       400
    27.3000       458
    27.3200       466
    27.3400       532
    27.3600       614
    27.3800       684
    27.4000       740
    27.4200       812
    27.4400       870
    27.4600       936
    27.4800      1004
    27.5000      1002
    27.5200      1006
    27.5400       934
    27.5600       858
    27.5800       752
    27.6000       696
    27.6200       614
    27.6400       558
    27.6600       506
    27.6800       466
    27.7000       408
    27.7200       402
    27.7400       356
    27.7600       340
    27.7800       316
    27.8000       318
    27.8200       288
    27.8400       350
    27.8600       308
    27.8800       332
    27.9000       320
    27.9200       340
    27.9400       340
    27.9600       342
    27.9800       344
    28.0000       356
    28.0200       334
    28.0400       406
    28.0600       360
    28.0800       398
    28.1000       452
    28.1200       454
    28.1400       472
    28.1600       484
    28.1800       582
    28.2000       596
    28.2200       602
    28.2400       642
    28.2600       668
    28.2800       726
    28.3000       704
    28.3200       670
    28.3400       674
    28.3600       600
    28.3800       584
    28.4000       540
    28.4200       494
    28.4400       472
    28.4600       446
    28.4800       394
    28.5000       396
    28.5200       386
    28.5400       376
    28.5600       374
    28.5800       392
    28.6000       364
    28.6200       382
    28.6400       408
    28.6600       446
    28.6800       426
    28.7000       450
    28.7200       440
    28.7400       486
    28.7600       464
    28.7800       454
    28.8000       366
    28.8200       358
    28.8400       366
    28.8600       340
    28.8800       318
    28.9000       306
    28.9200       274
    28.9400       294
    28.9600       278
    28.9800       286
    29.0000       278
    29.0200       278
    29.0400       314
    29.0600       290
    29.0800       292
    29.1000       290
    29.1200       308
    29.1400       312
    29.1600       306
    29.1800       316
    29.2000       300
    29.2200       298
    29.2400       306
    29.2600       334
    29.2800       376
    29.3000       374
    29.3200       380
    29.3400       392
    29.3600       440
    29.3800       442
    29.4000       456
    29.4200       488
    29.4400       492
    29.4600       542
    29.4800       620
    29.5000       654
    29.5200       692
    29.5400       734
    29.5600       810
    29.5800       912
    29.6000      1014
    29.6200      1044
    29.6400      1196
    29.6600      1180
    29.6800      1196
    29.7000      1126
    29.7200      1144
    29.7400      1052
    29.7600       942
    29.7800       880
    29.8000       768
    29.8200       760
    29.8400       658
    29.8600       592
    29.8800       612
    29.9000       574
    29.9200       582
    29.9400       668
    29.9600       622
    29.9800       680
    30.0000       774
    30.0200       802
    30.0400       922
    30.0600       944
    30.0800      1122
    30.1000      1232
    30.1200      1326
    30.1400      1516
    30.1600      1622
    30.1800      1674
    30.2000      1720
    30.2200      1766
    30.2400      1694
    30.2600      1698
    30.2800      1622
    30.3000      1572
    30.3200      1492
    30.3400      1544
    30.3600      1508
    30.3800      1572
    30.4000      1620
    30.4200      1672
    30.4400      1722
    30.4600      1984
    30.4800      2242
    30.5000      2466
    30.5200      2814
    30.5400      3226
    30.5600      3628
    30.5800      4234
    30.6000      4660
    30.6200      5466
    30.6400      6052
    30.6600      6530
    30.6800      6854
    30.7000      6998
    30.7200      6662
    30.7400      6100
    30.7600      5602
    30.7800      4810
    30.8000      4068
    30.8200      3460
    30.8400      2874
    30.8600      2294
    30.8800      1892
    30.9000      1646
    30.9200      1382
    30.9400      1262
    30.9600      1162
    30.9800      1074
    31.0000      1018
    31.0200       894
    31.0400       832
    31.0600       866
    31.0800       798
    31.1000       766
    31.1200       796
    31.1400       700
    31.1600       694
    31.1800       666
    31.2000       674
    31.2200       622
    31.2400       616
    31.2600       602
    31.2800       552
    31.3000       538
    31.3200       476
    31.3400       504
    31.3600       492
    31.3800       450
    31.4000       420
    31.4200       422
    31.4400       436
    31.4600       422
    31.4800       382
    31.5000       396
    31.5200       396
    31.5400       362
    31.5600       408
    31.5800       376
    31.6000       382
    31.6200       414
    31.6400       442
    31.6600       444
    31.6800       478
    31.7000       482
    31.7200       528
    31.7400       500
    31.7600       556
    31.7800       576
    31.8000       602
    31.8200       652
    31.8400       726
    31.8600       798
    31.8800       902
    31.9000      1010
    31.9200      1204
    31.9400      1322
    31.9600      1520
    31.9800      1720
    32.0000      1910
    32.0200      1982
    32.0400      2026
    32.0600      2028
    32.0800      1878
    32.1000      1702
    32.1200      1618
    32.1400      1362
    32.1600      1306
    32.1800      1246
    32.2000      1090
    32.2200      1154
    32.2400      1036
    32.2600      1096
    32.2800      1232
    32.3000      1258
    32.3200      1408
    32.3400      1490
    32.3600      1694
    32.3800      1896
    32.4000      2200
    32.4200      2556
    32.4400      2888
    32.4600      3494
    32.4800      4042
    32.5000      4746
    32.5200      5294
    32.5400      5806
    32.5600      6280
    32.5800      6552
    32.6000      6448
    32.6200      6360
    32.6400      5882
    32.6600      5312
    32.6800      4774
    32.7000      4072
    32.7200      3458
    32.7400      2882
    32.7600      2470
    32.7800      2014
    32.8000      1818
    32.8200      1572
    32.8400      1392
    32.8600      1262
    32.8800      1158
    32.9000      1082
    32.9200      1078
    32.9400      1046
    32.9600      1066
    32.9800      1042
    33.0000      1084
    33.0200      1168
    33.0400      1246
    33.0600      1324
    33.0800      1356
    33.1000      1466
    33.1200      1356
    33.1400      1376
    33.1600      1274
    33.1800      1120
    33.2000      1072
    33.2200       936
    33.2400       856
    33.2600       706
    33.2800       586
    33.3000       536
    33.3200       518
    33.3400       440
    33.3600       458
    33.3800       418
    33.4000       388
    33.4200       420
    33.4400       404
    33.4600       320
    33.4800       314
    33.5000       342
    33.5200       290
    33.5400       296
    33.5600       306
    33.5800       282
    33.6000       304
    33.6200       290
    33.6400       278
    33.6600       270
    33.6800       276
    33.7000       272
    33.7200       260
    33.7400       290
    33.7600       254
    33.7800       268
    33.8000       256
    33.8200       268
    33.8400       254
    33.8600       244
    33.8800       252
    33.9000       248
    33.9200       274
    33.9400       250
    33.9600       242
    33.9800       264
    34.0000       266
    34.0200       272
    34.0400       250
    34.0600       282
    34.0800       242
    34.1000       264
    34.1200       256
    34.1400       272
    34.1600       282
    34.1800       274
    34.2000       278
    34.2200       286
    34.2400       310
    34.2600       312
    34.2800       318
    34.3000       330
    34.3200       370
    34.3400       356
    34.3600       452
    34.3800       432
    34.4000       506
    34.4200       554
    34.4400       610
    34.4600       662
    34.4800       694
    34.5000       704
    34.5200       752
    34.5400       688
    34.5600       656
    34.5800       570
    34.6000       572
    34.6200       484
    34.6400       532
    34.6600       466
    34.6800       400
    34.7000       380
    34.7200       404
    34.7400       368
    34.7600       350
    34.7800       336
    34.8000       346
    34.8200       372
    34.8400       346
    34.8600       356
    34.8800       364
    34.9000       366
    34.9200       376
    34.9400       382
    34.9600       458
    34.9800       438
    35.0000       478
    35.0200       556
    35.0400       548
    35.0600       578
    35.0800       574
    35.1000       506
    35.1200       478
    35.1400       466
    35.1600       448
    35.1800       418
    35.2000       392
    35.2200       370
    35.2400       306
    35.2600       342
    35.2800       296
    35.3000       302
    35.3200       294
    35.3400       308
    35.3600       296
    35.3800       284
    35.4000       236
    35.4200       246
    35.4400       304
    35.4600       294
    35.4800       266
    35.5000       260
    35.5200       302
    35.5400       274
    35.5600       290
    35.5800       260
    35.6000       338
    35.6200       298
    35.6400       290
    35.6600       326
    35.6800       324
    35.7000       318
    35.7200       300
    35.7400       340
    35.7600       348
    35.7800       356
    35.8000       352
    35.8200       368
    35.8400       414
    35.8600       434
    35.8800       410
    35.9000       454
    35.9200       516
    35.9400       524
    35.9600       548
    35.9800       604
    36.0000       638
    36.0200       708
    36.0400       736
    36.0600       786
    36.0800       860
    36.1000       900
    36.1200       964
    36.1400       986
    36.1600      1032
    36.1800      1072
    36.2000       948
    36.2200       918
    36.2400       788
    36.2600       816
    36.2800       758
    36.3000       654
    36.3200       582
    36.3400       552
    36.3600       496
    36.3800       434
    36.4000       494
    36.4200       446
    36.4400       458
    36.4600       450
    36.4800       426
    36.5000       424
    36.5200       424
    36.5400       408
    36.5600       428
    36.5800       448
    36.6000       476
    36.6200       490
    36.6400       542
    36.6600       564
    36.6800       558
    36.7000       602
    36.7200       694
    36.7400       776
    36.7600       896
    36.7800       928
    36.8000      1070
    36.8200      1176
    36.8400      1364
    36.8600      1500
    36.8800      1578
    36.9000      1722
    36.9200      1690
    36.9400      1688
    36.9600      1626
    36.9800      1534
    37.0000      1448
    37.0200      1310
    37.0400      1220
    37.0600      1142
    37.0800       990
    37.1000       928
    37.1200       890
    37.1400       918
    37.1600       836
    37.1800       820
    37.2000       824
    37.2200       792
    37.2400       738
    37.2600       742
    37.2800       664
    37.3000       726
    37.3200       660
    37.3400       626
    37.3600       582
    37.3800       624
    37.4000       554
    37.4200       550
    37.4400       554
    37.4600       492
    37.4800       502
    37.5000       470
    37.5200       520
    37.5400       518
    37.5600       540
    37.5800       500
    37.6000       524
    37.6200       480
    37.6400       554
    37.6600       626
    37.6800       624
    37.7000       648
    37.7200       656
    37.7400       706
    37.7600       724
    37.7800       678
    37.8000       740
    37.8200       762
    37.8400       758
    37.8600       862
    37.8800       958
    37.9000       972
    37.9200      1132
    37.9400      1102
    37.9600      1316
    37.9800      1414
    38.0000      1584
    38.0200      1630
    38.0400      1838
    38.0600      1798
    38.0800      1746
    38.1000      1770
    38.1200      1762
    38.1400      1636
    38.1600      1594
    38.1800      1620
    38.2000      1536
    38.2200      1500
    38.2400      1506
    38.2600      1424
    38.2800      1538
    38.3000      1608
    38.3200      1786
    38.3400      1898
    38.3600      2156
    38.3800      2416
    38.4000      2696
    38.4200      2916
    38.4400      3246
    38.4600      3678
    38.4800      4070
    38.5000      4456
    38.5200      4892
    38.5400      5038
    38.5600      5362
    38.5800      5586
    38.6000      5748
    38.6200      6090
    38.6400      6094
    38.6600      6026
    38.6800      5858
    38.7000      5868
    38.7200      5556
    38.7400      5218
    38.7600      5030
    38.7800      4752
    38.8000      4284
    38.8200      3874
    38.8400      3394
    38.8600      3062
    38.8800      2660
    38.9000      2362
    38.9200      2088
    38.9400      1900
    38.9600      1648
    38.9800      1594
    39.0000      1418
    39.0200      1350
    39.0400      1232
    39.0600      1254
    39.0800      1292
    39.1000      1328
    39.1200      1240
    39.1400      1228
    39.1600      1154
    39.1800      1158
    39.2000      1154
    39.2200      1194
    39.2400      1182
    39.2600      1142
    39.2800      1202
    39.3000      1200
    39.3200      1208
    39.3400      1232
    39.3600      1260
    39.3800      1346
    39.4000      1278
    39.4200      1256
    39.4400      1296
    39.4600      1294
    39.4800      1180
    39.5000      1178
    39.5200      1176
    39.5400      1236
    39.5600      1216
    39.5800      1304
    39.6000      1352
    39.6200      1382
    39.6400      1550
    39.6600      1720
    39.6800      1826
    39.7000      1986
    39.7200      2012
    39.7400      2110
    39.7600      1898
    39.7800      1976
    39.8000      1778
    39.8200      1666
    39.8400      1536
    39.8600      1394
    39.8800      1300
    39.9000      1106
    39.9200      1028
    39.9400       946
    39.9600       886
    39.9800       826
    40.0000       756
    40.0200       722
    40.0400       798
    40.0600       744
    40.0800       804
    40.1000       794
    40.1200       812
    40.1400       784
    40.1600       876
    40.1800       930
    40.2000       954
    40.2200       900
    40.2400       928
    40.2600       962
    40.2800       912
    40.3000       910
    40.3200       842
    40.3400       920
    40.3600       920
    40.3800       922
    40.4000      1030
    40.4200      1068
    40.4400      1116
    40.4600      1216
    40.4800      1288
    40.5000      1448
    40.5200      1552
    40.5400      1588
    40.5600      1738
    40.5800      1704
    40.6000      1720
    40.6200      1738
    40.6400      1640
    40.6600      1672
    40.6800      1526
    40.7000      1448
    40.7200      1318
    40.7400      1254
    40.7600      1112
    40.7800      1070
    40.8000       936
    40.8200       864
    40.8400       838
    40.8600       734
    40.8800       678
    40.9000       678
    40.9200       650
    40.9400       626
    40.9600       662
    40.9800       602
    41.0000       630
    41.0200       670
    41.0400       664
    41.0600       720
    41.0800       722
    41.1000       762
    41.1200       782
    41.1400       854
    41.1600      1008
    41.1800      1088
    41.2000      1128
    41.2200      1178
    41.2400      1370
    41.2600      1316
    41.2800      1462
    41.3000      1552
    41.3200      1550
    41.3400      1584
    41.3600      1572
    41.3800      1578
    41.4000      1562
    41.4200      1726
    41.4400      1656
    41.4600      1750
    41.4800      1744
    41.5000      1740
    41.5200      1792
    41.5400      1730
    41.5600      1638
    41.5800      1642
    41.6000      1612
    41.6200      1456
    41.6400      1280
    41.6600      1286
    41.6800      1290
    41.7000      1116
    41.7200      1124
    41.7400      1102
    41.7600      1100
    41.7800      1122
    41.8000      1154
    41.8200      1232
    41.8400      1344
    41.8600      1412
    41.8800      1458
    41.9000      1488
    41.9200      1586
    41.9400      1574
    41.9600      1520
    41.9800      1496
    42.0000      1410
    42.0200      1370
    42.0400      1242
    42.0600      1088
    42.0800       968
    42.1000       952
    42.1200       836
    42.1400       714
    42.1600       712
    42.1800       646
    42.2000       618
    42.2200       552
    42.2400       526
    42.2600       464
    42.2800       458
    42.3000       510
    42.3200       480
    42.3400       444
    42.3600       414
    42.3800       414
    42.4000       432
    42.4200       418
    42.4400       394
    42.4600       424
    42.4800       410
    42.5000       362
    42.5200       408
    42.5400       376
    42.5600       376
    42.5800       394
    42.6000       390
    42.6200       380
    42.6400       358
    42.6600       410
    42.6800       398
    42.7000       388
    42.7200       406
    42.7400       402
    42.7600       410
    42.7800       384
    42.8000       404
    42.8200       424
    42.8400       426
    42.8600       434
    42.8800       448
    42.9000       494
    42.9200       488
    42.9400       520
    42.9600       558
    42.9800       554
    43.0000       606
    43.0200       684
    43.0400       696
    43.0600       766
    43.0800       846
    43.1000       960
    43.1200      1026
    43.1400      1212
    43.1600      1288
    43.1800      1496
    43.2000      1638
    43.2200      1650
    43.2400      1724
    43.2600      1746
    43.2800      1802
    43.3000      1704
    43.3200      1580
    43.3400      1614
    43.3600      1404
    43.3800      1278
    43.4000      1214
    43.4200      1070
    43.4400       928
    43.4600       846
    43.4800       744
    43.5000       696
    43.5200       604
    43.5400       584
    43.5600       592
    43.5800       510
    43.6000       516
    43.6200       544
    43.6400       506
    43.6600       476
    43.6800       520
    43.7000       530
    43.7200       514
    43.7400       552
    43.7600       572
    43.7800       608
    43.8000       618
    43.8200       646
    43.8400       678
    43.8600       670
    43.8800       602
    43.9000       606
    43.9200       602
    43.9400       642
    43.9600       614
    43.9800       574
    44.0000       522
    44.0200       546
    44.0400       500
    44.0600       484
    44.0800       466
    44.1000       468
    44.1200       470
    44.1400       456
    44.1600       424
    44.1800       464
    44.2000       474
    44.2200       428
    44.2400       462
    44.2600       508
    44.2800       446
    44.3000       460
    44.3200       506
    44.3400       462
    44.3600       452
    44.3800       514
    44.4000       478
    44.4200       506
    44.4400       510
    44.4600       494
    44.4800       466
    44.5000       488
    44.5200       494
    44.5400       504
    44.5600       542
    44.5800       556
    44.6000       534
    44.6200       534
    44.6400       586
    44.6600       600
    44.6800       650
    44.7000       684
    44.7200       684
    44.7400       674
    44.7600       728
    44.7800       696
    44.8000       734
    44.8200       784
    44.8400       782
    44.8600       848
    44.8800       850
    44.9000       942
    44.9200      1024
    44.9400      1092
    44.9600      1184
    44.9800      1286
    45.0000      1340
    45.0200      1524
    45.0400      1518
    45.0600      1598
    45.0800      1618
    45.1000      1768
    45.1200      1822
    45.1400      1894
    45.1600      1950
    45.1800      2074
    45.2000      2068
    45.2200      2036
    45.2400      2116
    45.2600      2152
    45.2800      2088
    45.3000      2060
    45.3200      1954
    45.3400      1904
    45.3600      1852
    45.3800      1776
    45.4000      1626
    45.4200      1608
    45.4400      1554
    45.4600      1556
    45.4800      1436
    45.5000      1450
    45.5200      1264
    45.5400      1296
    45.5600      1228
    45.5800      1090
    45.6000      1114
    45.6200      1048
    45.6400       956
    45.6600       924
    45.6800       820
    45.7000       822
    45.7200       770
    45.7400       772
    45.7600       796
    45.7800       748
    45.8000       740
    45.8200       756
    45.8400       730
    45.8600       714
    45.8800       734
    45.9000       688
    45.9200       728
    45.9400       716
    45.9600       734
    45.9800       690
    46.0000       678
    46.0200       664
    46.0400       680
    46.0600       672
    46.0800       660
    46.1000       720
    46.1200       752
    46.1400       724
    46.1600       696
    46.1800       788
    46.2000       708
    46.2200       774
    46.2400       794
    46.2600       850
    46.2800       878
    46.3000       888
    46.3200       966
    46.3400      1026
    46.3600      1102
    46.3800      1234
    46.4000      1300
    46.4200      1386
    46.4400      1506
    46.4600      1668
    46.4800      1892
    46.5000      2042
    46.5200      2202
    46.5400      2572
    46.5600      2888
    46.5800      3182
    46.6000      3618
    46.6200      3946
    46.6400      4324
    46.6600      4988
    46.6800      5492
    46.7000      5992
    46.7200      6314
    46.7400      6558
    46.7600      6550
    46.7800      6610
    46.8000      6080
    46.8200      5876
    46.8400      5514
    46.8600      5202
    46.8800      4684
    46.9000      4304
    46.9200      3802
    46.9400      3444
    46.9600      2940
    46.9800      2610
    47.0000      2396
    47.0200      2052
    47.0400      1904
    47.0600      1674
    47.0800      1482
    47.1000      1336
    47.1200      1338
    47.1400      1184
    47.1600      1110
    47.1800       948
    47.2000       956
    47.2200       858
    47.2400       854
    47.2600       798
    47.2800       746
    47.3000       720
    47.3200       642
    47.3400       588
    47.3600       612
    47.3800       584
    47.4000       518
    47.4200       538
    47.4400       532
    47.4600       516
    47.4800       536
    47.5000       520
    47.5200       454
    47.5400       440
    47.5600       518
    47.5800       506
    47.6000       494
    47.6200       452
    47.6400       480
    47.6600       464
    47.6800       478
    47.7000       486
    47.7200       496
    47.7400       542
    47.7600       540
    47.7800       586
    47.8000       650
    47.8200       660
    47.8400       692
    47.8600       708
    47.8800       648
    47.9000       730
    47.9200       684
    47.9400       668
    47.9600       702
    47.9800       666
    48.0000       644
    48.0200       628
    48.0400       684
    48.0600       610
    48.0800       618
    48.1000       630
    48.1200       628
    48.1400       620
    48.1600       652
    48.1800       694
    48.2000       752
    48.2200       778
    48.2400       730
    48.2600       772
    48.2800       788
    48.3000       806
    48.3200       764
    48.3400       764
    48.3600       768
    48.3800       818
    48.4000       776
    48.4200       772
    48.4400       778
    48.4600       772
    48.4800       836
    48.5000       820
    48.5200       892
    48.5400       916
    48.5600       912
    48.5800       930
    48.6000       996
    48.6200       960
    48.6400       940
    48.6600       956
    48.6800       910
    48.7000       914
    48.7200       864
    48.7400       798
    48.7600       776
    48.7800       786
    48.8000       692
    48.8200       640
    48.8400       606
    48.8600       620
    48.8800       562
    48.9000       518
    48.9200       486
    48.9400       424
    48.9600       470
    48.9800       452
    49.0000       408
    49.0200       392
    49.0400       402
    49.0600       348
    49.0800       346
    49.1000       348
    49.1200       294
    49.1400       332
    49.1600       348
    49.1800       350
    49.2000       346
    49.2200       328
    49.2400       312
    49.2600       312
    49.2800       326
    49.3000       334
    49.3200       344
    49.3400       294
    49.3600       342
    49.3800       326
    49.4000       344
    49.4200       326
    49.4400       296
    49.4600       338
    49.4800       336
    49.5000       316
    49.5200       346
    49.5400       296
    49.5600       326
    49.5800       316
    49.6000       322
    49.6200       342
    49.6400       332
    49.6600       334
    49.6800       336
    49.7000       316
    49.7200       352
    49.7400       334
    49.7600       358
    49.7800       306
    49.8000       360
    49.8200       366
    49.8400       378
    49.8600       394
    49.8800       368
    49.9000       394
    49.9200       386
    49.9400       396
    49.9600       434
    49.9800       414
    50.0000       460
    50.0200       482
    50.0400       484
    50.0600       510
    50.0800       504
    50.1000       558
    50.1200       594
    50.1400       584
    50.1600       658
    50.1800       710
    50.2000       798
    50.2200       798
    50.2400       902
    50.2600       988
    50.2800       926
    50.3000      1068
    50.3200      1068
    50.3400      1056
    50.3600      1112
    50.3800      1122
    50.4000      1154
    50.4200      1118
    50.4400      1078
    50.4600      1072
    50.4800      1024
    50.5000       994
    50.5200       998
    50.5400      1038
    50.5600      1024
    50.5800      1098
    50.6000      1110
    50.6200      1108
    50.6400      1236
    50.6600      1238
    50.6800      1342
    50.7000      1548
    50.7200      1562
    50.7400      1692
    50.7600      1866
    50.7800      2020
    50.8000      2082
    50.8200      2042
    50.8400      2164
    50.8600      2064
    50.8800      2128
    50.9000      1942
    50.9200      1870
    50.9400      1788
    50.9600      1716
    50.9800      1654
    51.0000      1620
    51.0200      1440
    51.0400      1414
    51.0600      1212
    51.0800      1118
    51.1000      1078
    51.1200       972
    51.1400      1002
    51.1600       932
    51.1800       908
    51.2000       858
    51.2200       808
    51.2400       802
    51.2600       816
    51.2800       740
    51.3000       760
    51.3200       722
    51.3400       768
    51.3600       744
    51.3800       766
    51.4000       794
    51.4200       806
    51.4400       816
    51.4600       814
    51.4800       822
    51.5000       830
    51.5200       798
    51.5400       862
    51.5600       846
    51.5800       774
    51.6000       806
    51.6200       830
    51.6400       834
    51.6600       834
    51.6800       910
    51.7000       886
    51.7200       956
    51.7400       988
    51.7600      1058
    51.7800      1130
    51.8000      1268
    51.8200      1296
    51.8400      1400
    51.8600      1538
    51.8800      1516
    51.9000      1636
    51.9200      1802
    51.9400      1864
    51.9600      1890
    51.9800      2014
    52.0000      2074
    52.0200      2170
    52.0400      2024
    52.0600      1964
    52.0800      1818
    52.1000      1758
    52.1200      1660
    52.1400      1552
    52.1600      1478
    52.1800      1350
    52.2000      1300
    52.2200      1168
    52.2400      1092
    52.2600      1022
    52.2800       920
    52.3000       900
    52.3200       838
    52.3400       876
    52.3600       854
    52.3800       906
    52.4000       876
    52.4200       832
    52.4400       932
    52.4600       880
    52.4800       998
    52.5000      1018
    52.5200      1052
    52.5400      1128
    52.5600      1152
    52.5800      1218
    52.6000      1256
    52.6200      1338
    52.6400      1398
    52.6600      1318
    52.6800      1384
    52.7000      1436
    52.7200      1420
    52.7400      1338
    52.7600      1384
    52.7800      1316
    52.8000      1314
    52.8200      1192
    52.8400      1164
    52.8600      1000
    52.8800      1044
    52.9000       996
    52.9200       956
    52.9400       924
    52.9600       824
    52.9800       812
    53.0000       792
    53.0200       728
    53.0400       776
    53.0600       766
    53.0800       770
    53.1000       766
    53.1200       868
    53.1400       892
    53.1600       886
    53.1800       946
    53.2000      1028
    53.2200      1090
    53.2400      1138
    53.2600      1232
    53.2800      1304
    53.3000      1432
    53.3200      1428
    53.3400      1446
    53.3600      1476
    53.3800      1368
    53.4000      1266
    53.4200      1248
    53.4400      1204
    53.4600      1162
    53.4800      1052
    53.5000       996
    53.5200       922
    53.5400       866
    53.5600       810
    53.5800       738
    53.6000       744
    53.6200       688
    53.6400       674
    53.6600       594
    53.6800       650
    53.7000       582
    53.7200       562
    53.7400       606
    53.7600       510
    53.7800       562
    53.8000       534
    53.8200       522
    53.8400       484
    53.8600       508
    53.8800       478
    53.9000       506
    53.9200       476
    53.9400       456
    53.9600       458
    53.9800       512
    54.0000       498
    54.0200       442
    54.0400       476
    54.0600       456
    54.0800       482
    54.1000       526
    54.1200       502
    54.1400       482
    54.1600       478
    54.1800       534
    54.2000       558
    54.2200       530
    54.2400       608
    54.2600       664
    54.2800       630
    54.3000       616
    54.3200       644
    54.3400       678
    54.3600       694
    54.3800       636
    54.4000       726
    54.4200       694
    54.4400       726
    54.4600       736
    54.4800       758
    54.5000       802
    54.5200       816
    54.5400       812
    54.5600       830
    54.5800       884
    54.6000       780
    54.6200       798
    54.6400       854
    54.6600       860
    54.6800       818
    54.7000       878
    54.7200       788
    54.7400       908
    54.7600       926
    54.7800       856
    54.8000       826
    54.8200       816
    54.8400       792
    54.8600       816
    54.8800       740
    54.9000       788
    54.9200       726
    54.9400       724
    54.9600       764
    54.9800       764
    55.0000       798
    55.0200       790
    55.0400       766
    55.0600       746
    55.0800       800
    55.1000       800
    55.1200       804
    55.1400       858
    55.1600       842
    55.1800       836
    55.2000       948
    55.2200       918
    55.2400       812
    55.2600       880
    55.2800       840
    55.3000       810
    55.3200       818
    55.3400       796
    55.3600       798
    55.3800       776
    55.4000       738
    55.4200       760
    55.4400       702
    55.4600       634
    55.4800       702
    55.5000       668
    55.5200       660
    55.5400       588
    55.5600       530
    55.5800       556
    55.6000       560
    55.6200       532
    55.6400       480
    55.6600       488
    55.6800       490
    55.7000       516
    55.7200       460
    55.7400       476
    55.7600       468
    55.7800       412
    55.8000       446
    55.8200       452
    55.8400       452
    55.8600       416
    55.8800       414
    55.9000       402
    55.9200       392
    55.9400       366
    55.9600       402
    55.9800       390
    56.0000       372
    56.0200       344
    56.0400       364
    56.0600       344
    56.0800       370
    56.1000       338
    56.1200       332
    56.1400       362
    56.1600       330
    56.1800       360
    56.2000       366
    56.2200       354
    56.2400       376
    56.2600       346
    56.2800       328
    56.3000       356
    56.3200       350
    56.3400       352
    56.3600       370
    56.3800       360
    56.4000       350
    56.4200       364
    56.4400       366
    56.4600       382
    56.4800       366
    56.5000       420
    56.5200       396
    56.5400       406
    56.5600       432
    56.5800       446
    56.6000       486
    56.6200       462
    56.6400       476
    56.6600       466
    56.6800       492
    56.7000       524
    56.7200       554
    56.7400       644
    56.7600       604
    56.7800       604
    56.8000       638
    56.8200       708
    56.8400       626
    56.8600       640
    56.8800       648
    56.9000       626
    56.9200       624
    56.9400       636
    56.9600       616
    56.9800       580
    57.0000       568
    57.0200       550
    57.0400       610
    57.0600       592
    57.0800       604
    57.1000       624
    57.1200       588
    57.1400       594
    57.1600       672
    57.1800       714
    57.2000       724
    57.2200       752
    57.2400       822
    57.2600       894
    57.2800       986
    57.3000      1036
    57.3200      1154
    57.3400      1306
    57.3600      1344
    57.3800      1438
    57.4000      1420
    57.4200      1536
    57.4400      1546
    57.4600      1474
    57.4800      1568
    57.5000      1438
    57.5200      1426
    57.5400      1424
    57.5600      1378
    57.5800      1378
    57.6000      1272
    57.6200      1264
    57.6400      1228
    57.6600      1224
    57.6800      1224
    57.7000      1274
    57.7200      1214
    57.7400      1318
    57.7600      1354
    57.7800      1252
    57.8000      1370
    57.8200      1374
    57.8400      1354
    57.8600      1324
    57.8800      1166
    57.9000      1126
    57.9200      1176
    57.9400      1106
    57.9600      1072
    57.9800      1030
    58.0000       968
    58.0200       946
    58.0400       908
    58.0600       816
    58.0800       800
    58.1000       790
    58.1200       706
    58.1400       772
    58.1600       726
    58.1800       734
    58.2000       772
    58.2200       786
    58.2400       830
    58.2600       812
    58.2800       776
    58.3000       856
    58.3200       944
    58.3400       956
    58.3600      1008
    58.3800      1068
    58.4000      1152
    58.4200      1136
    58.4400      1244
    58.4600      1304
    58.4800      1420
    58.5000      1554
    58.5200      1594
    58.5400      1670
    58.5600      1752
    58.5800      1866
    58.6000      1916
    58.6200      2038
    58.6400      2080
    58.6600      2264
    58.6800      2244
    58.7000      2454
    58.7200      2468
    58.7400      2538
    58.7600      2556
    58.7800      2616
    58.8000      2572
    58.8200      2488
    58.8400      2486
    58.8600      2412
    58.8800      2314
    58.9000      2230
    58.9200      2136
    58.9400      1968
    58.9600      1904
    58.9800      1748
    59.0000      1680
    59.0200      1566
    59.0400      1478
    59.0600      1346
    59.0800      1300
    59.1000      1256
    59.1200      1186
    59.1400      1170
    59.1600      1110
    59.1800      1100
    59.2000      1016
    59.2200      1094
    59.2400      1102
    59.2600      1076
    59.2800      1170
    59.3000      1240
    59.3200      1324
    59.3400      1402
    59.3600      1456
    59.3800      1552
    59.4000      1636
    59.4200      1680
    59.4400      1770
    59.4600      1796
    59.4800      1776
    59.5000      1658
    59.5200      1604
    59.5400      1616
    59.5600      1512
    59.5800      1536
    59.6000      1406
    59.6200      1434
    59.6400      1400
    59.6600      1306
    59.6800      1246
    59.7000      1122
    59.7200      1086
    59.7400      1058
    59.7600       992
    59.7800      1024
    59.8000       954
    59.8200       878
    59.8400       822
    59.8600       794
    59.8800       810
    59.9000       762
    59.9200       748
    59.9400       700
    59.9600       746
    59.9800       644
    60.0000       644
    60.0200       596
    60.0400       596
    60.0600       528
    60.0800       592
    60.1000       532
    60.1200       476
    60.1400       484
    60.1600       512
    60.1800       446
    60.2000       444
    60.2200       404
    60.2400       412
    60.2600       436
    60.2800       424
    60.3000       390
    60.3200       388
    60.3400       396
    60.3600       370
    60.3800       394
    60.4000       360
    60.4200       424
    60.4400       354
    60.4600       364
    60.4800       390
    60.5000       374
    60.5200       348
    60.5400       370
    60.5600       398
    60.5800       396
    60.6000       384
    60.6200       372
    60.6400       412
    60.6600       398
    60.6800       352
    60.7000       376
    60.7200       376
    60.7400       386
    60.7600       422
    60.7800       412
    60.8000       406
    60.8200       458
    60.8400       422
    60.8600       460
    60.8800       464
    60.9000       488
    60.9200       496
    60.9400       492
    60.9600       508
    60.9800       536
    61.0000       560
    61.0200       594
    61.0400       592
    61.0600       548
    61.0800       656
    61.1000       724
    61.1200       658
    61.1400       658
    61.1600       748
    61.1800       768
    61.2000       776
    61.2200       782
    61.2400       772
    61.2600       762
    61.2800       842
    61.3000       854
    61.3200       888
    61.3400       898
    61.3600       894
    61.3800       928
    61.4000       976
    61.4200       944
    61.4400      1034
    61.4600      1038
    61.4800      1156
    61.5000      1150
    61.5200      1264
    61.5400      1312
    61.5600      1324
    61.5800      1442
    61.6000      1408
    61.6200      1498
    61.6400      1438
    61.6600      1384
    61.6800      1342
    61.7000      1264
    61.7200      1236
    61.7400      1180
    61.7600      1190
    61.7800      1088
    61.8000      1088
    61.8200       994
    61.8400       958
    61.8600       912
    61.8800       846
    61.9000       850
    61.9200       792
    61.9400       718
    61.9600       714
    61.9800       656
    62.0000       666
    62.0200       634
    62.0400       684
    62.0600       632
    62.0800       604
    62.1000       652
    62.1200       600
    62.1400       612
    62.1600       526
    62.1800       576
    62.2000       586
    62.2200       556
    62.2400       568
    62.2600       538
    62.2800       524
    62.3000       522
    62.3200       516
    62.3400       506
    62.3600       516
    62.3800       488
    62.4000       510
    62.4200       498
    62.4400       460
    62.4600       430
    62.4800       480
    62.5000       416
    62.5200       390
    62.5400       458
    62.5600       432
    62.5800       442
    62.6000       390
    62.6200       418
    62.6400       382
    62.6600       380
    62.6800       374
    62.7000       380
    62.7200       372
    62.7400       386
    62.7600       366
    62.7800       370
    62.8000       358
    62.8200       354
    62.8400       338
    62.8600       350
    62.8800       332
    62.9000       344
    62.9200       324
    62.9400       368
    62.9600       302
    62.9800       302
    63.0000       288
    63.0200       308
    63.0400       294
    63.0600       298
    63.0800       300
    63.1000       282
    63.1200       308
    63.1400       306
    63.1600       284
    63.1800       286
    63.2000       280
    63.2200       288
    63.2400       292
    63.2600       252
    63.2800       270
    63.3000       272
    63.3200       278
    63.3400       294
    63.3600       276
    63.3800       272
    63.4000       292
    63.4200       318
    63.4400       312
    63.4600       300
    63.4800       308
    63.5000       314
    63.5200       364
    63.5400       320
    63.5600       344
    63.5800       350
    63.6000       378
    63.6200       396
    63.6400       380
    63.6600       420
    63.6800       438
    63.7000       446
    63.7200       482
    63.7400       528
    63.7600       528
    63.7800       560
    63.8000       620
    63.8200       626
    63.8400       670
    63.8600       730
    63.8800       758
    63.9000       766
    63.9200       788
    63.9400       812
    63.9600       850
    63.9800       798
    64.0000       740
    64.0200       736
    64.0400       692
    64.0600       690
    64.0800       688
    64.1000       614
    64.1200       606
    64.1400       656
    64.1600       556
    64.1800       562
    64.2000       488
    64.2200       448
    64.2400       506
    64.2600       430
    64.2800       410
    64.3000       396
    64.3200       410
    64.3400       350
    64.3600       340
    64.3800       338
    64.4000       346
    64.4200       312
    64.4400       312
    64.4600       320
    64.4800       272
    64.5000       282
    64.5200       278
    64.5400       260
    64.5600       274
    64.5800       306
    64.6000       284
    64.6200       268
    64.6400       288
    64.6600       294
    64.6800       286
    64.7000       282
    64.7200       298
    64.7400       274
    64.7600       268
    64.7800       292
    64.8000       286
    64.8200       312
    64.8400       304
    64.8600       312
    64.8800       306
    64.9000       278
    64.9200       314
    64.9400       332
    64.9600       316
    64.9800       330
    65.0000       366
    65.0200       354
    65.0400       394
    65.0600       348
    65.0800       380
    65.1000       380
    65.1200       368
    65.1400       382
    65.1600       376
    65.1800       374
    65.2000       400
    65.2200       398
    65.2400       428
    65.2600       452
    65.2800       444
    65.3000       428
    65.3200       472
    65.3400       422
    65.3600       416
    65.3800       470
    65.4000       458
    65.4200       456
    65.4400       454
    65.4600       482
    65.4800       436
    65.5000       476
    65.5200       434
    65.5400       488
    65.5600       444
    65.5800       410
    65.6000       432
    65.6200       378
    65.6400       386
    65.6600       376
    65.6800       380
    65.7000       386
    65.7200       372
    65.7400       352
    65.7600       338
    65.7800       340
    65.8000       330
    65.8200       320
    65.8400       348
    65.8600       298
    65.8800       298
    65.9000       350
    65.9200       294
    65.9400       302
    65.9600       278
    65.9800       302
    66.0000       294
    66.0200       308
    66.0400       250
    66.0600       304
    66.0800       280
    66.1000       262
    66.1200       292
    66.1400       288
    66.1600       270
    66.1800       282
    66.2000       310
    66.2200       304
    66.2400       294
    66.2600       270
    66.2800       334
    66.3000       344
    66.3200       342
    66.3400       368
    66.3600       356
    66.3800       364
    66.4000       396
    66.4200       390
    66.4400       362
    66.4600       366
    66.4800       428
    66.5000       374
    66.5200       390
    66.5400       414
    66.5600       446
    66.5800       426
    66.6000       426
    66.6200       424
    66.6400       468
    66.6600       444
    66.6800       520
    66.7000       450
    66.7200       542
    66.7400       490
    66.7600       586
    66.7800       574
    66.8000       602
    66.8200       658
    66.8400       640
    66.8600       734
    66.8800       756
    66.9000       748
    66.9200       820
    66.9400       800
    66.9600       852
    66.9800       812
    67.0000       840
    67.0200       792
    67.0400       768
    67.0600       832
    67.0800       730
    67.1000       816
    67.1200       752
    67.1400       686
    67.1600       688
    67.1800       644
    67.2000       658
    67.2200       592
    67.2400       548
    67.2600       528
    67.2800       506
    67.3000       472
    67.3200       482
    67.3400       466
    67.3600       426
    67.3800       418
    67.4000       450
    67.4200       424
    67.4400       390
    67.4600       372
    67.4800       366
    67.5000       340
    67.5200       346
    67.5400       368
    67.5600       354
    67.5800       314
    67.6000       356
    67.6200       374
    67.6400       316
    67.6600       336
    67.6800       348
    67.7000       364
    67.7200       358
    67.7400       354
    67.7600       364
    67.7800       368
    67.8000       384
    67.8200       352
    67.8400       430
    67.8600       404
    67.8800       444
    67.9000       440
    67.9200       436
    67.9400       482
    67.9600       524
    67.9800       520
    68.0000       644
    68.0200       630
    68.0400       620
    68.0600       722
    68.0800       782
    68.1000       810
    68.1200       862
    68.1400       918
    68.1600      1028
    68.1800      1018
    68.2000      1064
    68.2200      1018
    68.2400      1070
    68.2600      1090
    68.2800      1052
    68.3000       990
    68.3200      1034
    68.3400      1066
    68.3600      1008
    68.3800      1022
    68.4000       906
    68.4200       946
    68.4400       880
    68.4600       848
    68.4800       802
    68.5000       734
    68.5200       760
    68.5400       782
    68.5600       650
    68.5800       664
    68.6000       626
    68.6200       614
    68.6400       546
    68.6600       536
    68.6800       480
    68.7000       492
    68.7200       478
    68.7400       484
    68.7600       460
    68.7800       462
    68.8000       442
    68.8200       402
    68.8400       396
    68.8600       408
    68.8800       406
    68.9000       390
    68.9200       360
    68.9400       336
    68.9600       380
    68.9800       358
    69.0000       386
    69.0200       330
    69.0400       390
    69.0600       354
    69.0800       356
    69.1000       386
    69.1200       390
    69.1400       412
    69.1600       390
    69.1800       396
    69.2000       402
    69.2200       404
    69.2400       416
    69.2600       468
    69.2800       434
    69.3000       406
    69.3200       450
    69.3400       474
    69.3600       452
    69.3800       504
    69.4000       492
    69.4200       510
    69.4400       506
    69.4600       552
    69.4800       482
    69.5000       522
    69.5200       514
    69.5400       518
    69.5600       506
    69.5800       526
    69.6000       484
    69.6200       506
    69.6400       452
    69.6600       422
    69.6800       436
    69.7000       402
    69.7200       498
    69.7400       446
    69.7600       404
    69.7800       452
    69.8000       452
    69.8200       428
    69.8400       412
    69.8600       444
    69.8800       436
    69.9000       478
    69.9200       408
    69.9400       426
    69.9600       418
    69.9800       402
    70.0000       380
    70.0200       368
    70.0400       370
    70.0600       388
    70.0800       378
    70.1000       360
    70.1200       364
    70.1400       338
    70.1600       346
    70.1800       346
    70.2000       300
    70.2200       304
    70.2400       302
    70.2600       322
    70.2800       258
    70.3000       282
    70.3200       250
    70.3400       256
    70.3600       246
    70.3800       240
    70.4000       264
    70.4200       250
    70.4400       224
    70.4600       242
    70.4800       274
    70.5000       270
    70.5200       272
    70.5400       268
    70.5600       258
    70.5800       248
    70.6000       250
    70.6200       258
    70.6400       302
    70.6600       250
    70.6800       248
    70.7000       284
    70.7200       288
    70.7400       228
    70.7600       246
    70.7800       254
    70.8000       256
    70.8200       276
    70.8400       232
    70.8600       240
    70.8800       242
    70.9000       250
    70.9200       236
    70.9400       242
    70.9600       250
    70.9800       270
    71.0000       232
    71.0200       226
    71.0400       248
    71.0600       216
    71.0800       226
    71.1000       252
    71.1200       252
    71.1400       266
    71.1600       250
    71.1800       228
    71.2000       264
    71.2200       288
    71.2400       286
    71.2600       274
    71.2800       282
    71.3000       308
    71.3200       276
    71.3400       294
    71.3600       336
    71.3800       370
    71.4000       388
    71.4200       398
    71.4400       404
    71.4600       416
    71.4800       470
    71.5000       478
    71.5200       484
    71.5400       524
    71.5600       578
    71.5800       472
    71.6000       550
    71.6200       576
    71.6400       544
    71.6600       590
    71.6800       520
    71.7000       518
    71.7200       546
    71.7400       532
    71.7600       540
    71.7800       532
    71.8000       584
    71.8200       520
    71.8400       482
    71.8600       488
    71.8800       500
    71.9000       484
    71.9200       474
    71.9400       464
    71.9600       440
    71.9800       456
    72.0000       454
    72.0200       478
    72.0400       418
    72.0600       464
    72.0800       408
    72.1000       450
    72.1200       424
    72.1400       424
    72.1600       422
    72.1800       432
    72.2000       424
    72.2200       416
    72.2400       418
    72.2600       446
    72.2800       444
    72.3000       508
    72.3200       492
    72.3400       474
    72.3600       460
    72.3800       492
    72.4000       468
    72.4200       482
    72.4400       498
    72.4600       554
    72.4800       512
    72.5000       550
    72.5200       562
    72.5400       536
    72.5600       556
    72.5800       530
    72.6000       532
    72.6200       578
    72.6400       590
    72.6600       578
    72.6800       562
    72.7000       600
    72.7200       604
    72.7400       606
    72.7600       620
    72.7800       590
    72.8000       570
    72.8200       502
    72.8400       562
    72.8600       554
    72.8800       592
    72.9000       530
    72.9200       510
    72.9400       544
    72.9600       566
    72.9800       522
    73.0000       464
    73.0200       468
    73.0400       500
    73.0600       462
    73.0800       474
    73.1000       436
    73.1200       392
    73.1400       434
    73.1600       354
    73.1800       358
    73.2000       364
    73.2200       342
    73.2400       324
    73.2600       298
    73.2800       314
    73.3000       316
    73.3200       282
    73.3400       314
    73.3600       288
    73.3800       278
    73.4000       266
    73.4200       290
    73.4400       242
    73.4600       278
    73.4800       264
    73.5000       268
    73.5200       250
    73.5400       238
    73.5600       232
    73.5800       232
    73.6000       230
    73.6200       252
    73.6400       264
    73.6600       276
    73.6800       264
    73.7000       246
    73.7200       238
    73.7400       264
    73.7600       240
    73.7800       226
    73.8000       272
    73.8200       270
    73.8400       242
    73.8600       260
    73.8800       278
    73.9000       286
    73.9200       234
    73.9400       282
    73.9600       262
    73.9800       294
    74.0000       278
    74.0200       292
    74.0400       278
    74.0600       292
    74.0800       326
    74.1000       264
    74.1200       286
    74.1400       286
    74.1600       310
    74.1800       292
    74.2000       298
    74.2200       300
    74.2400       272
    74.2600       294
    74.2800       300
    74.3000       268
    74.3200       254
    74.3400       270
    74.3600       256
    74.3800       270
    74.4000       258
    74.4200       256
    74.4400       252
    74.4600       214
    74.4800       218
    74.5000       230
    74.5200       236
    74.5400       232
    74.5600       224
    74.5800       202
    74.6000       208
    74.6200       202
    74.6400       202
    74.6600       240
    74.6800       204
    74.7000       188
    74.7200       196
    74.7400       196
    74.7600       194
    74.7800       208
    74.8000       204
    74.8200       220
    74.8400       218
    74.8600       210
    74.8800       222
    74.9000       180
    74.9200       224
    74.9400       194
    74.9600       178
    74.9800       184
    75.0000       212
    75.0200       210
    75.0400       228
    75.0600       244
    75.0800       210
    75.1000       214
    75.1200       228
    75.1400       218
    75.1600       222
    75.1800       232
    75.2000       248
    75.2200       258
    75.2400       214
    75.2600       218
    75.2800       218
    75.3000       228
    75.3200       254
    75.3400       220
    75.3600       214
    75.3800       232
    75.4000       260
    75.4200       236
    75.4400       252
    75.4600       266
    75.4800       262
    75.5000       286
    75.5200       250
    75.5400       282
    75.5600       260
    75.5800       250
    75.6000       282
    75.6200       270
    75.6400       286
    75.6600       274
    75.6800       270
    75.7000       272
    75.7200       272
    75.7400       292
    75.7600       302
    75.7800       314
    75.8000       294
    75.8200       268
    75.8400       304
    75.8600       306
    75.8800       290
    75.9000       296
    75.9200       248
    75.9400       280
    75.9600       326
    75.9800       288
    76.0000       294
    76.0200       272
    76.0400       270
    76.0600       286
    76.0800       238
    76.1000       282
    76.1200       270
    76.1400       294
    76.1600       296
    76.1800       304
    76.2000       276
    76.2200       292
    76.2400       286
    76.2600       300
    76.2800       278
    76.3000       282
    76.3200       304
    76.3400       302
    76.3600       290
    76.3800       286
    76.4000       296
    76.4200       368
    76.4400       350
    76.4600       330
    76.4800       408
    76.5000       378
    76.5200       378
    76.5400       370
    76.5600       390
    76.5800       428
    76.6000       412
    76.6200       438
    76.6400       432
    76.6600       398
    76.6800       440
    76.7000       414
    76.7200       408
    76.7400       428
    76.7600       412
    76.7800       438
    76.8000       422
    76.8200       406
    76.8400       438
    76.8600       446
    76.8800       444
    76.9000       396
    76.9200       394
    76.9400       390
    76.9600       420
    76.9800       396
    77.0000       424
    77.0200       374
    77.0400       362
    77.0600       368
    77.0800       370
    77.1000       360
    77.1200       364
    77.1400       360
    77.1600       368
    77.1800       348
    77.2000       368
    77.2200       362
    77.2400       356
    77.2600       368
    77.2800       402
    77.3000       408
    77.3200       378
    77.3400       398
    77.3600       414
    77.3800       410
    77.4000       428
    77.4200       430
    77.4400       418
    77.4600       438
    77.4800       460
    77.5000       502
    77.5200       492
    77.5400       524
    77.5600       548
    77.5800       574
    77.6000       580
    77.6200       604
    77.6400       660
    77.6600       628
    77.6800       634
    77.7000       678
    77.7200       674
    77.7400       692
    77.7600       694
    77.7800       656
    77.8000       692
    77.8200       670
    77.8400       706
    77.8600       648
    77.8800       636
    77.9000       576
    77.9200       618
    77.9400       624
    77.9600       602
    77.9800       526
    78.0000       536
    78.0200       522
    78.0400       510
    78.0600       510
    78.0800       500
    78.1000       452
    78.1200       456
    78.1400       456
    78.1600       452
    78.1800       416
    78.2000       398
    78.2200       398
    78.2400       380
    78.2600       356
    78.2800       332
    78.3000       334
    78.3200       340
    78.3400       344
    78.3600       352
    78.3800       362
    78.4000       380
    78.4200       344
    78.4400       342
    78.4600       376
    78.4800       336
    78.5000       354
    78.5200       372
    78.5400       402
    78.5600       364
    78.5800       388
    78.6000       392
    78.6200       392
    78.6400       420
    78.6600       428
    78.6800       430
    78.7000       388
    78.7200       476
    78.7400       424
    78.7600       430
    78.7800       436
    78.8000       398
    78.8200       398
    78.8400       444
    78.8600       396
    78.8800       368
    78.9000       378
    78.9200       394
    78.9400       384
    78.9600       364
    78.9800       344
    79.0000       348
    79.0200       332
    79.0400       314
    79.0600       334
    79.0800       358
    79.1000       338
    79.1200       298
    79.1400       310
    79.1600       314
    79.1800       304
    79.2000       298
    79.2200       296
    79.2400       286
    79.2600       284
    79.2800       272
    79.3000       288
    79.3200       246
    79.3400       242
    79.3600       270
    79.3800       262
    79.4000       256
    79.4200       256
    79.4400       288
    79.4600       264
    79.4800       272
    79.5000       264
    79.5200       280
    79.5400       238
    79.5600       260
    79.5800       270
    79.6000       256
    79.6200       274
    79.6400       228
    79.6600       276
    79.6800       254
    79.7000       244
    79.7200       252
    79.7400       274
    79.7600       288
    79.7800       258
    79.8000       264
    79.8200       252
    79.8400       256
    79.8600       266
    79.8800       264
    79.9000       258
    79.9200       250
    79.9400       260
    79.9600       298
    79.9800       224
    80.0000       254
    80.0200       260
    80.0400       246
    80.0600       244
    80.0800       270
    80.1000       268
    80.1200       246
    80.1400       228
    80.1600       246
    80.1800       250
    80.2000       242
    80.2200       224
    80.2400       258
    80.2600       250
    80.2800       262
    80.3000       252
    80.3200       256
    80.3400       274
    80.3600       278
    80.3800       276
    80.4000       260
    80.4200       288
    80.4400       276
    80.4600       254
    80.4800       248
    80.5000       266
    80.5200       236
    80.5400       290
    80.5600       274
    80.5800       258
    80.6000       264
    80.6200       274
    80.6400       276
    80.6600       250
    80.6800       270
    80.7000       226
    80.7200       242
    80.7400       254
    80.7600       268
    80.7800       210
    80.8000       272
    80.8200       236
    80.8400       224
    80.8600       248
    80.8800       230
    80.9000       236
    80.9200       234
    80.9400       218
    80.9600       230
    80.9800       254
    81.0000       210
    81.0200       204
    81.0400       254
    81.0600       204
    81.0800       222
    81.1000       212
    81.1200       200
    81.1400       210
    81.1600       222
    81.1800       236
    81.2000       226
    81.2200       228
    81.2400       240
    81.2600       236
    81.2800       232
    81.3000       240
    81.3200       250
    81.3400       240
    81.3600       248
    81.3800       264
    81.4000       264
    81.4200       282
    81.4400       270
    81.4600       246
    81.4800       286
    81.5000       280
    81.5200       278
    81.5400       264
    81.5600       264
    81.5800       274
    81.6000       264
    81.6200       250
    81.6400       272
    81.6600       276
    81.6800       264
    81.7000       288
    81.7200       282
    81.7400       280
    81.7600       280
    81.7800       270
    81.8000       272
    81.8200       308
    81.8400       304
    81.8600       268
    81.8800       274
    81.9000       286
    81.9200       312
    81.9400       298
    81.9600       314
    81.9800       324
    82.0000       314
    82.0200       320
    82.0400       342
    82.0600       318
    82.0800       298
    82.1000       342
    82.1200       324
    82.1400       330
    82.1600       342
    82.1800       380
    82.2000       400
    82.2200       356
    82.2400       366
    82.2600       382
    82.2800       392
    82.3000       374
    82.3200       386
    82.3400       408
    82.3600       408
    82.3800       412
    82.4000       400
    82.4200       402
    82.4400       374
    82.4600       404
    82.4800       426
    82.5000       420
    82.5200       398
    82.5400       422
    82.5600       440
    82.5800       444
    82.6000       480
    82.6200       476
    82.6400       528
    82.6600       488
    82.6800       530
    82.7000       520
    82.7200       600
    82.7400       618
    82.7600       660
    82.7800       624
    82.8000       682
    82.8200       680
    82.8400       706
    82.8600       738
    82.8800       716
    82.9000       820
    82.9200       726
    82.9400       740
    82.9600       724
    82.9800       770
    83.0000       710
    83.0200       716
    83.0400       680
    83.0600       666
    83.0800       698
    83.1000       644
    83.1200       700
    83.1400       658
    83.1600       632
    83.1800       618
    83.2000       628
    83.2200       600
    83.2400       514
    83.2600       546
    83.2800       520
    83.3000       470
    83.3200       492
    83.3400       460
    83.3600       474
    83.3800       454
    83.4000       454
    83.4200       426
    83.4400       452
    83.4600       424
    83.4800       422
    83.5000       416
    83.5200       430
    83.5400       436
    83.5600       394
    83.5800       324
    83.6000       368
    83.6200       380
    83.6400       344
    83.6600       340
    83.6800       352
    83.7000       314
    83.7200       348
    83.7400       352
    83.7600       316
    83.7800       262
    83.8000       308
    83.8200       338
    83.8400       292
    83.8600       290
    83.8800       310
    83.9000       372
    83.9200       318
    83.9400       298
    83.9600       302
    83.9800       316
    84.0000       312
    84.0200       324
    84.0400       296
    84.0600       316
    84.0800       354
    84.1000       322
    84.1200       308
    84.1400       344
    84.1600       340
    84.1800       338
    84.2000       332
    84.2200       306
    84.2400       328
    84.2600       326
    84.2800       354
    84.3000       302
    84.3200       298
    84.3400       344
    84.3600       318
    84.3800       302
    84.4000       316
    84.4200       306
    84.4400       328
    84.4600       282
    84.4800       306
    84.5000       304
    84.5200       312
    84.5400       252
    84.5600       300
    84.5800       302
    84.6000       266
    84.6200       300
    84.6400       274
    84.6600       324
    84.6800       308
    84.7000       296
    84.7200       318
    84.7400       300
    84.7600       308
    84.7800       288
    84.8000       274
    84.8200       294
    84.8400       266
    84.8600       294
    84.8800       254
    84.9000       296
    84.9200       260
    84.9400       274
    84.9600       292
    84.9800       316
    85.0000       298
    85.0200       270
    85.0400       272
    85.0600       276
    85.0800       306
    85.1000       220
    85.1200       272
    85.1400       284
    85.1600       278
    85.1800       260
    85.2000       270
    85.2200       214
    85.2400       270
    85.2600       276
    85.2800       254
    85.3000       236
    85.3200       236
    85.3400       258
    85.3600       264
    85.3800       252
    85.4000       272
    85.4200       258
    85.4400       256
    85.4600       268
    85.4800       278
    85.5000       272
    85.5200       244
    85.5400       278
    85.5600       280
    85.5800       264
    85.6000       282
    85.6200       278
    85.6400       302
    85.6600       318
    85.6800       306
    85.7000       290
    85.7200       262
    85.7400       280
    85.7600       296
    85.7800       284
    85.8000       272
    85.8200       294
    85.8400       240
    85.8600       292
    85.8800       254
    85.9000       266
    85.9200       266
    85.9400       252
    85.9600       280
    85.9800       262
    86.0000       262
    86.0200       262
    86.0400       256
    86.0600       274
    86.0800       260
    86.1000       220
    86.1200       264
    86.1400       230
    86.1600       292
    86.1800       256
    86.2000       258
    86.2200       256
    86.2400       250
    86.2600       224
    86.2800       258
    86.3000       260
    86.3200       246
    86.3400       244
    86.3600       258
    86.3800       246
    86.4000       250
    86.4200       266
    86.4400       242
    86.4600       238
    86.4800       250
    86.5000       278
    86.5200       254
    86.5400       254
    86.5600       264
    86.5800       244
    86.6000       256
    86.6200       270
    86.6400       264
    86.6600       280
    86.6800       294
    86.7000       270
    86.7200       262
    86.7400       290
    86.7600       332
    86.7800       324
    86.8000       326
    86.8200       336
    86.8400       330
    86.8600       356
    86.8800       364
    86.9000       396
    86.9200       380
    86.9400       370
    86.9600       388
    86.9800       366
    87.0000       394
    87.0200       412
    87.0400       388
    87.0600       382
    87.0800       400
    87.1000       402
    87.1200       382
    87.1400       364
    87.1600       354
    87.1800       362
    87.2000       394
    87.2200       398
    87.2400       372
    87.2600       396
    87.2800       370
    87.3000       348
    87.3200       368
    87.3400       364
    87.3600       360
    87.3800       394
    87.4000       428
    87.4200       382
    87.4400       374
    87.4600       366
    87.4800       314
    87.5000       328
    87.5200       380
    87.5400       360
    87.5600       374
    87.5800       368
    87.6000       352
    87.6200       394
    87.6400       398
    87.6600       354
    87.6800       366
    87.7000       392
    87.7200       376
    87.7400       382
    87.7600       438
    87.7800       404
    87.8000       434
    87.8200       410
    87.8400       448
    87.8600       418
    87.8800       412
    87.9000       456
    87.9200       432
    87.9400       428
    87.9600       382
    87.9800       372
    88.0000       406
    88.0200       398
    88.0400       384
    88.0600       384
    88.0800       414
    88.1000       400
    88.1200       368
    88.1400       424
    88.1600       372
    88.1800       408
    88.2000       384
    88.2200       398
    88.2400       420
    88.2600       376
    88.2800       406
    88.3000       368
    88.3200       376
    88.3400       402
    88.3600       414
    88.3800       376
    88.4000       348
    88.4200       344
    88.4400       360
    88.4600       344
    88.4800       374
    88.5000       346
    88.5200       336
    88.5400       348
    88.5600       332
    88.5800       312
    88.6000       372
    88.6200       342
    88.6400       350
    88.6600       340
    88.6800       310
    88.7000       348
    88.7200       312
    88.7400       352
    88.7600       314
    88.7800       296
    88.8000       322
    88.8200       318
    88.8400       280
    88.8600       280
    88.8800       316
    88.9000       272
    88.9200       290
    88.9400       304
    88.9600       252
    88.9800       276
    89.0000       266
    89.0200       264
    89.0400       252
    89.0600       274
    89.0800       266
    89.1000       270
    89.1200       246
    89.1400       266
    89.1600       260
    89.1800       252
    89.2000       226
    89.2200       248
    89.2400       240
    89.2600       256
    89.2800       226
    89.3000       220
    89.3200       220
    89.3400       238
    89.3600       238
    89.3800       274
    89.4000       264
    89.4200       230
    89.4400       252
    89.4600       238
    89.4800       250
    89.5000       264
    89.5200       286
    89.5400       268
    89.5600       284
    89.5800       220
    89.6000       236
    89.6200       286
    89.6400       244
    89.6600       274
    89.6800       334
    89.7000       270
    89.7200       274
    89.7400       294
    89.7600       280
    89.7800       310
    89.8000       288
    89.8200       274
    89.8400       260
    89.8600       326
    89.8800       304
    89.9000       272
    89.9200       298
    89.9400       296
    89.9600       284
    89.9800       278
    90.0000       318
