    10.0000       358
    10.0200       346
    10.0400       388
    10.0600       336
    10.0800       380
    10.1000       356
    10.1200       344
    10.1400       362
    10.1600       356
    10.1800       312
    10.2000       388
    10.2200       350
    10.2400       348
    10.2600       376
    10.2800       328
    10.3000       362
    10.3200       368
    10.3400       352
    10.3600       346
    10.3800       336
    10.4000       368
    10.4200       364
    10.4400       346
    10.4600       376
    10.4800       370
    10.5000       360
    10.5200       336
    10.5400       330
    10.5600       344
    10.5800       372
    10.6000       372
    10.6200       380
    10.6400       364
    10.6600       360
    10.6800       342
    10.7000       352
    10.7200       354
    10.7400       356
    10.7600       322
    10.7800       324
    10.8000       340
    10.8200       326
    10.8400       344
    10.8600       356
    10.8800       358
    10.9000       310
    10.9200       332
    10.9400       314
    10.9600       326
    10.9800       358
    11.0000       326
    11.0200       348
    11.0400       334
    11.0600       318
    11.0800       334
    11.1000       348
    11.1200       332
    11.1400       312
    11.1600       332
    11.1800       336
    11.2000       326
    11.2200       312
    11.2400       320
    11.2600       322
    11.2800       332
    11.3000       362
    11.3200       342
    11.3400       326
    11.3600       326
    11.3800       344
    11.4000       310
    11.4200       330
    11.4400       318
    11.4600       346
    11.4800       292
    11.5000       324
    11.5200       300
    11.5400       316
    11.5600       320
    11.5800       358
    11.6000       314
    11.6200       330
    11.6400       342
    11.6600       332
    11.6800       318
    11.7000       346
    11.7200       356
    11.7400       358
    11.7600       350
    11.7800       338
    11.8000       318
    11.8200       364
    11.8400       384
    11.8600       368
    11.8800       344
    11.9000       342
    11.9200       364
    11.9400       372
    11.9600       412
    11.9800       396
    12.0000       438
    12.0200       448
    12.0400       460
    12.0600       458
    12.0800       500
    12.1000       564
    12.1200       516
    12.1400       562
    12.1600       576
    12.1800       636
    12.2000       602
    12.2200       626
    12.2400       560
    12.2600       512
    12.2800       488
    12.3000       416
    12.3200       428
    12.3400       356
    12.3600       332
    12.3800       316
    12.4000       296
    12.4200       344
    12.4400       318
    12.4600       350
    12.4800       326
    12.5000       288
    12.5200       294
    12.5400       296
    12.5600       308
    12.5800       320
    12.6000       308
    12.6200       322
    12.6400       342
    12.6600       292
    12.6800       292
    12.7000       322
    12.7200       298
    12.7400       316
    12.7600       322
    12.7800       316
    12.8000       284
    12.8200       316
    12.8400       310
    12.8600       294
    12.8800       300
    12.9000       316
    12.9200       302
    12.9400       300
    12.9600       270
    12.9800       268
    13.0000       288
    13.0200       312
    13.0400       284
    13.0600       268
    13.0800       280
    13.1000       242
    13.1200       254
    13.1400       278
    13.1600       302
    13.1800       282
    13.2000       296
    13.2200       272
    13.2400       310
    13.2600       242
    13.2800       334
    13.3000       288
    13.3200       228
    13.3400       274
    13.3600       250
    13.3800       278
    13.4000       264
    13.4200       292
    13.4400       258
    13.4600       270
    13.4800       260
    13.5000       266
    13.5200       260
    13.5400       314
    13.5600       256
    13.5800       288
    13.6000       262
    13.6200       278
    13.6400       290
    13.6600       278
    13.6800       288
    13.7000       288
    13.7200       258
    13.7400       252
    13.7600       236
    13.7800       290
    13.8000       244
    13.8200       260
    13.8400       234
    13.8600       248
    13.8800       234
    13.9000       266
    13.9200       262
    13.9400       282
    13.9600       282
    13.9800       248
    14.0000       248
    14.0200       268
    14.0400       266
    14.0600       278
    14.0800       268
    14.1000       302
    14.1200       278
    14.1400       260
    14.1600       266
    14.1800       242
    14.2000       248
    14.2200       246
    14.2400       230
    14.2600       282
    14.2800       270
    14.3000       238
    14.3200       238
    14.3400       284
    14.3600       266
    14.3800       238
    14.4000       266
    14.4200       270
    14.4400       280
    14.4600       288
    14.4800       272
    14.5000       290
    14.5200       250
    14.5400       256
    14.5600       266
    14.5800       270
    14.6000       268
    14.6200       268
    14.6400       266
    14.6600       294
    14.6800       300
    14.7000       302
    14.7200       312
    14.7400       298
    14.7600       330
    14.7800       320
    14.8000       380
    14.8200       364
    14.8400       364
    14.8600       432
    14.8800       428
    14.9000       458
    14.9200       450
    14.9400       484
    14.9600       538
    14.9800       570
    15.0000       606
    15.0200       662
    15.0400       712
    15.0600       752
    15.0800       842
    15.1000       888
    15.1200       872
    15.1400       954
    15.1600      1068
    15.1800      1112
    15.2000      1060
    15.2200      1088
    15.2400      1032
    15.2600       872
    15.2800       680
    15.3000       624
    15.3200       534
    15.3400       452
    15.3600       390
    15.3800       330
    15.4000       342
    15.4200       328
    15.4400       292
    15.4600       340
    15.4800       292
    15.5000       278
    15.5200       318
    15.5400       302
    15.5600       262
    15.5800       238
    15.6000       254
    15.6200       254
    15.6400       242
    15.6600       238
    15.6800       256
    15.7000       278
    15.7200       274
    15.7400       258
    15.7600       254
    15.7800       258
    15.8000       240
    15.8200       266
    15.8400       218
    15.8600       268
    15.8800       250
    15.9000       254
    15.9200       248
    15.9400       256
    15.9600       264
    15.9800       244
    16.0000       252
    16.0200       240
    16.0400       282
    16.0600       226
    16.0800       232
    16.1000       232
    16.1200       270
    16.1400       290
    16.1600       258
    16.1800       260
    16.2000       262
    16.2200       284
    16.2400       228
    16.2600       280
    16.2800       312
    16.3000       280
    16.3200       290
    16.3400       270
    16.3600       284
    16.3800       274
    16.4000       262
    16.4200       268
    16.4400       256
    16.4600       256
    16.4800       280
    16.5000       276
    16.5200       274
    16.5400       296
    16.5600       298
    16.5800       278
    16.6000       302
    16.6200       340
    16.6400       368
    16.6600       358
    16.6800       376
    16.7000       382
    16.7200       396
    16.7400       444
    16.7600       478
    16.7800       482
    16.8000       548
    16.8200       580
    16.8400       626
    16.8600       706
    16.8800       768
    16.9000       950
    16.9200       944
    16.9400      1126
    16.9600      1296
    16.9800      1474
    17.0000      1654
    17.0200      1814
    17.0400      2006
    17.0600      2064
    17.0800      2046
    17.1000      1814
    17.1200      1532
    17.1400      1296
    17.1600      1032
    17.1800       936
    17.2000       930
    17.2200       772
    17.2400       720
    17.2600       758
    17.2800       660
    17.3000       668
    17.3200       628
    17.3400       634
    17.3600       562
    17.3800       502
    17.4000       482
    17.4200       460
    17.4400       410
    17.4600       420
    17.4800       426
    17.5000       398
    17.5200       358
    17.5400       394
    17.5600       394
    17.5800       392
    17.6000       458
    17.6200       406
    17.6400       428
    17.6600       458
    17.6800       490
    17.7000       512
    17.7200       490
    17.7400       522
    17.7600       580
    17.7800       568
    17.8000       612
    17.8200       636
    17.8400       636
    17.8600       548
    17.8800       526
    17.9000       500
    17.9200       444
    17.9400       382
    17.9600       332
    17.9800       326
    18.0000       278
    18.0200       240
    18.0400       256
    18.0600       272
    18.0800       254
    18.1000       250
    18.1200       224
    18.1400       248
    18.1600       220
    18.1800       202
    18.2000       214
    18.2200       230
    18.2400       218
    18.2600       216
    18.2800       246
    18.3000       230
    18.3200       220
    18.3400       224
    18.3600       222
    18.3800       242
    18.4000       216
    18.4200       236
    18.4400       198
    18.4600       214
    18.4800       196
    18.5000       216
    18.5200       220
    18.5400       220
    18.5600       232
    18.5800       230
    18.6000       224
    18.6200       248
    18.6400       220
    18.6600       224
    18.6800       204
    18.7000       244
    18.7200       238
    18.7400       256
    18.7600       258
    18.7800       234
    18.8000       286
    18.8200       286
    18.8400       300
    18.8600       300
    18.8800       286
    18.9000       316
    18.9200       326
    18.9400       302
    18.9600       304
    18.9800       322
    19.0000       306
    19.0200       322
    19.0400       342
    19.0600       332
    19.0800       284
    19.1000       328
    19.1200       372
    19.1400       424
    19.1600       390
    19.1800       416
    19.2000       488
    19.2200       466
    19.2400       514
    19.2600       586
    19.2800       630
    19.3000       684
    19.3200       698
    19.3400       846
    19.3600      1020
    19.3800      1060
    19.4000      1218
    19.4200      1390
    19.4400      1606
    19.4600      1758
    19.4800      2136
    19.5000      2382
    19.5200      2622
    19.5400      2796
    19.5600      2964
    19.5800      2836
    19.6000      2696
    19.6200      2504
    19.6400      1964
    19.6600      1746
    19.6800      1336
    19.7000      1188
    19.7200      1000
    19.7400       952
    19.7600       944
    19.7800       964
    19.8000      1048
    19.8200      1134
    19.8400      1224
    19.8600      1352
    19.8800      1488
    19.9000      1630
    19.9200      1764
    19.9400      2008
    19.9600      2172
    19.9800      2270
    20.0000      2274
    20.0200      2330
    20.0400      2042
    20.0600      1782
    20.0800      1602
    20.1000      1156
    20.1200       978
    20.1400       834
    20.1600       704
    20.1800       552
    20.2000       498
    20.2200       486
    20.2400       424
    20.2600       400
    20.2800       408
    20.3000       368
    20.3200       316
    20.3400       338
    20.3600       294
    20.3800       306
    20.4000       302
    20.4200       298
    20.4400       280
    20.4600       276
    20.4800       282
    20.5000       258
    20.5200       254
    20.5400       242
    20.5600       246
    20.5800       252
    20.6000       268
    20.6200       256
    20.6400       254
    20.6600       256
    20.6800       250
    20.7000       250
    20.7200       258
    20.7400       290
    20.7600       258
    20.7800       296
    20.8000       310
    20.8200       346
    20.8400       326
    20.8600       340
    20.8800       348
    20.9000       422
    20.9200       392
    20.9400       486
    20.9600       468
    20.9800       514
    21.0000       540
    21.0200       646
    21.0400       742
    21.0600       826
    21.0800       920
    21.1000      1058
    21.1200      1198
    21.1400      1356
    21.1600      1476
    21.1800      1582
    21.2000      1620
    21.2200      1678
    21.2400      1690
    21.2600      1522
    21.2800      1342
    21.3000      1162
    21.3200       998
    21.3400       760
    21.3600       642
    21.3800       542
    21.4000       536
    21.4200       400
    21.4400       368
    21.4600       354
    21.4800       328
    21.5000       306
    21.5200       298
    21.5400       314
    21.5600       278
    21.5800       236
    21.6000       274
    21.6200       234
    21.6400       236
    21.6600       276
    21.6800       220
    21.7000       234
    21.7200       264
    21.7400       232
    21.7600       254
    21.7800       236
    21.8000       242
    21.8200       200
    21.8400       214
    21.8600       246
    21.8800       242
    21.9000       232
    21.9200       222
    21.9400       230
    21.9600       266
    21.9800       234
    22.0000       242
    22.0200       244
    22.0400       242
    22.0600       220
    22.0800       240
    22.1000       244
    22.1200       238
    22.1400       260
    22.1600       230
    22.1800       256
    22.2000       236
    22.2200       250
    22.2400       254
    22.2600       244
    22.2800       274
    22.3000       266
    22.3200       250
    22.3400       288
    22.3600       268
    22.3800       322
    22.4000       336
    22.4200       338
    22.4400       348
    22.4600       378
    22.4800       346
    22.5000       404
    22.5200       460
    22.5400       538
    22.5600       562
    22.5800       620
    22.6000       630
    22.6200       830
    22.6400       926
    22.6600       996
    22.6800      1140
    22.7000      1324
    22.7200      1480
    22.7400      1806
    22.7600      2154
    22.7800      2454
    22.8000      2748
    22.8200      3226
    22.8400      3510
    22.8600      3814
    22.8800      3892
    22.9000      3684
    22.9200      3346
    22.9400      2932
    22.9600      2546
    22.9800      1950
    23.0000      1602
    23.0200      1218
    23.0400      1060
    23.0600       790
    23.0800       702
    23.1000       624
    23.1200       580
    23.1400       496
    23.1600       474
    23.1800       456
    23.2000       382
    23.2200       384
    23.2400       362
    23.2600       328
    23.2800       326
    23.3000       288
    23.3200       296
    23.3400       292
    23.3600       322
    23.3800       286
    23.4000       296
    23.4200       298
    23.4400       292
    23.4600       228
    23.4800       260
    23.5000       238
    23.5200       204
    23.5400       224
    23.5600       254
    23.5800       232
    23.6000       244
    23.6200       250
    23.6400       234
    23.6600       256
    23.6800       206
    23.7000       218
    23.7200       236
    23.7400       218
    23.7600       220
    23.7800       242
    23.8000       216
    23.8200       206
    23.8400       212
    23.8600       224
    23.8800       226
    23.9000       238
    23.9200       244
    23.9400       228
    23.9600       242
    23.9800       236
    24.0000       250
    24.0200       230
    24.0400       250
    24.0600       230
    24.0800       268
    24.1000       270
    24.1200       262
    24.1400       268
    24.1600       296
    24.1800       316
    24.2000       286
    24.2200       328
    24.2400       336
    24.2600       344
    24.2800       404
    24.3000       400
    24.3200       448
    24.3400       474
    24.3600       508
    24.3800       566
    24.4000       584
    24.4200       702
    24.4400       780
    24.4600       830
    24.4800       958
    24.5000      1002
    24.5200      1082
    24.5400      1100
    24.5600      1150
    24.5800      1120
    24.6000      1034
    24.6200       954
    24.6400       838
    24.6600       874
    24.6800       762
    24.7000       674
    24.7200       686
    24.7400       676
    24.7600       686
    24.7800       574
    24.8000       614
    24.8200       542
    24.8400       522
    24.8600       516
    24.8800       464
    24.9000       458
    24.9200       458
    24.9400       432
    24.9600       422
    24.9800       426
    25.0000       474
    25.0200       460
    25.0400       446
    25.0600       476
    25.0800       484
    25.1000       530
    25.1200       582
    25.1400       624
    25.1600       658
    25.1800       638
    25.2000       758
    25.2200       824
    25.2400       832
    25.2600       958
    25.2800       974
    25.3000      1062
    25.3200      1064
    25.3400      1014
    25.3600       970
    25.3800       864
    25.4000       868
    25.4200       858
    25.4400       760
    25.4600       712
    25.4800       710
    25.5000       710
    25.5200       744
    25.5400       842
    25.5600       898
    25.5800       948
    25.6000       990
    25.6200      1058
    25.6400       996
    25.6600       864
    25.6800       882
    25.7000       710
    25.7200       678
    25.7400       550
    25.7600       516
    25.7800       446
    25.8000       424
    25.8200       376
    25.8400       362
    25.8600       332
    25.8800       340
    25.9000       314
    25.9200       302
    25.9400       282
    25.9600       284
    25.9800       262
    26.0000       270
    26.0200       244
    26.0400       274
    26.0600       258
    26.0800       270
    26.1000       280
    26.1200       240
    26.1400       272
    26.1600       244
    26.1800       248
    26.2000       270
    26.2200       246
    26.2400       248
    26.2600       274
    26.2800       238
    26.3000       272
    26.3200       260
    26.3400       240
    26.3600       282
    26.3800       244
    26.4000       282
    26.4200       292
    26.4400       280
    26.4600       336
    26.4800       338
    26.5000       316
    26.5200       318
    26.5400       318
    26.5600       360
    26.5800       350
    26.6000       328
    26.6200       352
    26.6400       340
    26.6600       370
    26.6800       394
    26.7000       384
    26.7200       348
    26.7400       352
    26.7600       330
    26.7800       314
    26.8000       332
    26.8200       324
    26.8400       278
    26.8600       276
    26.8800       270
    26.9000       268
    26.9200       250
    26.9400       302
    26.9600       262
    26.9800       250
    27.0000       250
    27.0200       262
    27.0400       294
    27.0600       278
    27.0800       288
    27.1000       266
    27.1200       350
    27.1400       296
    27.1600       314
    27.1800       352
    27.2000       356
    27.2200       362
    27.2400       444
    27.2600       440
    27.2800       464
    27.3000       514
    27.3200       558
    27.3400       618
    27.3600       692
    27.3800       756
    27.4000       872
    27.4200       888
    27.4400       978
    27.4600      1098
    27.4800      1084
    27.5000      1138
    27.5200      1040
    27.5400      1068
    27.5600       964
    27.5800       866
    27.6000       812
    27.6200       770
    27.6400       652
    27.6600       582
    27.6800       532
    27.7000       456
    27.7200       460
    27.7400       394
    27.7600       376
    27.7800       352
    27.8000       348
    27.8200       306
    27.8400       350
    27.8600       308
    27.8800       326
    27.9000       330
    27.9200       300
    27.9400       316
    27.9600       288
    27.9800       324
    28.0000       324
    28.0200       276
    28.0400       354
    28.0600       328
    28.0800       344
    28.1000       356
    28.1200       366
    28.1400       356
    28.1600       428
    28.1800       406
    28.2000       396
    28.2200       456
    28.2400       454
    28.2600       454
    28.2800       472
    28.3000       480
    28.3200       500
    28.3400       430
    28.3600       430
    28.3800       448
    28.4000       372
    28.4200       376
    28.4400       362
    28.4600       360
    28.4800       328
    28.5000       328
    28.5200       330
    28.5400       314
    28.5600       316
    28.5800       320
    28.6000       324
    28.6200       332
    28.6400       356
    28.6600       380
    28.6800       372
    28.7000       378
    28.7200       384
    28.7400       404
    28.7600       402
    28.7800       364
    28.8000       338
    28.8200       342
    28.8400       302
    28.8600       310
    28.8800       292
    28.9000       314
    28.9200       258
    28.9400       294
    28.9600       292
    28.9800       286
    29.0000       330
    29.0200       278
    29.0400       290
    29.0600       286
    29.0800       286
    29.1000       280
    29.1200       302
    29.1400       296
    29.1600       272
    29.1800       336
    29.2000       332
    29.2200       320
    29.2400       366
    29.2600       322
    29.2800       360
    29.3000       378
    29.3200       384
    29.3400       434
    29.3600       384
    29.3800       460
    29.4000       482
    29.4200       478
    29.4400       508
    29.4600       530
    29.4800       576
    29.5000       536
    29.5200       642
    29.5400       660
    29.5600       772
    29.5800       770
    29.6000       808
    29.6200       928
    29.6400       956
    29.6600       994
    29.6800       916
    29.7000       930
    29.7200       888
    29.7400       786
    29.7600       850
    29.7800       708
    29.8000       630
    29.8200       642
    29.8400       586
    29.8600       556
    29.8800       530
    29.9000       570
    29.9200       636
    29.9400       648
    29.9600       682
    29.9800       718
    30.0000       812
    30.0200       842
    30.0400       980
    30.0600      1154
    30.0800      1262
    30.1000      1446
    30.1200      1498
    30.1400      1710
    30.1600      1834
    30.1800      1922
    30.2000      1888
    30.2200      1924
    30.2400      1926
    30.2600      1898
    30.2800      1828
    30.3000      1686
    30.3200      1606
    30.3400      1586
    30.3600      1528
    30.3800      1656
    30.4000      1650
    30.4200      1688
    30.4400      1714
    30.4600      1956
    30.4800      2002
    30.5000      2296
    30.5200      2490
    30.5400      2866
    30.5600      3164
    30.5800      3612
    30.6000      4028
    30.6200      4366
    30.6400      4684
    30.6600      5040
    30.6800      5158
    30.7000      4948
    30.7200      4902
    30.7400      4486
    30.7600      3944
    30.7800      3396
    30.8000      3002
    30.8200      2508
    30.8400      2154
    30.8600      1844
    30.8800      1604
    30.9000      1354
    30.9200      1212
    30.9400      1212
    30.9600      1134
    30.9800      1058
    31.0000       958
    31.0200       962
    31.0400       830
    31.0600       876
    31.0800       824
    31.1000       816
    31.1200       772
    31.1400       784
    31.1600       760
    31.1800       760
    31.2000       708
    31.2200       736
    31.2400       678
    31.2600       650
    31.2800       624
    31.3000       578
    31.3200       538
    31.3400       518
    31.3600       484
    31.3800       452
    31.4000       476
    31.4200       468
    31.4400       458
    31.4600       410
    31.4800       436
    31.5000       428
    31.5200       398
    31.5400       438
    31.5600       412
    31.5800       448
    31.6000       432
    31.6200       464
    31.6400       432
    31.6600       458
    31.6800       478
    31.7000       612
    31.7200       536
    31.7400       576
    31.7600       614
    31.7800       708
    31.8000       766
    31.8200       804
    31.8400       874
    31.8600      1000
    31.8800      1102
    31.9000      1226
    31.9200      1286
    31.9400      1474
    31.9600      1712
    31.9800      1824
    32.0000      1986
    32.0200      2086
    32.0400      2036
    32.0600      1996
    32.0800      1960
    32.1000      1768
    32.1200      1658
    32.1400      1482
    32.1600      1400
    32.1800      1334
    32.2000      1232
    32.2200      1252
    32.2400      1180
    32.2600      1270
    32.2800      1378
    32.3000      1472
    32.3200      1570
    32.3400      1770
    32.3600      1938
    32.3800      2174
    32.4000      2446
    32.4200      3068
    32.4400      3402
    32.4600      3856
    32.4800      4388
    32.5000      4996
    32.5200      5640
    32.5400      6300
    32.5600      6542
    32.5800      6778
    32.6000      6694
    32.6200      6476
    32.6400      6044
    32.6600      5552
    32.6800      4914
    32.7000      4156
    32.7200      3554
    32.7400      3046
    32.7600      2758
    32.7800      2304
    32.8000      1896
    32.8200      1646
    32.8400      1498
    32.8600      1256
    32.8800      1256
    32.9000      1248
    32.9200      1144
    32.9400      1146
    32.9600      1200
    32.9800      1190
    33.0000      1152
    33.0200      1266
    33.0400      1356
    33.0600      1382
    33.0800      1508
    33.1000      1480
    33.1200      1452
    33.1400      1472
    33.1600      1316
    33.1800      1186
    33.2000      1088
    33.2200       986
    33.2400       808
    33.2600       802
    33.2800       652
    33.3000       566
    33.3200       554
    33.3400       478
    33.3600       434
    33.3800       434
    33.4000       424
    33.4200       360
    33.4400       390
    33.4600       366
    33.4800       352
    33.5000       318
    33.5200       350
    33.5400       306
    33.5600       294
    33.5800       272
    33.6000       338
    33.6200       310
    33.6400       266
    33.6600       280
    33.6800       308
    33.7000       286
    33.7200       278
    33.7400       266
    33.7600       272
    33.7800       260
    33.8000       280
    33.8200       280
    33.8400       276
    33.8600       252
    33.8800       244
    33.9000       292
    33.9200       250
    33.9400       244
    33.9600       266
    33.9800       236
    34.0000       268
    34.0200       274
    34.0400       318
    34.0600       238
    34.0800       274
    34.1000       296
    34.1200       290
    34.1400       290
    34.1600       286
    34.1800       278
    34.2000       274
    34.2200       286
    34.2400       314
    34.2600       300
    34.2800       292
    34.3000       314
    34.3200       332
    34.3400       330
    34.3600       358
    34.3800       366
    34.4000       424
    34.4200       446
    34.4400       488
    34.4600       528
    34.4800       550
    34.5000       598
    34.5200       562
    34.5400       604
    34.5600       542
    34.5800       522
    34.6000       498
    34.6200       464
    34.6400       462
    34.6600       418
    34.6800       388
    34.7000       340
    34.7200       320
    34.7400       338
    34.7600       316
    34.7800       334
    34.8000       310
    34.8200       324
    34.8400       326
    34.8600       338
    34.8800       314
    34.9000       328
    34.9200       292
    34.9400       276
    34.9600       280
    34.9800       300
    35.0000       300
    35.0200       272
    35.0400       278
    35.0600       292
    35.0800       332
    35.1000       324
    35.1200       316
    35.1400       306
    35.1600       272
    35.1800       268
    35.2000       246
    35.2200       282
    35.2400       272
    35.2600       292
    35.2800       260
    35.3000       264
    35.3200       278
    35.3400       278
    35.3600       300
    35.3800       266
    35.4000       258
    35.4200       268
    35.4400       306
    35.4600       264
    35.4800       310
    35.5000       284
    35.5200       246
    35.5400       306
    35.5600       310
    35.5800       288
    35.6000       280
    35.6200       322
    35.6400       308
    35.6600       376
    35.6800       290
    35.7000       326
    35.7200       330
    35.7400       330
    35.7600       350
    35.7800       378
    35.8000       378
    35.8200       388
    35.8400       408
    35.8600       414
    35.8800       438
    35.9000       466
    35.9200       506
    35.9400       534
    35.9600       550
    35.9800       622
    36.0000       588
    36.0200       642
    36.0400       682
    36.0600       728
    36.0800       836
    36.1000       846
    36.1200       914
    36.1400       950
    36.1600       978
    36.1800       920
    36.2000       918
    36.2200       840
    36.2400       774
    36.2600       718
    36.2800       674
    36.3000       620
    36.3200       542
    36.3400       510
    36.3600       488
    36.3800       498
    36.4000       450
    36.4200       444
    36.4400       458
    36.4600       438
    36.4800       418
    36.5000       450
    36.5200       430
    36.5400       424
    36.5600       510
    36.5800       480
    36.6000       490
    36.6200       506
    36.6400       568
    36.6600       588
    36.6800       646
    36.7000       698
    36.7200       748
    36.7400       832
    36.7600       900
    36.7800      1026
    36.8000      1200
    36.8200      1324
    36.8400      1470
    36.8600      1514
    36.8800      1650
    36.9000      1750
    36.9200      1934
    36.9400      1750
    36.9600      1858
    36.9800      1604
    37.0000      1454
    37.0200      1378
    37.0400      1324
    37.0600      1268
    37.0800      1152
    37.1000      1066
    37.1200      1020
    37.1400       916
    37.1600       982
    37.1800       972
    37.2000       932
    37.2200       890
    37.2400       834
    37.2600       810
    37.2800       768
    37.3000       778
    37.3200       704
    37.3400       624
    37.3600       626
    37.3800       580
    37.4000       554
    37.4200       574
    37.4400       526
    37.4600       538
    37.4800       504
    37.5000       520
    37.5200       532
    37.5400       522
    37.5600       556
    37.5800       522
    37.6000       574
    37.6200       552
    37.6400       554
    37.6600       564
    37.6800       590
    37.7000       568
    37.7200       606
    37.7400       654
    37.7600       668
    37.7800       700
    37.8000       764
    37.8200       768
    37.8400       838
    37.8600       928
    37.8800       942
    37.9000      1040
    37.9200      1150
    37.9400      1298
    37.9600      1394
    37.9800      1582
    38.0000      1752
    38.0200      1804
    38.0400      1866
    38.0600      2036
    38.0800      2044
    38.1000      1890
    38.1200      1890
    38.1400      1872
    38.1600      1750
    38.1800      1718
    38.2000      1612
    38.2200      1632
    38.2400      1618
    38.2600      1712
    38.2800      1636
    38.3000      1804
    38.3200      1972
    38.3400      2076
    38.3600      2262
    38.3800      2528
    38.4000      2864
    38.4200      3188
    38.4400      3626
    38.4600      3808
    38.4800      4252
    38.5000      4670
    38.5200      4726
    38.5400      5162
    38.5600      5138
    38.5800      5182
    38.6000      5444
    38.6200      5494
    38.6400      5628
    38.6600      5518
    38.6800      5500
    38.7000      5298
    38.7200      5130
    38.7400      4744
    38.7600      4668
    38.7800      4306
    38.8000      4044
    38.8200      3662
    38.8400      3268
    38.8600      2964
    38.8800      2666
    38.9000      2360
    38.9200      2146
    38.9400      1850
    38.9600      1710
    38.9800      1566
    39.0000      1442
    39.0200      1358
    39.0400      1374
    39.0600      1234
    39.0800      1244
    39.1000      1270
    39.1200      1248
    39.1400      1246
    39.1600      1196
    39.1800      1162
    39.2000      1226
    39.2200      1178
    39.2400      1170
    39.2600      1228
    39.2800      1194
    39.3000      1174
    39.3200      1248
    39.3400      1224
    39.3600      1308
    39.3800      1326
    39.4000      1192
    39.4200      1200
    39.4400      1254
    39.4600      1136
    39.4800      1182
    39.5000      1204
    39.5200      1232
    39.5400      1166
    39.5600      1284
    39.5800      1356
    39.6000      1410
    39.6200      1550
    39.6400      1634
    39.6600      1812
    39.6800      1920
    39.7000      2166
    39.7200      2196
    39.7400      2170
    39.7600      2164
    39.7800      2004
    39.8000      1922
    39.8200      1824
    39.8400      1634
    39.8600      1454
    39.8800      1302
    39.9000      1260
    39.9200      1116
    39.9400      1012
    39.9600       930
    39.9800       834
    40.0000       860
    40.0200       844
    40.0400       846
    40.0600       798
    40.0800       788
    40.1000       742
    40.1200       842
    40.1400       820
    40.1600       824
    40.1800       838
    40.2000       848
    40.2200       802
    40.2400       888
    40.2600       826
    40.2800       816
    40.3000       886
    40.3200       918
    40.3400       912
    40.3600       904
    40.3800       942
    40.4000      1056
    40.4200      1074
    40.4400      1088
    40.4600      1132
    40.4800      1270
    40.5000      1372
    40.5200      1466
    40.5400      1516
    40.5600      1642
    40.5800      1622
    40.6000      1688
    40.6200      1720
    40.6400      1672
    40.6600      1536
    40.6800      1402
    40.7000      1398
    40.7200      1344
    40.7400      1210
    40.7600      1192
    40.7800      1118
    40.8000       920
    40.8200       924
    40.8400       780
    40.8600       814
    40.8800       778
    40.9000       706
    40.9200       674
    40.9400       738
    40.9600       654
    40.9800       678
    41.0000       706
    41.0200       696
    41.0400       706
    41.0600       738
    41.0800       810
    41.1000       892
    41.1200       908
    41.1400      1028
    41.1600      1050
    41.1800      1170
    41.2000      1218
    41.2200      1290
    41.2400      1430
    41.2600      1432
    41.2800      1556
    41.3000      1634
    41.3200      1616
    41.3400      1594
    41.3600      1560
    41.3800      1534
    41.4000      1610
    41.4200      1576
    41.4400      1534
    41.4600      1574
    41.4800      1562
    41.5000      1492
    41.5200      1506
    41.5400      1490
    41.5600      1372
    41.5800      1410
    41.6000      1314
    41.6200      1230
    41.6400      1192
    41.6600      1160
    41.6800      1096
    41.7000      1026
    41.7200      1042
    41.7400      1056
    41.7600      1100
    41.7800      1088
    41.8000      1126
    41.8200      1270
    41.8400      1274
    41.8600      1438
    41.8800      1544
    41.9000      1568
    41.9200      1594
    41.9400      1712
    41.9600      1624
    41.9800      1548
    42.0000      1482
    42.0200      1372
    42.0400      1316
    42.0600      1218
    42.0800      1098
    42.1000      1026
    42.1200       884
    42.1400       796
    42.1600       764
    42.1800       730
    42.2000       632
    42.2200       588
    42.2400       608
    42.2600       558
    42.2800       506
    42.3000       516
    42.3200       522
    42.3400       460
    42.3600       488
    42.3800       460
    42.4000       450
    42.4200       488
    42.4400       438
    42.4600       426
    42.4800       408
    42.5000       420
    42.5200       416
    42.5400       416
    42.5600       418
    42.5800       376
    42.6000       378
    42.6200       396
    42.6400       374
    42.6600       372
    42.6800       364
    42.7000       386
    42.7200       434
    42.7400       428
    42.7600       410
    42.7800       478
    42.8000       496
    42.8200       450
    42.8400       434
    42.8600       436
    42.8800       504
    42.9000       462
    42.9200       510
    42.9400       572
    42.9600       602
    42.9800       638
    43.0000       656
    43.0200       658
    43.0400       762
    43.0600       836
    43.0800       896
    43.1000       954
    43.1200      1120
    43.1400      1216
    43.1600      1348
    43.1800      1454
    43.2000      1552
    43.2200      1696
    43.2400      1630
    43.2600      1628
    43.2800      1556
    43.3000      1538
    43.3200      1464
    43.3400      1244
    43.3600      1178
    43.3800      1026
    43.4000      1064
    43.4200       926
    43.4400       868
    43.4600       772
    43.4800       738
    43.5000       660
    43.5200       630
    43.5400       604
    43.5600       590
    43.5800       522
    43.6000       558
    43.6200       534
    43.6400       528
    43.6600       530
    43.6800       526
    43.7000       554
    43.7200       566
    43.7400       590
    43.7600       610
    43.7800       598
    43.8000       656
    43.8200       686
    43.8400       664
    43.8600       642
    43.8800       682
    43.9000       652
    43.9200       688
    43.9400       614
    43.9600       640
    43.9800       624
    44.0000       618
    44.0200       576
    44.0400       536
    44.0600       508
    44.0800       478
    44.1000       476
    44.1200       482
    44.1400       464
    44.1600       476
    44.1800       508
    44.2000       454
    44.2200       466
    44.2400       516
    44.2600       542
    44.2800       492
    44.3000       474
    44.3200       488
    44.3400       476
    44.3600       498
    44.3800       514
    44.4000       538
    44.4200       536
    44.4400       518
    44.4600       508
    44.4800       506
    44.5000       582
    44.5200       568
    44.5400       562
    44.5600       580
    44.5800       652
    44.6000       638
    44.6200       666
    44.6400       658
    44.6600       708
    44.6800       730
    44.7000       736
    44.7200       802
    44.7400       824
    44.7600       798
    44.7800       890
    44.8000       858
    44.8200       846
    44.8400       852
    44.8600       922
    44.8800       992
    44.9000      1096
    44.9200      1092
    44.9400      1226
    44.9600      1260
    44.9800      1376
    45.0000      1492
    45.0200      1594
    45.0400      1620
    45.0600      1718
    45.0800      1730
    45.1000      1826
    45.1200      1814
    45.1400      1864
    45.1600      1856
    45.1800      1892
    45.2000      1868
    45.2200      1926
    45.2400      1952
    45.2600      1928
    45.2800      1866
    45.3000      1704
    45.3200      1756
    45.3400      1626
    45.3600      1618
    45.3800      1430
    45.4000      1412
    45.4200      1446
    45.4400      1384
    45.4600      1296
    45.4800      1304
    45.5000      1208
    45.5200      1210
    45.5400      1074
    45.5600      1062
    45.5800      1022
    45.6000       974
    45.6200       878
    45.6400       874
    45.6600       830
    45.6800       838
    45.7000       802
    45.7200       802
    45.7400       742
    45.7600       740
    45.7800       756
    45.8000       768
    45.8200       786
    45.8400       744
    45.8600       790
    45.8800       728
    45.9000       772
    45.9200       698
    45.9400       702
    45.9600       728
    45.9800       726
    46.0000       728
    46.0200       682
    46.0400       734
    46.0600       720
    46.0800       708
    46.1000       706
    46.1200       702
    46.1400       752
    46.1600       780
    46.1800       814
    46.2000       802
    46.2200       806
    46.2400       828
    46.2600       906
    46.2800       912
    46.3000      1002
    46.3200      1070
    46.3400      1098
    46.3600      1214
    46.3800      1258
    46.4000      1382
    46.4200      1500
    46.4400      1634
    46.4600      1754
    46.4800      2026
    46.5000      2208
    46.5200      2480
    46.5400      2606
    46.5600      2998
    46.5800      3320
    46.6000      3746
    46.6200      4262
    46.6400      4812
    46.6600      5276
    46.6800      5780
    46.7000      6298
    46.7200      6638
    46.7400      6656
    46.7600      6752
    46.7800      6710
    46.8000      6384
    46.8200      6114
    46.8400      5530
    46.8600      5348
    46.8800      4792
    46.9000      4316
    46.9200      3742
    46.9400      3242
    46.9600      2962
    46.9800      2680
    47.0000      2276
    47.0200      2050
    47.0400      1864
    47.0600      1608
    47.0800      1482
    47.1000      1406
    47.1200      1266
    47.1400      1124
    47.1600      1022
    47.1800       996
    47.2000       884
    47.2200       934
    47.2400       800
    47.2600       738
    47.2800       750
    47.3000       684
    47.3200       654
    47.3400       662
    47.3600       684
    47.3800       592
    47.4000       638
    47.4200       550
    47.4400       522
    47.4600       564
    47.4800       566
    47.5000       490
    47.5200       544
    47.5400       506
    47.5600       522
    47.5800       518
    47.6000       548
    47.6200       494
    47.6400       498
    47.6600       534
    47.6800       486
    47.7000       516
    47.7200       538
    47.7400       582
    47.7600       602
    47.7800       624
    47.8000       670
    47.8200       758
    47.8400       772
    47.8600       776
    47.8800       784
    47.9000       792
    47.9200       760
    47.9400       742
    47.9600       748
    47.9800       762
    48.0000       762
    48.0200       730
    48.0400       728
    48.0600       672
    48.0800       670
    48.1000       666
    48.1200       726
    48.1400       730
    48.1600       744
    48.1800       760
    48.2000       760
    48.2200       812
    48.2400       874
    48.2600       866
    48.2800       904
    48.3000       894
    48.3200       828
    48.3400       866
    48.3600       820
    48.3800       862
    48.4000       882
    48.4200       882
    48.4400       902
    48.4600       856
    48.4800       916
    48.5000       938
    48.5200       962
    48.5400      1030
    48.5600      1050
    48.5800       980
    48.6000      1028
    48.6200      1046
    48.6400      1086
    48.6600      1014
    48.6800      1004
    48.7000      1006
    48.7200       914
    48.7400       936
    48.7600       888
    48.7800       852
    48.8000       816
    48.8200       706
    48.8400       664
    48.8600       606
    48.8800       612
    48.9000       548
    48.9200       550
    48.9400       496
    48.9600       516
    48.9800       498
    49.0000       476
    49.0200       438
    49.0400       420
    49.0600       420
    49.0800       378
    49.1000       382
    49.1200       392
    49.1400       362
    49.1600       404
    49.1800       344
    49.2000       364
    49.2200       352
    49.2400       338
    49.2600       300
    49.2800       328
    49.3000       320
    49.3200       324
    49.3400       306
    49.3600       298
    49.3800       302
    49.4000       324
    49.4200       318
    49.4400       300
    49.4600       332
    49.4800       314
    49.5000       322
    49.5200       346
    49.5400       316
    49.5600       334
    49.5800       350
    49.6000       346
    49.6200       358
    49.6400       328
    49.6600       358
    49.6800       336
    49.7000       356
    49.7200       378
    49.7400       372
    49.7600       374
    49.7800       360
    49.8000       382
    49.8200       390
    49.8400       402
    49.8600       398
    49.8800       406
    49.9000       420
    49.9200       440
    49.9400       450
    49.9600       470
    49.9800       514
    50.0000       510
    50.0200       492
    50.0400       536
    50.0600       524
    50.0800       588
    50.1000       664
    50.1200       680
    50.1400       696
    50.1600       776
    50.1800       810
    50.2000       876
    50.2200       898
    50.2400      1010
    50.2600      1010
    50.2800      1084
    50.3000      1146
    50.3200      1150
    50.3400      1288
    50.3600      1162
    50.3800      1206
    50.4000      1220
    50.4200      1216
    50.4400      1128
    50.4600      1142
    50.4800      1126
    50.5000      1142
    50.5200      1092
    50.5400      1112
    50.5600      1168
    50.5800      1102
    50.6000      1096
    50.6200      1180
    50.6400      1192
    50.6600      1288
    50.6800      1304
    50.7000      1374
    50.7200      1508
    50.7400      1548
    50.7600      1626
    50.7800      1680
    50.8000      1756
    50.8200      1738
    50.8400      1854
    50.8600      1640
    50.8800      1746
    50.9000      1700
    50.9200      1666
    50.9400      1520
    50.9600      1490
    50.9800      1510
    51.0000      1342
    51.0200      1360
    51.0400      1190
    51.0600      1198
    51.0800      1058
    51.1000      1002
    51.1200       956
    51.1400       940
    51.1600       888
    51.1800       894
    51.2000       798
    51.2200       790
    51.2400       832
    51.2600       758
    51.2800       816
    51.3000       798
    51.3200       818
    51.3400       796
    51.3600       816
    51.3800       814
    51.4000       798
    51.4200       852
    51.4400       868
    51.4600       812
    51.4800       830
    51.5000       814
    51.5200       826
    51.5400       838
    51.5600       838
    51.5800       912
    51.6000       870
    51.6200       848
    51.6400       892
    51.6600       892
    51.6800       922
    51.7000       922
    51.7200       938
    51.7400      1062
    51.7600      1062
    51.7800      1124
    51.8000      1266
    51.8200      1262
    51.8400      1372
    51.8600      1476
    51.8800      1594
    51.9000      1674
    51.9200      1702
    51.9400      1720
    51.9600      1776
    51.9800      1880
    52.0000      1774
    52.0200      1764
    52.0400      1802
    52.0600      1698
    52.0800      1654
    52.1000      1520
    52.1200      1460
    52.1400      1354
    52.1600      1204
    52.1800      1232
    52.2000      1168
    52.2200       998
    52.2400       964
    52.2600       874
    52.2800       806
    52.3000       820
    52.3200       850
    52.3400       796
    52.3600       816
    52.3800       778
    52.4000       788
    52.4200       798
    52.4400       838
    52.4600       874
    52.4800       944
    52.5000       914
    52.5200      1078
    52.5400      1060
    52.5600      1174
    52.5800      1098
    52.6000      1244
    52.6200      1296
    52.6400      1346
    52.6600      1354
    52.6800      1272
    52.7000      1382
    52.7200      1378
    52.7400      1342
    52.7600      1250
    52.7800      1254
    52.8000      1238
    52.8200      1196
    52.8400      1118
    52.8600      1050
    52.8800      1090
    52.9000       986
    52.9200      1014
    52.9400       856
    52.9600       906
    52.9800       848
    53.0000       802
    53.0200       806
    53.0400       836
    53.0600       768
    53.0800       830
    53.1000       852
    53.1200       934
    53.1400       912
    53.1600       996
    53.1800      1022
    53.2000      1078
    53.2200      1192
    53.2400      1312
    53.2600      1342
    53.2800      1378
    53.3000      1498
    53.3200      1504
    53.3400      1408
    53.3600      1506
    53.3800      1448
    53.4000      1372
    53.4200      1280
    53.4400      1174
    53.4600      1120
    53.4800      1188
    53.5000      1110
    53.5200       996
    53.5400       894
    53.5600       852
    53.5800       808
    53.6000       748
    53.6200       700
    53.6400       656
    53.6600       622
    53.6800       604
    53.7000       634
    53.7200       626
    53.7400       576
    53.7600       574
    53.7800       574
    53.8000       516
    53.8200       552
    53.8400       486
    53.8600       526
    53.8800       464
    53.9000       482
    53.9200       484
    53.9400       458
    53.9600       520
    53.9800       474
    54.0000       532
    54.0200       448
    54.0400       468
    54.0600       454
    54.0800       516
    54.1000       504
    54.1200       492
    54.1400       490
    54.1600       516
    54.1800       520
    54.2000       478
    54.2200       570
    54.2400       594
    54.2600       550
    54.2800       568
    54.3000       624
    54.3200       596
    54.3400       628
    54.3600       624
    54.3800       644
    54.4000       682
    54.4200       690
    54.4400       688
    54.4600       694
    54.4800       736
    54.5000       750
    54.5200       722
    54.5400       770
    54.5600       732
    54.5800       768
    54.6000       740
    54.6200       716
    54.6400       840
    54.6600       868
    54.6800       820
    54.7000       880
    54.7200       848
    54.7400       840
    54.7600       848
    54.7800       882
    54.8000       854
    54.8200       894
    54.8400       866
    54.8600       888
    54.8800       820
    54.9000       780
    54.9200       782
    54.9400       830
    54.9600       836
    54.9800       832
    55.0000       784
    55.0200       826
    55.0400       842
    55.0600       880
    55.0800       892
    55.1000       914
    55.1200       856
    55.1400       922
    55.1600       922
    55.1800       938
    55.2000       912
    55.2200       924
    55.2400       946
    55.2600       882
    55.2800       886
    55.3000       854
    55.3200       898
    55.3400       842
    55.3600       804
    55.3800       798
    55.4000       736
    55.4200       740
    55.4400       708
    55.4600       714
    55.4800       646
    55.5000       638
    55.5200       602
    55.5400       596
    55.5600       556
    55.5800       548
    55.6000       550
    55.6200       538
    55.6400       488
    55.6600       498
    55.6800       458
    55.7000       464
    55.7200       464
    55.7400       434
    55.7600       452
    55.7800       406
    55.8000       390
    55.8200       398
    55.8400       350
    55.8600       390
    55.8800       364
    55.9000       348
    55.9200       376
    55.9400       374
    55.9600       368
    55.9800       348
    56.0000       326
    56.0200       340
    56.0400       362
    56.0600       332
    56.0800       366
    56.1000       348
    56.1200       356
    56.1400       328
    56.1600       330
    56.1800       350
    56.2000       366
    56.2200       368
    56.2400       354
    56.2600       356
    56.2800       354
    56.3000       370
    56.3200       376
    56.3400       342
    56.3600       326
    56.3800       348
    56.4000       358
    56.4200       360
    56.4400       364
    56.4600       372
    56.4800       396
    56.5000       390
    56.5200       422
    56.5400       400
    56.5600       412
    56.5800       436
    56.6000       430
    56.6200       468
    56.6400       448
    56.6600       488
    56.6800       486
    56.7000       494
    56.7200       480
    56.7400       562
    56.7600       588
    56.7800       618
    56.8000       564
    56.8200       614
    56.8400       594
    56.8600       562
    56.8800       588
    56.9000       552
    56.9200       524
    56.9400       546
    56.9600       596
    56.9800       556
    57.0000       542
    57.0200       584
    57.0400       564
    57.0600       524
    57.0800       536
    57.1000       562
    57.1200       596
    57.1400       636
    57.1600       612
    57.1800       694
    57.2000       668
    57.2200       742
    57.2400       794
    57.2600       852
    57.2800       928
    57.3000       942
    57.3200      1022
    57.3400      1114
    57.3600      1158
    57.3800      1304
    57.4000      1354
    57.4200      1420
    57.4400      1394
    57.4600      1384
    57.4800      1340
    57.5000      1406
    57.5200      1378
    57.5400      1340
    57.5600      1260
    57.5800      1344
    57.6000      1276
    57.6200      1284
    57.6400      1300
    57.6600      1326
    57.6800      1296
    57.7000      1298
    57.7200      1256
    57.7400      1424
    57.7600      1466
    57.7800      1416
    57.8000      1398
    57.8200      1450
    57.8400      1440
    57.8600      1352
    57.8800      1264
    57.9000      1254
    57.9200      1184
    57.9400      1108
    57.9600      1084
    57.9800      1118
    58.0000      1042
    58.0200       966
    58.0400       972
    58.0600       908
    58.0800       798
    58.1000       836
    58.1200       848
    58.1400       790
    58.1600       824
    58.1800       774
    58.2000       846
    58.2200       870
    58.2400       870
    58.2600       912
    58.2800       968
    58.3000       974
    58.3200      1020
    58.3400      1010
    58.3600      1140
    58.3800      1138
    58.4000      1268
    58.4200      1232
    58.4400      1416
    58.4600      1470
    58.4800      1552
    58.5000      1622
    58.5200      1750
    58.5400      1784
    58.5600      1880
    58.5800      1998
    58.6000      2014
    58.6200      2164
    58.6400      2244
    58.6600      2310
    58.6800      2458
    58.7000      2522
    58.7200      2644
    58.7400      2646
    58.7600      2660
    58.7800      2850
    58.8000      2664
    58.8200      2636
    58.8400      2536
    58.8600      2486
    58.8800      2472
    58.9000      2326
    58.9200      2298
    58.9400      2202
    58.9600      1902
    58.9800      1800
    59.0000      1760
    59.0200      1584
    59.0400      1564
    59.0600      1400
    59.0800      1298
    59.1000      1278
    59.1200      1216
    59.1400      1168
    59.1600      1086
    59.1800      1052
    59.2000      1064
    59.2200      1030
    59.2400      1086
    59.2600      1102
    59.2800      1080
    59.3000      1156
    59.3200      1190
    59.3400      1192
    59.3600      1292
    59.3800      1308
    59.4000      1368
    59.4200      1376
    59.4400      1444
    59.4600      1416
    59.4800      1420
    59.5000      1434
    59.5200      1346
    59.5400      1356
    59.5600      1228
    59.5800      1240
    59.6000      1218
    59.6200      1240
    59.6400      1248
    59.6600      1124
    59.6800      1136
    59.7000      1072
    59.7200       980
    59.7400      1036
    59.7600       920
    59.7800       946
    59.8000       924
    59.8200       930
    59.8400       886
    59.8600       850
    59.8800       834
    59.9000       790
    59.9200       736
    59.9400       736
    59.9600       732
    59.9800       664
    60.0000       698
    60.0200       638
    60.0400       634
    60.0600       590
    60.0800       556
    60.1000       542
    60.1200       548
    60.1400       508
    60.1600       512
    60.1800       512
    60.2000       468
    60.2200       480
    60.2400       454
    60.2600       432
    60.2800       448
    60.3000       416
    60.3200       436
    60.3400       394
    60.3600       384
    60.3800       418
    60.4000       380
    60.4200       410
    60.4400       352
    60.4600       382
    60.4800       388
    60.5000       406
    60.5200       404
    60.5400       390
    60.5600       388
    60.5800       400
    60.6000       408
    60.6200       412
    60.6400       394
    60.6600       422
    60.6800       368
    60.7000       402
    60.7200       380
    60.7400       384
    60.7600       414
    60.7800       432
    60.8000       446
    60.8200       408
    60.8400       438
    60.8600       456
    60.8800       470
    60.9000       472
    60.9200       476
    60.9400       462
    60.9600       494
    60.9800       514
    61.0000       544
    61.0200       604
    61.0400       570
    61.0600       602
    61.0800       648
    61.1000       642
    61.1200       682
    61.1400       678
    61.1600       706
    61.1800       772
    61.2000       740
    61.2200       776
    61.2400       806
    61.2600       808
    61.2800       836
    61.3000       828
    61.3200       818
    61.3400       842
    61.3600       886
    61.3800       906
    61.4000       882
    61.4200       916
    61.4400       978
    61.4600      1034
    61.4800      1020
    61.5000      1082
    61.5200      1092
    61.5400      1126
    61.5600      1192
    61.5800      1186
    61.6000      1210
    61.6200      1244
    61.6400      1184
    61.6600      1108
    61.6800      1100
    61.7000      1010
    61.7200      1026
    61.7400       978
    61.7600       950
    61.7800       914
    61.8000       900
    61.8200       804
    61.8400       808
    61.8600       804
    61.8800       738
    61.9000       724
    61.9200       680
    61.9400       662
    61.9600       608
    61.9800       628
    62.0000       610
    62.0200       630
    62.0400       540
    62.0600       612
    62.0800       640
    62.1000       564
    62.1200       580
    62.1400       570
    62.1600       572
    62.1800       596
    62.2000       582
    62.2200       572
    62.2400       562
    62.2600       570
    62.2800       568
    62.3000       526
    62.3200       498
    62.3400       516
    62.3600       500
    62.3800       518
    62.4000       528
    62.4200       456
    62.4400       520
    62.4600       454
    62.4800       474
    62.5000       444
    62.5200       436
    62.5400       438
    62.5600       444
    62.5800       432
    62.6000       404
    62.6200       414
    62.6400       434
    62.6600       406
    62.6800       402
    62.7000       438
    62.7200       394
    62.7400       414
    62.7600       400
    62.7800       396
    62.8000       384
    62.8200       404
    62.8400       380
    62.8600       346
    62.8800       352
    62.9000       352
    62.9200       340
    62.9400       330
    62.9600       334
    62.9800       336
    63.0000       332
    63.0200       310
    63.0400       312
    63.0600       314
    63.0800       262
    63.1000       310
    63.1200       298
    63.1400       292
    63.1600       304
    63.1800       270
    63.2000       270
    63.2200       290
    63.2400       280
    63.2600       286
    63.2800       300
    63.3000       294
    63.3200       298
    63.3400       288
    63.3600       304
    63.3800       266
    63.4000       340
    63.4200       318
    63.4400       294
    63.4600       314
    63.4800       320
    63.5000       308
    63.5200       340
    63.5400       316
    63.5600       356
    63.5800       372
    63.6000       360
    63.6200       366
    63.6400       420
    63.6600       414
    63.6800       404
    63.7000       422
    63.7200       470
    63.7400       494
    63.7600       506
    63.7800       550
    63.8000       538
    63.8200       638
    63.8400       624
    63.8600       650
    63.8800       704
    63.9000       756
    63.9200       720
    63.9400       770
    63.9600       684
    63.9800       694
    64.0000       668
    64.0200       660
    64.0400       626
    64.0600       656
    64.0800       548
    64.1000       578
    64.1200       574
    64.1400       568
    64.1600       520
    64.1800       506
    64.2000       460
    64.2200       418
    64.2400       434
    64.2600       394
    64.2800       390
    64.3000       366
    64.3200       364
    64.3400       344
    64.3600       350
    64.3800       374
    64.4000       352
    64.4200       314
    64.4400       302
    64.4600       290
    64.4800       306
    64.5000       294
    64.5200       280
    64.5400       266
    64.5600       304
    64.5800       316
    64.6000       282
    64.6200       296
    64.6400       294
    64.6600       298
    64.6800       280
    64.7000       316
    64.7200       258
    64.7400       318
    64.7600       290
    64.7800       298
    64.8000       306
    64.8200       306
    64.8400       276
    64.8600       290
    64.8800       310
    64.9000       322
    64.9200       338
    64.9400       336
    64.9600       358
    64.9800       340
    65.0000       348
    65.0200       372
    65.0400       348
    65.0600       342
    65.0800       350
    65.1000       428
    65.1200       420
    65.1400       396
    65.1600       458
    65.1800       398
    65.2000       420
    65.2200       450
    65.2400       480
    65.2600       440
    65.2800       456
    65.3000       416
    65.3200       464
    65.3400       444
    65.3600       452
    65.3800       502
    65.4000       498
    65.4200       488
    65.4400       498
    65.4600       426
    65.4800       502
    65.5000       452
    65.5200       452
    65.5400       456
    65.5600       442
    65.5800       398
    65.6000       386
    65.6200       430
    65.6400       374
    65.6600       402
    65.6800       406
    65.7000       370
    65.7200       390
    65.7400       352
    65.7600       350
    65.7800       348
    65.8000       370
    65.8200       374
    65.8400       328
    65.8600       336
    65.8800       284
    65.9000       292
    65.9200       324
    65.9400       294
    65.9600       290
    65.9800       300
    66.0000       282
    66.0200       260
    66.0400       274
    66.0600       288
    66.0800       282
    66.1000       258
    66.1200       266
    66.1400       290
    66.1600       276
    66.1800       278
    66.2000       278
    66.2200       294
    66.2400       312
    66.2600       292
    66.2800       252
    66.3000       308
    66.3200       280
    66.3400       258
    66.3600       346
    66.3800       324
    66.4000       308
    66.4200       314
    66.4400       316
    66.4600       372
    66.4800       360
    66.5000       342
    66.5200       366
    66.5400       354
    66.5600       396
    66.5800       372
    66.6000       406
    66.6200       408
    66.6400       424
    66.6600       456
    66.6800       510
    66.7000       536
    66.7200       518
    66.7400       540
    66.7600       562
    66.7800       584
    66.8000       582
    66.8200       602
    66.8400       670
    66.8600       706
    66.8800       778
    66.9000       766
    66.9200       784
    66.9400       822
    66.9600       808
    66.9800       826
    67.0000       772
    67.0200       748
    67.0400       780
    67.0600       776
    67.0800       752
    67.1000       664
    67.1200       698
    67.1400       678
    67.1600       620
    67.1800       676
    67.2000       594
    67.2200       580
    67.2400       568
    67.2600       552
    67.2800       526
    67.3000       512
    67.3200       454
    67.3400       484
    67.3600       464
    67.3800       410
    67.4000       404
    67.4200       378
    67.4400       404
    67.4600       384
    67.4800       380
    67.5000       346
    67.5200       376
    67.5400       360
    67.5600       352
    67.5800       348
    67.6000       338
    67.6200       328
    67.6400       346
    67.6600       342
    67.6800       372
    67.7000       364
    67.7200       362
    67.7400       402
    67.7600       374
    67.7800       404
    67.8000       414
    67.8200       406
    67.8400       408
    67.8600       436
    67.8800       428
    67.9000       428
    67.9200       456
    67.9400       512
    67.9600       520
    67.9800       512
    68.0000       604
    68.0200       642
    68.0400       624
    68.0600       750
    68.0800       720
    68.1000       780
    68.1200       834
    68.1400       908
    68.1600       902
    68.1800       912
    68.2000      1008
    68.2200      1012
    68.2400      1038
    68.2600      1064
    68.2800      1040
    68.3000      1010
    68.3200      1080
    68.3400      1062
    68.3600      1044
    68.3800       952
    68.4000       928
    68.4200       948
    68.4400       908
    68.4600       834
    68.4800       846
    68.5000       778
    68.5200       720
    68.5400       706
    68.5600       664
    68.5800       682
    68.6000       618
    68.6200       656
    68.6400       580
    68.6600       550
    68.6800       522
    68.7000       478
    68.7200       472
    68.7400       456
    68.7600       474
    68.7800       426
    68.8000       476
    68.8200       430
    68.8400       404
    68.8600       400
    68.8800       390
    68.9000       378
    68.9200       364
    68.9400       358
    68.9600       392
    68.9800       358
    69.0000       374
    69.0200       366
    69.0400       344
    69.0600       346
    69.0800       334
    69.1000       378
    69.1200       358
    69.1400       360
    69.1600       420
    69.1800       402
    69.2000       384
    69.2200       378
    69.2400       372
    69.2600       358
    69.2800       422
    69.3000       408
    69.3200       414
    69.3400       458
    69.3600       470
    69.3800       470
    69.4000       500
    69.4200       532
    69.4400       498
    69.4600       520
    69.4800       552
    69.5000       534
    69.5200       520
    69.5400       456
    69.5600       492
    69.5800       460
    69.6000       468
    69.6200       446
    69.6400       506
    69.6600       466
    69.6800       456
    69.7000       464
    69.7200       450
    69.7400       434
    69.7600       390
    69.7800       440
    69.8000       410
    69.8200       466
    69.8400       392
    69.8600       402
    69.8800       460
    69.9000       384
    69.9200       404
    69.9400       378
    69.9600       396
    69.9800       382
    70.0000       354
    70.0200       348
    70.0400       338
    70.0600       330
    70.0800       360
    70.1000       352
    70.1200       348
    70.1400       334
    70.1600       294
    70.1800       300
    70.2000       302
    70.2200       266
    70.2400       278
    70.2600       274
    70.2800       258
    70.3000       280
    70.3200       248
    70.3400       230
    70.3600       242
    70.3800       256
    70.4000       254
    70.4200       268
    70.4400       250
    70.4600       264
    70.4800       276
    70.5000       270
    70.5200       226
    70.5400       230
    70.5600       230
    70.5800       256
    70.6000       234
    70.6200       268
    70.6400       252
    70.6600       260
    70.6800       252
    70.7000       278
    70.7200       274
    70.7400       246
    70.7600       254
    70.7800       274
    70.8000       246
    70.8200       234
    70.8400       266
    70.8600       270
    70.8800       226
    70.9000       234
    70.9200       238
    70.9400       250
    70.9600       232
    70.9800       282
    71.0000       226
    71.0200       234
    71.0400       280
    71.0600       244
    71.0800       238
    71.1000       282
    71.1200       250
    71.1400       246
    71.1600       264
    71.1800       272
    71.2000       310
    71.2200       278
    71.2400       276
    71.2600       314
    71.2800       294
    71.3000       322
    71.3200       344
    71.3400       356
    71.3600       368
    71.3800       334
    71.4000       386
    71.4200       424
    71.4400       388
    71.4600       466
    71.4800       450
    71.5000       508
    71.5200       542
    71.5400       520
    71.5600       524
    71.5800       560
    71.6000       550
    71.6200       580
    71.6400       544
    71.6600       542
    71.6800       562
    71.7000       536
    71.7200       556
    71.7400       554
    71.7600       562
    71.7800       566
    71.8000       498
    71.8200       560
    71.8400       510
    71.8600       546
    71.8800       508
    71.9000       484
    71.9200       492
    71.9400       478
    71.9600       506
    71.9800       460
    72.0000       478
    72.0200       456
    72.0400       456
    72.0600       408
    72.0800       458
    72.1000       476
    72.1200       446
    72.1400       434
    72.1600       418
    72.1800       448
    72.2000       436
    72.2200       476
    72.2400       476
    72.2600       452
    72.2800       478
    72.3000       484
    72.3200       490
    72.3400       478
    72.3600       488
    72.3800       498
    72.4000       524
    72.4200       572
    72.4400       492
    72.4600       522
    72.4800       546
    72.5000       504
    72.5200       542
    72.5400       528
    72.5600       522
    72.5800       536
    72.6000       522
    72.6200       544
    72.6400       566
    72.6600       504
    72.6800       576
    72.7000       544
    72.7200       512
    72.7400       502
    72.7600       540
    72.7800       542
    72.8000       558
    72.8200       534
    72.8400       518
    72.8600       522
    72.8800       512
    72.9000       482
    72.9200       508
    72.9400       500
    72.9600       454
    72.9800       516
    73.0000       498
    73.0200       434
    73.0400       486
    73.0600       420
    73.0800       374
    73.1000       384
    73.1200       398
    73.1400       380
    73.1600       360
    73.1800       344
    73.2000       338
    73.2200       364
    73.2400       328
    73.2600       334
    73.2800       324
    73.3000       284
    73.3200       282
    73.3400       280
    73.3600       256
    73.3800       274
    73.4000       310
    73.4200       280
    73.4400       240
    73.4600       250
    73.4800       288
    73.5000       256
    73.5200       240
    73.5400       220
    73.5600       226
    73.5800       266
    73.6000       248
    73.6200       254
    73.6400       232
    73.6600       254
    73.6800       240
    73.7000       266
    73.7200       238
    73.7400       256
    73.7600       280
    73.7800       280
    73.8000       298
    73.8200       282
    73.8400       274
    73.8600       286
    73.8800       276
    73.9000       270
    73.9200       288
    73.9400       286
    73.9600       292
    73.9800       280
    74.0000       306
    74.0200       264
    74.0400       266
    74.0600       294
    74.0800       314
    74.1000       298
    74.1200       302
    74.1400       322
    74.1600       318
    74.1800       298
    74.2000       322
    74.2200       280
    74.2400       314
    74.2600       252
    74.2800       296
    74.3000       278
    74.3200       286
    74.3400       266
    74.3600       244
    74.3800       272
    74.4000       284
    74.4200       254
    74.4400       236
    74.4600       292
    74.4800       240
    74.5000       236
    74.5200       234
    74.5400       232
    74.5600       250
    74.5800       212
    74.6000       200
    74.6200       218
    74.6400       210
    74.6600       216
    74.6800       234
    74.7000       190
    74.7200       246
    74.7400       196
    74.7600       218
    74.7800       200
    74.8000       222
    74.8200       202
    74.8400       234
    74.8600       188
    74.8800       198
    74.9000       228
    74.9200       214
    74.9400       236
    74.9600       226
    74.9800       238
    75.0000       234
    75.0200       198
    75.0400       228
    75.0600       222
    75.0800       200
    75.1000       212
    75.1200       220
    75.1400       232
    75.1600       216
    75.1800       234
    75.2000       262
    75.2200       222
    75.2400       234
    75.2600       238
    75.2800       216
    75.3000       266
    75.3200       234
    75.3400       246
    75.3600       228
    75.3800       252
    75.4000       226
    75.4200       240
    75.4400       254
    75.4600       244
    75.4800       246
    75.5000       260
    75.5200       258
    75.5400       246
    75.5600       278
    75.5800       238
    75.6000       304
    75.6200       280
    75.6400       266
    75.6600       264
    75.6800       250
    75.7000       254
    75.7200       242
    75.7400       272
    75.7600       286
    75.7800       228
    75.8000       270
    75.8200       228
    75.8400       288
    75.8600       278
    75.8800       290
    75.9000       262
    75.9200       274
    75.9400       302
    75.9600       246
    75.9800       280
    76.0000       278
    76.0200       268
    76.0400       258
    76.0600       246
    76.0800       260
    76.1000       238
    76.1200       296
    76.1400       296
    76.1600       280
    76.1800       274
    76.2000       276
    76.2200       280
    76.2400       278
    76.2600       304
    76.2800       280
    76.3000       294
    76.3200       328
    76.3400       318
    76.3600       290
    76.3800       320
    76.4000       300
    76.4200       350
    76.4400       294
    76.4600       354
    76.4800       358
    76.5000       382
    76.5200       354
    76.5400       370
    76.5600       396
    76.5800       372
    76.6000       360
    76.6200       388
    76.6400       436
    76.6600       428
    76.6800       384
    76.7000       418
    76.7200       408
    76.7400       396
    76.7600       382
    76.7800       410
    76.8000       380
    76.8200       366
    76.8400       382
    76.8600       380
    76.8800       414
    76.9000       396
    76.9200       380
    76.9400       342
    76.9600       376
    76.9800       350
    77.0000       368
    77.0200       374
    77.0400       360
    77.0600       388
    77.0800       322
    77.1000       320
    77.1200       328
    77.1400       346
    77.1600       346
    77.1800       352
    77.2000       316
    77.2200       362
    77.2400       382
    77.2600       368
    77.2800       378
    77.3000       380
    77.3200       392
    77.3400       404
    77.3600       412
    77.3800       386
    77.4000       418
    77.4200       404
    77.4400       486
    77.4600       438
    77.4800       524
    77.5000       504
    77.5200       494
    77.5400       552
    77.5600       554
    77.5800       570
    77.6000       574
    77.6200       682
    77.6400       722
    77.6600       694
    77.6800       718
    77.7000       726
    77.7200       692
    77.7400       676
    77.7600       714
    77.7800       752
    77.8000       706
    77.8200       712
    77.8400       704
    77.8600       686
    77.8800       688
    77.9000       682
    77.9200       666
    77.9400       638
    77.9600       640
    77.9800       570
    78.0000       554
    78.0200       604
    78.0400       510
    78.0600       544
    78.0800       484
    78.1000       484
    78.1200       436
    78.1400       476
    78.1600       446
    78.1800       452
    78.2000       408
    78.2200       430
    78.2400       374
    78.2600       398
    78.2800       384
    78.3000       388
    78.3200       360
    78.3400       356
    78.3600       338
    78.3800       372
    78.4000       370
    78.4200       396
    78.4400       374
    78.4600       374
    78.4800       392
    78.5000       380
    78.5200       396
    78.5400       374
    78.5600       432
    78.5800       422
    78.6000       396
    78.6200       404
    78.6400       398
    78.6600       444
    78.6800       428
    78.7000       424
    78.7200       406
    78.7400       426
    78.7600       406
    78.7800       380
    78.8000       410
    78.8200       416
    78.8400       384
    78.8600       396
    78.8800       420
    78.9000       382
    78.9200       398
    78.9400       388
    78.9600       360
    78.9800       338
    79.0000       362
    79.0200       366
    79.0400       332
    79.0600       346
    79.0800       326
    79.1000       334
    79.1200       294
    79.1400       300
    79.1600       310
    79.1800       320
    79.2000       278
    79.2200       292
    79.2400       266
    79.2600       278
    79.2800       302
    79.3000       250
    79.3200       278
    79.3400       274
    79.3600       258
    79.3800       250
    79.4000       244
    79.4200       232
    79.4400       256
    79.4600       246
    79.4800       254
    79.5000       256
    79.5200       272
    79.5400       270
    79.5600       266
    79.5800       266
    79.6000       246
    79.6200       258
    79.6400       222
    79.6600       290
    79.6800       274
    79.7000       268
    79.7200       254
    79.7400       274
    79.7600       254
    79.7800       252
    79.8000       244
    79.8200       244
    79.8400       246
    79.8600       270
    79.8800       278
    79.9000       268
    79.9200       252
    79.9400       256
    79.9600       288
    79.9800       268
    80.0000       264
    80.0200       242
    80.0400       260
    80.0600       244
    80.0800       274
    80.1000       294
    80.1200       246
    80.1400       252
    80.1600       260
    80.1800       256
    80.2000       258
    80.2200       272
    80.2400       218
    80.2600       260
    80.2800       270
    80.3000       264
    80.3200       242
    80.3400       288
    80.3600       236
    80.3800       258
    80.4000       284
    80.4200       276
    80.4400       252
    80.4600       268
    80.4800       308
    80.5000       240
    80.5200       286
    80.5400       292
    80.5600       280
    80.5800       264
    80.6000       276
    80.6200       276
    80.6400       272
    80.6600       258
    80.6800       222
    80.7000       288
    80.7200       252
    80.7400       282
    80.7600       266
    80.7800       244
    80.8000       252
    80.8200       252
    80.8400       254
    80.8600       230
    80.8800       234
    80.9000       250
    80.9200       230
    80.9400       242
    80.9600       266
    80.9800       224
    81.0000       194
    81.0200       226
    81.0400       246
    81.0600       230
    81.0800       234
    81.1000       222
    81.1200       228
    81.1400       234
    81.1600       200
    81.1800       222
    81.2000       230
    81.2200       214
    81.2400       224
    81.2600       244
    81.2800       228
    81.3000       282
    81.3200       234
    81.3400       270
    81.3600       270
    81.3800       248
    81.4000       250
    81.4200       276
    81.4400       262
    81.4600       268
    81.4800       270
    81.5000       256
    81.5200       298
    81.5400       270
    81.5600       284
    81.5800       270
    81.6000       282
    81.6200       254
    81.6400       280
    81.6600       314
    81.6800       258
    81.7000       308
    81.7200       300
    81.7400       298
    81.7600       266
    81.7800       310
    81.8000       322
    81.8200       294
    81.8400       318
    81.8600       318
    81.8800       310
    81.9000       292
    81.9200       304
    81.9400       320
    81.9600       318
    81.9800       364
    82.0000       314
    82.0200       316
    82.0400       316
    82.0600       332
    82.0800       336
    82.1000       344
    82.1200       386
    82.1400       370
    82.1600       338
    82.1800       352
    82.2000       332
    82.2200       358
    82.2400       330
    82.2600       364
    82.2800       362
    82.3000       384
    82.3200       378
    82.3400       400
    82.3600       368
    82.3800       382
    82.4000       398
    82.4200       390
    82.4400       422
    82.4600       424
    82.4800       398
    82.5000       404
    82.5200       448
    82.5400       458
    82.5600       424
    82.5800       454
    82.6000       482
    82.6200       466
    82.6400       480
    82.6600       546
    82.6800       506
    82.7000       544
    82.7200       532
    82.7400       588
    82.7600       570
    82.7800       594
    82.8000       624
    82.8200       634
    82.8400       642
    82.8600       654
    82.8800       632
    82.9000       676
    82.9200       718
    82.9400       662
    82.9600       680
    82.9800       620
    83.0000       642
    83.0200       656
    83.0400       618
    83.0600       632
    83.0800       584
    83.1000       644
    83.1200       564
    83.1400       594
    83.1600       560
    83.1800       602
    83.2000       552
    83.2200       520
    83.2400       494
    83.2600       530
    83.2800       458
    83.3000       508
    83.3200       460
    83.3400       466
    83.3600       462
    83.3800       452
    83.4000       440
    83.4200       400
    83.4400       414
    83.4600       418
    83.4800       400
    83.5000       462
    83.5200       404
    83.5400       406
    83.5600       378
    83.5800       392
    83.6000       344
    83.6200       346
    83.6400       330
    83.6600       336
    83.6800       334
    83.7000       324
    83.7200       334
    83.7400       324
    83.7600       316
    83.7800       296
    83.8000       322
    83.8200       270
    83.8400       330
    83.8600       352
    83.8800       300
    83.9000       308
    83.9200       290
    83.9400       314
    83.9600       310
    83.9800       292
    84.0000       310
    84.0200       314
    84.0400       336
    84.0600       328
    84.0800       342
    84.1000       300
    84.1200       270
    84.1400       294
    84.1600       328
    84.1800       292
    84.2000       336
    84.2200       338
    84.2400       342
    84.2600       306
    84.2800       332
    84.3000       308
    84.3200       322
    84.3400       336
    84.3600       312
    84.3800       296
    84.4000       314
    84.4200       312
    84.4400       320
    84.4600       362
    84.4800       308
    84.5000       300
    84.5200       286
    84.5400       294
    84.5600       324
    84.5800       330
    84.6000       306
    84.6200       304
    84.6400       290
    84.6600       260
    84.6800       274
    84.7000       298
    84.7200       278
    84.7400       246
    84.7600       296
    84.7800       288
    84.8000       282
    84.8200       316
    84.8400       302
    84.8600       254
    84.8800       274
    84.9000       268
    84.9200       290
    84.9400       262
    84.9600       292
    84.9800       294
    85.0000       266
    85.0200       298
    85.0400       264
    85.0600       270
    85.0800       272
    85.1000       232
    85.1200       234
    85.1400       262
    85.1600       230
    85.1800       258
    85.2000       256
    85.2200       260
    85.2400       268
    85.2600       258
    85.2800       252
    85.3000       240
    85.3200       220
    85.3400       236
    85.3600       270
    85.3800       314
    85.4000       240
    85.4200       210
    85.4400       278
    85.4600       248
    85.4800       244
    85.5000       286
    85.5200       280
    85.5400       294
    85.5600       284
    85.5800       298
    85.6000       278
    85.6200       288
    85.6400       298
    85.6600       340
    85.6800       282
    85.7000       272
    85.7200       294
    85.7400       296
    85.7600       322
    85.7800       294
    85.8000       294
    85.8200       282
    85.8400       272
    85.8600       264
    85.8800       254
    85.9000       288
    85.9200       280
    85.9400       288
    85.9600       264
    85.9800       250
    86.0000       292
    86.0200       274
    86.0400       234
    86.0600       254
    86.0800       264
    86.1000       242
    86.1200       244
    86.1400       220
    86.1600       260
    86.1800       250
    86.2000       264
    86.2200       258
    86.2400       232
    86.2600       234
    86.2800       244
    86.3000       270
    86.3200       264
    86.3400       264
    86.3600       248
    86.3800       236
    86.4000       228
    86.4200       240
    86.4400       230
    86.4600       250
    86.4800       256
    86.5000       252
    86.5200       242
    86.5400       266
    86.5600       228
    86.5800       262
    86.6000       274
    86.6200       250
    86.6400       276
    86.6600       286
    86.6800       284
    86.7000       280
    86.7200       280
    86.7400       310
    86.7600       304
    86.7800       302
    86.8000       314
    86.8200       318
    86.8400       328
    86.8600       324
    86.8800       344
    86.9000       324
    86.9200       322
    86.9400       380
    86.9600       338
    86.9800       372
    87.0000       332
    87.0200       376
    87.0400       360
    87.0600       368
    87.0800       378
    87.1000       390
    87.1200       394
    87.1400       382
    87.1600       368
    87.1800       384
    87.2000       368
    87.2200       340
    87.2400       372
    87.2600       338
    87.2800       350
    87.3000       330
    87.3200       306
    87.3400       332
    87.3600       356
    87.3800       350
    87.4000       322
    87.4200       300
    87.4400       340
    87.4600       336
    87.4800       334
    87.5000       344
    87.5200       312
    87.5400       320
    87.5600       340
    87.5800       312
    87.6000       312
    87.6200       334
    87.6400       346
    87.6600       332
    87.6800       324
    87.7000       372
    87.7200       366
    87.7400       344
    87.7600       378
    87.7800       382
    87.8000       414
    87.8200       362
    87.8400       376
    87.8600       404
    87.8800       418
    87.9000       388
    87.9200       392
    87.9400       374
    87.9600       384
    87.9800       386
    88.0000       402
    88.0200       370
    88.0400       382
    88.0600       386
    88.0800       374
    88.1000       410
    88.1200       408
    88.1400       400
    88.1600       414
    88.1800       370
    88.2000       416
    88.2200       382
    88.2400       354
    88.2600       398
    88.2800       426
    88.3000       382
    88.3200       392
    88.3400       360
    88.3600       394
    88.3800       358
    88.4000       368
    88.4200       358
    88.4400       370
    88.4600       394
    88.4800       368
    88.5000       350
    88.5200       360
    88.5400       342
    88.5600       358
    88.5800       322
    88.6000       332
    88.6200       362
    88.6400       384
    88.6600       292
    88.6800       334
    88.7000       318
    88.7200       310
    88.7400       332
    88.7600       334
    88.7800       302
    88.8000       312
    88.8200       302
    88.8400       322
    88.8600       306
    88.8800       276
    88.9000       320
    88.9200       308
    88.9400       284
    88.9600       256
    88.9800       258
    89.0000       264
    89.0200       290
    89.0400       302
    89.0600       272
    89.0800       252
    89.1000       258
    89.1200       274
    89.1400       254
    89.1600       246
    89.1800       228
    89.2000       266
    89.2200       256
    89.2400       260
    89.2600       268
    89.2800       272
    89.3000       252
    89.3200       248
    89.3400       226
    89.3600       290
    89.3800       248
    89.4000       232
    89.4200       282
    89.4400       260
    89.4600       272
    89.4800       270
    89.5000       268
    89.5200       258
    89.5400       294
    89.5600       286
    89.5800       244
    89.6000       290
    89.6200       268
    89.6400       276
    89.6600       308
    89.6800       312
    89.7000       268
    89.7200       274
    89.7400       294
    89.7600       290
    89.7800       280
    89.8000       324
    89.8200       288
    89.8400       310
    89.8600       306
    89.8800       290
    89.9000       268
    89.9200       308
    89.9400       284
    89.9600       310
    89.9800       286
    90.0000       302
